[24, 22, 23, 21, 28, 40, 25, 23]
0.67[24, 26, 24, 21, 28, 43, 27, 25]
0.693[25, 41, 27, 22, 31, 48, 27, 25]
0.715[23, 40, 26, 22, 31, 40, 23, 23]
0.731[22, 39, 25, 23, 30, 40, 24, 23]
0.753[26, 41, 25, 24, 30, 46, 28, 23]
0.776[25, 39, 24, 26, 28, 41, 26, 21]
0.79[23, 22, 23, 30, 26, 36, 25, 20]
0.813[23, 23, 21, 31, 22, 37, 25, 20]
0.843[22, 23, 20, 31, 21, 36, 25, 19]
0.85[16, 19, 21, 31, 24, 32, 21, 19]
0.88[16, 20, 22, 31, 26, 31, 21, 21]
0.895[17, 21, 21, 30, 27, 31, 21, 24]
0.91[16, 19, 22, 25, 26, 28, 21, 24]
0.933[17, 20, 22, 25, 27, 32, 22, 24]
0.956[19, 20, 24, 24, 27, 34, 24, 26]
0.97[19, 20, 24, 24, 26, 36, 25, 25]
0.993[21, 20, 24, 22, 25, 34, 24, 22]
1.015[21, 24, 24, 23, 25, 36, 25, 23]
1.03[21, 23, 24, 23, 24, 35, 22, 23]
1.054[20, 22, 22, 24, 25, 36, 23, 23]
1.075[21, 22, 21, 25, 29, 41, 24, 22]
1.091[21, 22, 23, 24, 28, 42, 24, 23]
1.121[21, 19, 24, 25, 29, 45, 24, 24]
1.135[20, 19, 24, 25, 31, 44, 25, 22]
1.158[19, 21, 25, 24, 30, 41, 23, 21]
1.173[20, 21, 25, 23, 32, 50, 22, 20]
1.196[18, 20, 21, 24, 32, 53, 22, 21]
1.21[21, 22, 22, 24, 33, 49, 23, 20]
1.233[23, 21, 20, 24, 30, 48, 26, 22]
1.256[23, 20, 21, 24, 29, 50, 26, 22]
1.27[21, 21, 20, 24, 24, 35, 26, 22]
1.293[21, 21, 20, 26, 27, 31, 25, 21]
1.316[19, 19, 19, 25, 28, 39, 26, 24]
1.338[18, 20, 20, 24, 31, 42, 25, 24]
1.354[17, 21, 20, 25, 31, 48, 25, 24]
1.375[17, 21, 21, 27, 29, 50, 34, 27]
1.398[17, 20, 21, 24, 28, 50, 34, 28]
1.413[18, 21, 21, 26, 27, 46, 33, 27]
1.436[19, 20, 23, 27, 27, 45, 33, 26]
1.458[22, 22, 24, 27, 27, 39, 32, 26]
1.473[22, 21, 24, 26, 29, 36, 22, 24]
1.495[22, 22, 25, 26, 30, 37, 22, 24]
1.518[23, 23, 26, 25, 27, 33, 23, 24]
1.542[21, 23, 24, 24, 26, 29, 21, 26]
1.555[19, 20, 22, 24, 26, 28, 22, 27]
1.578[20, 20, 22, 24, 27, 27, 21, 25]
1.609[20, 20, 24, 28, 28, 28, 25, 26]
1.616[18, 21, 26, 30, 29, 28, 26, 29]
1.638[18, 23, 27, 29, 27, 31, 28, 26]
1.661[20, 24, 26, 28, 28, 35, 27, 25]
1.675[19, 25, 27, 29, 27, 37, 27, 29]
1.698[19, 25, 25, 27, 25, 38, 23, 28]
1.721[20, 23, 23, 24, 28, 37, 22, 24]
1.735[19, 21, 22, 24, 28, 36, 19, 24]
1.758[20, 20, 22, 24, 28, 31, 18, 23]
1.781[22, 18, 24, 24, 26, 29, 20, 19]
1.803[23, 20, 23, 21, 24, 26, 19, 18]
1.818[24, 19, 23, 20, 23, 31, 22, 20]
1.841[23, 18, 23, 23, 25, 30, 23, 21]
1.863[22, 23, 24, 22, 23, 30, 23, 21]
1.877[20, 23, 23, 22, 27, 31, 22, 21]
1.901[19, 22, 24, 23, 27, 34, 22, 21]
1.923[19, 23, 22, 26, 27, 32, 30, 28]
1.937[19, 23, 22, 25, 26, 35, 29, 29]
1.961[20, 21, 22, 25, 26, 34, 29, 29]
1.983[21, 21, 22, 29, 27, 41, 29, 29]
1.998[22, 21, 24, 29, 28, 40, 31, 31]
2.021[21, 20, 24, 26, 29, 38, 20, 22]
2.043[24, 21, 26, 27, 28, 36, 23, 22]
2.057[24, 19, 26, 27, 29, 38, 24, 22]
2.08[23, 20, 25, 24, 26, 31, 25, 22]
2.103[22, 19, 23, 25, 26, 30, 24, 20]
2.117[22, 19, 25, 25, 26, 28, 25, 23]
2.14[20, 18, 23, 23, 26, 31, 28, 26]
2.164[18, 20, 22, 24, 24, 31, 27, 26]
2.177[20, 20, 26, 22, 25, 33, 28, 26]
2.2[21, 22, 28, 22, 24, 34, 27, 27]
2.231[20, 22, 26, 23, 24, 35, 27, 24]
2.238[21, 23, 28, 23, 24, 33, 21, 19]
2.261[21, 21, 28, 25, 27, 34, 22, 21]
2.283[19, 21, 25, 24, 28, 31, 25, 22]
2.297[18, 18, 25, 24, 28, 31, 31, 24]
2.32[18, 18, 23, 24, 29, 31, 31, 25]
2.343[17, 19, 24, 23, 29, 30, 32, 26]
2.358[19, 20, 24, 22, 27, 31, 32, 25]
2.38[20, 22, 25, 24, 27, 31, 31, 27]
2.403[20, 22, 24, 24, 27, 32, 25, 23]
2.417[21, 21, 25, 24, 26, 31, 27, 23]
2.441[21, 20, 24, 24, 27, 31, 25, 22]
2.463[21, 18, 25, 23, 29, 30, 24, 21]
2.485[19, 19, 24, 23, 28, 31, 23, 21]
2.501[19, 19, 25, 25, 27, 31, 27, 23]
2.523[20, 22, 25, 25, 28, 41, 29, 29]
2.546[19, 22, 24, 29, 29, 42, 29, 29]
2.56[18, 22, 23, 31, 28, 42, 31, 29]
2.583[19, 23, 24, 30, 27, 41, 32, 28]
2.597[19, 25, 22, 29, 26, 40, 28, 26]
2.621[19, 26, 22, 30, 25, 30, 26, 18]
2.643[18, 26, 22, 25, 24, 30, 25, 20]
2.665[19, 25, 22, 24, 24, 32, 23, 20]
2.681[20, 24, 23, 24, 29, 38, 22, 20]
2.703[20, 22, 21, 24, 31, 40, 30, 26]
2.718[20, 23, 24, 24, 29, 41, 28, 28]
2.741[20, 23, 24, 25, 30, 41, 29, 28]
2.763[20, 23, 24, 26, 31, 40, 30, 30]
2.785[19, 23, 24, 27, 29, 38, 28, 29]
2.8[19, 22, 25, 27, 27, 39, 23, 25]
2.823[18, 19, 23, 28, 28, 38, 23, 23]
2.845[19, 20, 22, 28, 29, 37, 22, 23]
2.86[19, 20, 22, 27, 28, 36, 33, 32]
2.883[20, 21, 23, 26, 25, 32, 33, 32]
2.905[21, 20, 23, 26, 27, 30, 32, 31]
2.92[21, 21, 24, 25, 28, 29, 31, 32]
2.943[20, 20, 26, 26, 29, 30, 32, 32]
2.965[19, 21, 26, 25, 29, 30, 23, 21]
2.981[18, 21, 24, 27, 29, 30, 22, 19]
3.003[16, 24, 23, 24, 27, 32, 21, 19]
3.026[18, 26, 23, 26, 27, 32, 23, 19]
3.04[20, 27, 23, 25, 25, 33, 30, 30]
3.063[19, 27, 23, 25, 26, 33, 30, 29]
3.086[19, 25, 23, 24, 28, 31, 30, 30]
3.1[21, 21, 23, 26, 27, 29, 29, 30]
3.123[19, 18, 25, 25, 28, 30, 29, 29]
3.146[18, 17, 23, 25, 29, 27, 18, 20]
3.16[21, 20, 23, 27, 28, 27, 17, 23]
3.183[21, 20, 23, 26, 27, 28, 21, 23]
3.206[19, 21, 23, 26, 28, 30, 20, 24]
3.22[20, 24, 22, 27, 28, 30, 19, 24]
3.243[20, 24, 22, 26, 28, 30, 19, 22]
3.265[19, 22, 22, 25, 27, 32, 21, 21]
3.28[19, 22, 22, 24, 26, 32, 26, 29]
3.303[18, 23, 24, 26, 29, 33, 27, 29]
3.326[18, 21, 23, 25, 29, 33, 28, 30]
3.34[18, 20, 24, 25, 30, 34, 31, 31]
3.363[17, 19, 23, 25, 30, 33, 30, 30]
3.386[16, 20, 25, 27, 32, 34, 23, 22]
3.399[18, 19, 24, 25, 32, 34, 24, 23]
3.423[16, 20, 23, 26, 32, 37, 26, 22]
3.446[19, 22, 23, 26, 31, 39, 24, 20]
3.468[20, 23, 24, 26, 31, 39, 25, 20]
3.483[20, 24, 28, 26, 36, 47, 28, 19]
3.506[20, 24, 29, 25, 36, 48, 28, 18]
3.52[21, 25, 30, 24, 36, 45, 27, 19]
3.543[20, 24, 30, 22, 35, 42, 26, 19]
3.566[19, 22, 30, 23, 34, 42, 25, 19]
3.58[19, 22, 25, 21, 30, 35, 23, 19]
3.603[18, 22, 24, 22, 27, 30, 23, 20]
3.625[18, 20, 23, 21, 26, 29, 22, 19]
3.655[18, 21, 23, 21, 26, 31, 26, 21]
3.664[19, 22, 22, 23, 28, 35, 29, 26]
3.685[19, 19, 23, 24, 24, 35, 30, 26]
3.707[21, 18, 23, 25, 27, 34, 30, 25]
3.724[22, 18, 24, 30, 30, 35, 31, 27]
3.745[21, 21, 23, 30, 31, 33, 28, 25]
3.767[20, 20, 23, 28, 31, 29, 24, 21]
3.783[20, 20, 22, 28, 33, 25, 21, 21]
3.805[19, 21, 22, 28, 30, 30, 21, 21]
3.827[19, 22, 23, 24, 28, 32, 19, 19]
3.844[19, 19, 25, 24, 27, 36, 20, 20]
3.865[18, 18, 23, 25, 27, 37, 21, 19]
3.887[17, 17, 24, 25, 25, 37, 19, 18]
3.903[19, 17, 24, 24, 28, 38, 23, 21]
3.932[18, 21, 23, 22, 27, 34, 24, 20]
3.947[18, 20, 23, 23, 29, 41, 25, 21]
3.97[19, 22, 23, 23, 30, 41, 25, 21]
3.992[21, 25, 23, 23, 30, 42, 28, 22]
4.007[18, 25, 21, 24, 30, 45, 26, 19]
4.024[17, 22, 23, 25, 29, 45, 27, 20]
4.045[18, 22, 23, 24, 29, 38, 27, 22]
4.067[17, 22, 22, 24, 29, 36, 26, 25]
4.083[17, 20, 21, 26, 26, 39, 23, 25]
4.106[19, 20, 23, 29, 28, 35, 23, 24]
4.127[22, 21, 21, 29, 27, 34, 22, 25]
4.143[22, 21, 23, 29, 27, 33, 20, 24]
4.165[24, 20, 23, 29, 27, 34, 19, 22]
4.187[24, 19, 23, 28, 31, 29, 19, 21]
4.204[24, 20, 20, 24, 28, 27, 18, 22]
4.225[22, 18, 20, 24, 30, 26, 18, 20]
4.247[23, 19, 18, 23, 30, 36, 19, 19]
4.264[21, 19, 19, 26, 30, 39, 24, 20]
4.285[21, 22, 21, 26, 27, 38, 25, 20]
4.307[19, 21, 22, 26, 26, 38, 25, 19]
4.324[19, 22, 24, 26, 26, 43, 25, 20]
4.345[17, 22, 27, 28, 26, 38, 26, 21]
4.367[18, 21, 26, 27, 27, 40, 23, 19]
4.384[18, 20, 27, 29, 35, 52, 27, 22]
4.405[20, 22, 29, 31, 38, 68, 30, 21]
4.428[22, 22, 29, 34, 41, 71, 32, 22]
4.45[22, 23, 27, 33, 42, 72, 31, 20]
4.472[22, 23, 28, 32, 40, 70, 31, 20]
4.487[22, 21, 26, 31, 34, 64, 26, 18]
4.504[20, 21, 27, 32, 39, 57, 26, 18]
4.525[19, 20, 25, 30, 34, 52, 25, 20]
4.549[20, 20, 24, 30, 33, 51, 25, 22]
4.564[20, 20, 23, 30, 35, 49, 25, 21]
4.585[19, 19, 23, 30, 38, 52, 25, 21]
4.607[20, 21, 20, 27, 33, 43, 22, 22]
4.63[20, 22, 20, 28, 34, 40, 21, 19]
4.645[19, 21, 23, 28, 35, 42, 23, 19]
4.668[18, 22, 21, 28, 34, 42, 23, 19]
4.69[18, 23, 23, 28, 31, 38, 25, 18]
4.705[18, 20, 23, 28, 30, 42, 26, 19]
4.729[18, 21, 25, 28, 29, 45, 27, 20]
4.75[19, 20, 22, 27, 26, 43, 25, 19]
4.765[18, 20, 24, 26, 27, 44, 27, 20]
4.787[19, 20, 23, 26, 28, 51, 29, 20]
4.81[19, 22, 26, 27, 32, 60, 29, 20]
4.825[16, 21, 26, 30, 36, 69, 33, 20]
4.847[17, 22, 26, 29, 36, 69, 32, 22]
4.87[16, 25, 26, 29, 38, 69, 31, 21]
4.885[15, 25, 27, 30, 37, 66, 28, 21]
4.907[15, 22, 25, 28, 31, 54, 28, 20]
4.93[16, 22, 24, 23, 29, 43, 26, 22]
4.945[17, 21, 26, 24, 30, 44, 26, 20]
4.967[18, 19, 24, 23, 27, 43, 24, 21]
4.99[18, 18, 24, 23, 26, 42, 24, 21]
5.005[18, 20, 23, 23, 27, 41, 22, 20]
5.027[20, 20, 23, 24, 26, 36, 19, 19]
5.05[20, 21, 22, 23, 25, 36, 19, 19]
5.065[21, 21, 23, 24, 27, 39, 24, 19]
5.087[21, 22, 23, 25, 27, 36, 24, 20]
5.11[21, 22, 23, 26, 26, 36, 23, 20]
5.125[19, 22, 25, 25, 25, 43, 24, 20]
5.147[18, 22, 25, 25, 25, 41, 25, 22]
5.17[17, 23, 25, 28, 23, 38, 20, 21]
5.185[17, 22, 25, 25, 25, 38, 20, 21]
5.215[18, 23, 24, 26, 26, 39, 19, 21]
5.23[19, 24, 24, 25, 27, 32, 20, 22]
5.245[19, 24, 23, 26, 28, 32, 20, 20]
5.267[18, 22, 23, 22, 30, 32, 21, 20]
5.29[20, 24, 27, 25, 31, 34, 20, 20]
5.305[20, 20, 27, 23, 31, 34, 22, 20]
5.329[19, 20, 26, 24, 31, 34, 22, 19]
5.35[19, 20, 26, 24, 30, 35, 23, 19]
5.365[21, 22, 25, 24, 29, 35, 24, 21]
5.389[20, 20, 21, 23, 27, 30, 23, 20]
5.41[19, 21, 22, 23, 28, 29, 22, 19]
5.426[20, 19, 21, 26, 28, 31, 22, 21]
5.447[19, 19, 23, 26, 32, 29, 20, 21]
5.47[19, 16, 23, 27, 32, 30, 18, 20]
5.492[19, 20, 23, 28, 32, 32, 20, 22]
5.507[20, 20, 25, 28, 31, 31, 22, 23]
5.53[22, 22, 27, 25, 33, 29, 23, 22]
5.545[22, 22, 24, 24, 27, 32, 23, 22]
5.567[23, 25, 24, 24, 25, 30, 24, 23]
5.59[21, 21, 24, 22, 26, 29, 22, 22]
5.612[22, 24, 22, 23, 25, 31, 20, 24]
5.627[19, 22, 23, 26, 27, 34, 20, 25]
5.65[19, 22, 25, 25, 27, 37, 20, 23]
5.672[19, 21, 25, 26, 29, 36, 21, 21]
5.688[21, 22, 24, 25, 27, 35, 21, 21]
5.71[22, 20, 23, 24, 28, 34, 21, 19]
5.732[22, 20, 21, 21, 26, 31, 23, 19]
5.747[22, 20, 19, 22, 27, 28, 21, 20]
5.77[20, 20, 19, 22, 26, 34, 24, 19]
5.792[20, 20, 19, 22, 27, 33, 25, 18]
5.809[20, 19, 20, 24, 30, 36, 25, 19]
5.838[20, 21, 21, 25, 31, 42, 24, 21]
5.852[19, 20, 21, 25, 30, 40, 25, 22]
5.867[22, 19, 21, 25, 29, 37, 22, 23]
5.89[21, 20, 21, 25, 27, 38, 21, 25]
5.912[21, 19, 21, 25, 28, 37, 21, 25]
5.927[21, 18, 18, 26, 27, 32, 22, 24]
5.95[20, 19, 18, 25, 29, 34, 21, 23]
5.981[18, 21, 18, 28, 30, 35, 21, 23]
5.987[17, 20, 18, 27, 31, 36, 20, 23]
6.01[17, 21, 20, 26, 29, 33, 20, 22]
6.04[16, 20, 22, 23, 30, 32, 17, 24]
6.047[16, 21, 21, 23, 30, 38, 20, 25]
6.07[18, 19, 23, 21, 32, 38, 19, 24]
6.092[18, 21, 24, 22, 30, 38, 19, 24]
6.107[18, 20, 24, 23, 28, 39, 18, 22]
6.13[18, 21, 24, 23, 27, 39, 20, 22]
6.152[19, 20, 26, 25, 26, 35, 19, 21]
6.167[17, 20, 26, 25, 29, 35, 20, 21]
6.19[17, 21, 26, 25, 29, 34, 21, 21]
6.22[17, 20, 26, 24, 28, 35, 22, 21]
6.227[17, 19, 25, 23, 28, 34, 22, 19]
6.25[17, 19, 24, 21, 26, 30, 22, 18]
6.272[19, 21, 23, 20, 21, 32, 22, 18]
6.287[18, 21, 22, 23, 24, 31, 24, 19]
6.31[19, 22, 24, 24, 27, 31, 24, 23]
6.332[19, 29, 24, 25, 25, 37, 24, 22]
6.349[18, 37, 25, 25, 28, 40, 25, 24]
6.37[19, 40, 26, 27, 28, 38, 24, 24]
6.392[18, 40, 25, 25, 28, 44, 25, 25]
6.407[18, 39, 27, 26, 27, 43, 24, 22]
6.43[18, 35, 27, 28, 32, 45, 26, 24]
6.453[19, 26, 27, 27, 30, 45, 24, 23]
6.467[20, 21, 26, 29, 32, 49, 29, 24]
6.49[20, 19, 28, 28, 29, 43, 27, 22]
6.513[21, 21, 25, 29, 28, 47, 28, 22]
6.536[21, 20, 28, 28, 25, 46, 26, 21]
6.558[21, 22, 30, 31, 28, 45, 26, 20]
6.573[21, 21, 28, 29, 27, 43, 22, 20]
6.595[21, 22, 27, 30, 31, 45, 21, 18]
6.61[18, 20, 27, 29, 31, 40, 21, 18]
6.633[21, 20, 23, 26, 32, 38, 22, 19]
6.655[21, 21, 20, 24, 28, 40, 25, 19]
6.67[19, 20, 23, 25, 28, 40, 25, 18]
6.693[18, 19, 24, 24, 26, 39, 25, 21]
6.715[20, 20, 23, 25, 26, 40, 24, 20]
6.73[20, 21, 25, 26, 27, 38, 22, 20]
6.753[20, 20, 25, 27, 30, 36, 20, 23]
6.776[21, 21, 24, 25, 30, 32, 19, 23]
6.798[21, 21, 24, 26, 29, 33, 19, 21]
6.813[20, 21, 23, 26, 29, 36, 20, 23]
6.843[19, 20, 22, 27, 27, 35, 22, 22]
6.85[17, 21, 22, 27, 25, 33, 22, 20]
6.873[17, 20, 20, 28, 24, 33, 22, 20]
6.895[16, 24, 23, 26, 24, 36, 21, 19]
6.91[20, 25, 24, 26, 23, 33, 20, 20]
6.933[19, 25, 23, 24, 25, 35, 20, 21]
6.955[20, 25, 24, 22, 24, 34, 20, 20]
6.97[22, 26, 25, 22, 23, 36, 20, 20]
6.993[23, 25, 22, 22, 23, 33, 20, 21]
7.015[20, 23, 22, 23, 25, 34, 20, 18]
7.029[20, 23, 21, 22, 25, 30, 19, 17]
7.053[20, 20, 22, 24, 25, 33, 19, 17]
7.075[19, 22, 20, 25, 26, 33, 19, 18]
7.09[21, 19, 21, 23, 25, 34, 22, 23]
7.113[21, 22, 23, 22, 26, 34, 21, 25]
7.136[21, 23, 24, 22, 26, 37, 22, 24]
7.15[24, 24, 23, 22, 24, 35, 22, 25]
7.173[23, 22, 22, 22, 23, 34, 24, 25]
7.195[21, 24, 22, 25, 25, 33, 22, 19]
7.209[23, 23, 21, 26, 25, 34, 22, 18]
7.233[22, 22, 22, 26, 25, 32, 22, 22]
7.255[20, 22, 21, 25, 28, 32, 21, 22]
7.269[22, 24, 21, 25, 27, 31, 20, 22]
7.294[22, 22, 22, 26, 29, 37, 20, 25]
7.315[23, 23, 22, 27, 27, 36, 22, 25]
7.33[23, 23, 23, 26, 29, 37, 21, 23]
7.353[23, 22, 22, 28, 26, 37, 23, 23]
7.375[21, 19, 23, 28, 27, 38, 22, 24]
7.39[19, 20, 23, 24, 25, 32, 22, 20]
7.413[18, 18, 24, 27, 27, 31, 20, 21]
7.435[19, 19, 23, 28, 26, 30, 20, 22]
7.449[17, 20, 24, 25, 28, 30, 18, 20]
7.473[18, 21, 24, 26, 29, 29, 20, 23]
7.495[20, 21, 22, 28, 29, 35, 20, 24]
7.518[19, 23, 22, 24, 28, 35, 21, 23]
7.533[20, 22, 23, 26, 30, 36, 21, 24]
7.555[22, 25, 23, 27, 28, 38, 22, 25]
7.578[21, 24, 23, 27, 27, 39, 22, 24]
7.593[20, 23, 23, 26, 25, 33, 27, 26]
7.616[20, 21, 24, 26, 26, 34, 27, 28]
7.638[20, 21, 24, 25, 22, 36, 28, 27]
7.653[18, 16, 25, 24, 24, 38, 27, 25]
7.675[18, 16, 26, 24, 22, 39, 26, 24]
7.698[19, 18, 26, 23, 23, 44, 22, 22]
7.713[19, 21, 28, 22, 24, 43, 25, 24]
7.735[20, 21, 27, 23, 26, 40, 25, 23]
7.759[22, 22, 26, 23, 26, 38, 25, 25]
7.773[22, 23, 25, 22, 26, 35, 25, 24]
7.795[23, 23, 23, 20, 25, 32, 23, 23]
7.818[22, 21, 22, 21, 24, 33, 19, 22]
7.833[20, 20, 21, 19, 22, 39, 18, 21]
7.856[19, 21, 20, 22, 24, 39, 21, 19]
7.878[20, 20, 19, 23, 26, 39, 20, 20]
7.893[19, 18, 20, 24, 27, 38, 21, 22]
7.915[21, 20, 19, 23, 28, 37, 21, 19]
7.938[22, 20, 21, 23, 29, 30, 21, 20]
7.952[22, 21, 22, 22, 27, 31, 18, 21]
7.975[21, 22, 23, 22, 26, 31, 20, 21]
7.998[21, 22, 24, 25, 29, 31, 20, 19]
8.012[19, 22, 25, 24, 31, 30, 21, 21]
8.035[19, 27, 25, 28, 34, 61, 28, 22]
8.058[20, 27, 28, 30, 35, 63, 30, 22]
8.072[20, 29, 29, 33, 36, 66, 30, 24]
8.095[20, 29, 29, 33, 35, 71, 31, 25]
8.118[21, 30, 28, 33, 32, 71, 30, 25]
8.132[21, 26, 27, 31, 33, 53, 27, 26]
8.155[20, 24, 28, 31, 31, 53, 27, 29]
8.178[20, 21, 29, 27, 31, 50, 32, 33]
8.192[19, 20, 29, 26, 30, 45, 31, 34]
8.215[19, 22, 31, 28, 31, 45, 31, 34]
8.238[21, 21, 30, 26, 28, 37, 29, 33]
8.253[20, 23, 27, 25, 27, 30, 28, 29]
8.275[19, 24, 28, 30, 34, 36, 24, 24]
8.297[19, 25, 28, 29, 35, 36, 25, 23]
8.312[21, 22, 29, 29, 35, 36, 25, 21]
8.335[20, 24, 28, 33, 37, 41, 26, 23]
8.358[21, 22, 28, 34, 40, 43, 28, 25]
8.372[23, 21, 25, 34, 34, 40, 29, 30]
8.395[23, 20, 25, 34, 33, 37, 29, 28]
8.418[22, 21, 23, 34, 31, 38, 30, 29]
8.44[21, 20, 23, 31, 28, 34, 29, 27]
8.455[22, 19, 22, 29, 27, 37, 29, 26]
8.478[20, 19, 27, 28, 28, 39, 25, 23]
8.5[20, 22, 26, 30, 28, 39, 24, 25]
8.515[21, 21, 27, 31, 29, 38, 25, 26]
8.538[22, 22, 27, 29, 30, 44, 28, 28]
8.56[22, 24, 27, 33, 27, 40, 25, 27]
8.576[24, 25, 21, 29, 25, 35, 24, 27]
8.597[23, 22, 22, 29, 27, 35, 26, 25]
8.62[22, 22, 23, 29, 29, 35, 26, 24]
8.636[20, 22, 22, 30, 29, 29, 25, 23]
8.658[19, 23, 24, 27, 30, 29, 26, 25]
8.68[19, 23, 24, 32, 31, 29, 26, 23]
8.696[20, 23, 24, 30, 27, 28, 26, 24]
8.717[21, 24, 22, 33, 26, 27, 23, 22]
8.74[23, 24, 21, 33, 26, 23, 23, 23]
8.756[25, 22, 19, 34, 26, 27, 22, 22]
8.777[24, 21, 20, 31, 24, 28, 24, 24]
8.799[23, 21, 27, 35, 29, 32, 24, 23]
8.816[22, 18, 27, 32, 29, 35, 26, 25]
8.845[24, 19, 29, 33, 32, 51, 27, 23]
8.859[21, 19, 30, 30, 32, 50, 26, 23]
8.876[22, 21, 30, 29, 32, 51, 24, 22]
8.897[21, 19, 26, 25, 29, 49, 23, 23]
8.92[24, 20, 27, 25, 30, 52, 24, 22]
8.936[21, 21, 26, 27, 29, 43, 24, 23]
8.957[22, 20, 25, 30, 29, 43, 23, 26]
8.98[21, 20, 26, 30, 29, 42, 24, 24]
8.996[23, 24, 24, 32, 29, 44, 24, 24]
9.017[21, 24, 24, 30, 27, 40, 24, 29]
9.04[21, 26, 24, 27, 25, 35, 22, 29]
9.056[21, 27, 24, 24, 24, 32, 27, 27]
9.077[21, 27, 24, 27, 27, 33, 26, 27]
9.101[23, 25, 24, 23, 30, 32, 29, 25]
9.124[23, 25, 23, 24, 29, 30, 27, 21]
9.137[23, 25, 22, 24, 27, 30, 27, 24]
9.159[24, 24, 20, 24, 28, 34, 27, 20]
9.176[26, 24, 21, 22, 29, 32, 31, 27]
9.197[22, 31, 20, 24, 26, 30, 30, 29]
9.219[22, 32, 20, 26, 29, 33, 30, 28]
9.242[23, 31, 22, 23, 30, 37, 34, 26]
9.257[23, 31, 24, 26, 33, 37, 32, 26]
9.279[22, 32, 24, 24, 31, 38, 30, 21]
9.296[23, 27, 26, 23, 33, 40, 30, 22]
9.317[23, 26, 28, 21, 33, 43, 31, 23]
9.34[22, 26, 28, 21, 31, 41, 28, 23]
9.362[20, 25, 25, 20, 27, 38, 25, 23]
9.377[19, 24, 26, 24, 28, 44, 25, 24]
9.4[20, 23, 23, 25, 25, 42, 23, 21]
9.422[20, 24, 21, 28, 26, 37, 21, 24]
9.437[22, 25, 22, 32, 36, 46, 25, 27]
9.459[24, 25, 25, 32, 36, 50, 26, 27]
9.482[24, 23, 25, 32, 36, 43, 28, 27]
9.497[24, 24, 26, 30, 36, 44, 27, 30]
9.52[26, 22, 26, 30, 34, 44, 28, 28]
9.542[24, 24, 25, 26, 28, 34, 24, 26]
9.557[22, 24, 24, 28, 29, 30, 25, 28]
9.579[22, 25, 24, 28, 30, 32, 23, 27]
9.602[23, 25, 23, 30, 30, 32, 24, 27]
9.618[23, 25, 25, 28, 32, 46, 25, 26]
9.641[24, 22, 25, 30, 37, 48, 25, 24]
9.662[24, 25, 25, 52, 89, 46, 24, 28]
9.677[24, 24, 30, 67, 104, 52, 23, 27]
9.699[24, 24, 34, 78, 115, 60, 28, 26]
9.722[25, 33, 34, 80, 119, 51, 27, 28]
9.737[27, 36, 36, 95, 122, 58, 29, 28]
9.759[27, 59, 39, 87, 97, 73, 36, 74]
9.782[29, 71, 44, 92, 133, 75, 45, 117]
9.798[38, 74, 43, 92, 138, 79, 60, 201]
9.82[39, 72, 44, 93, 138, 84, 71, 215]
9.842[59, 71, 44, 100, 142, 86, 108, 280]
9.857[64, 53, 42, 111, 141, 80, 111, 279]
9.879[66, 41, 36, 104, 99, 83, 126, 321]
9.902[62, 35, 34, 96, 80, 78, 133, 303]
9.917[70, 34, 34, 93, 75, 79, 154, 327]
9.939[71, 39, 34, 74, 62, 102, 300, 376]
9.97[109, 40, 34, 58, 59, 107, 350, 465]
9.977[135, 43, 33, 54, 59, 104, 409, 485]
9.999[142, 48, 40, 68, 77, 193, 447, 488]
10.022[148, 52, 46, 75, 87, 213, 504, 624]
10.037[188, 51, 46, 77, 95, 229, 453, 604]
10.059[185, 69, 52, 80, 106, 230, 425, 565]
10.082[189, 67, 54, 84, 117, 258, 397, 619]
10.097[229, 75, 53, 80, 123, 213, 385, 607]
10.119[233, 84, 53, 84, 125, 213, 345, 472]
10.142[228, 86, 54, 78, 117, 197, 343, 438]
10.165[275, 90, 49, 70, 106, 197, 355, 425]
10.179[274, 95, 51, 66, 89, 167, 435, 308]
10.202[264, 92, 48, 61, 72, 193, 451, 341]
10.217[300, 94, 45, 51, 61, 180, 460, 372]
10.24[311, 111, 47, 53, 64, 174, 462, 402]
10.271[275, 101, 49, 64, 68, 179, 457, 381]
10.278[269, 96, 47, 65, 74, 190, 371, 350]
10.299[249, 93, 47, 67, 78, 205, 385, 359]
10.322[213, 81, 44, 65, 75, 206, 349, 327]
10.345[169, 65, 55, 83, 94, 220, 331, 358]
10.359[154, 74, 57, 81, 101, 221, 381, 469]
10.382[196, 87, 71, 95, 121, 278, 436, 516]
10.405[192, 88, 71, 96, 117, 255, 428, 493]
10.42[176, 88, 73, 98, 127, 276, 427, 474]
10.442[216, 82, 64, 85, 118, 278, 453, 481]
10.465[291, 83, 61, 82, 116, 283, 424, 401]
10.479[297, 78, 48, 63, 94, 228, 446, 376]
10.502[329, 86, 48, 68, 91, 242, 416, 404]
10.525[344, 85, 50, 72, 94, 274, 420, 399]
10.541[352, 90, 52, 72, 94, 276, 456, 380]
10.562[484, 186, 57, 69, 94, 299, 460, 392]
10.593[601, 241, 57, 68, 102, 329, 440, 381]
10.599[592, 251, 57, 62, 108, 307, 457, 367]
10.622[607, 258, 54, 53, 99, 257, 449, 377]
10.644[613, 279, 63, 67, 123, 283, 436, 409]
10.659[523, 258, 66, 74, 133, 252, 445, 383]
10.682[415, 253, 79, 87, 139, 243, 440, 417]
10.705[448, 259, 81, 88, 138, 262, 468, 420]
10.72[447, 274, 84, 89, 141, 263, 486, 423]
10.75[426, 264, 78, 76, 117, 220, 447, 358]
10.765[426, 246, 76, 75, 110, 221, 446, 373]
10.78[486, 248, 66, 60, 95, 174, 444, 386]
10.802[455, 230, 62, 58, 88, 146, 385, 378]
10.824[459, 211, 55, 57, 82, 137, 383, 417]
10.839[505, 208, 60, 61, 84, 125, 409, 449]
10.862[614, 221, 59, 62, 80, 122, 415, 510]
10.893[563, 173, 52, 61, 76, 116, 360, 458]
10.9[570, 181, 56, 75, 106, 125, 402, 462]
10.922[591, 176, 59, 78, 110, 148, 444, 422]
10.945[582, 162, 54, 84, 118, 149, 408, 377]
10.959[448, 136, 55, 82, 114, 149, 405, 305]
10.982[442, 139, 59, 84, 121, 164, 415, 325]
11.005[499, 154, 56, 72, 96, 172, 427, 363]
11.02[510, 170, 61, 82, 113, 162, 414, 364]
11.042[512, 170, 61, 84, 131, 172, 428, 398]
11.065[569, 167, 62, 97, 160, 174, 438, 467]
11.079[635, 196, 60, 97, 169, 169, 437, 516]
11.102[614, 188, 63, 100, 172, 156, 409, 507]
11.125[582, 173, 56, 88, 160, 142, 360, 518]
11.139[621, 185, 58, 78, 138, 144, 439, 504]
11.162[557, 175, 55, 60, 104, 152, 400, 423]
11.185[469, 122, 49, 56, 80, 148, 416, 369]
11.199[479, 116, 49, 55, 72, 162, 462, 347]
11.222[460, 115, 49, 55, 63, 166, 486, 361]
11.245[383, 98, 44, 56, 66, 154, 397, 378]
11.268[372, 99, 43, 52, 62, 136, 399, 386]
11.282[411, 114, 45, 57, 83, 137, 383, 382]
11.304[363, 99, 39, 53, 91, 123, 320, 394]
11.328[357, 104, 41, 55, 94, 117, 279, 386]
11.342[352, 100, 43, 51, 91, 115, 314, 366]
11.365[355, 93, 45, 49, 91, 118, 321, 338]
11.388[298, 88, 43, 46, 78, 116, 300, 398]
11.402[318, 96, 43, 52, 80, 117, 268, 365]
11.425[397, 100, 41, 51, 80, 117, 270, 352]
11.448[412, 113, 39, 52, 85, 121, 251, 392]
11.462[437, 126, 40, 53, 87, 128, 238, 392]
11.485[429, 120, 39, 49, 80, 121, 246, 317]
11.508[437, 119, 39, 39, 78, 116, 300, 385]
11.522[431, 115, 40, 36, 76, 113, 314, 423]
11.545[407, 103, 42, 41, 72, 114, 336, 421]
11.568[393, 90, 40, 45, 73, 122, 452, 468]
11.582[440, 96, 44, 43, 73, 123, 456, 499]
11.604[420, 96, 46, 51, 65, 118, 435, 456]
11.627[388, 95, 44, 56, 66, 121, 447, 465]
11.642[402, 93, 42, 53, 64, 126, 435, 458]
11.664[389, 106, 43, 53, 62, 121, 394, 415]
11.688[366, 104, 45, 58, 69, 117, 392, 377]
11.702[348, 98, 43, 50, 71, 111, 388, 369]
11.725[390, 113, 47, 47, 68, 112, 375, 341]
11.748[426, 118, 52, 49, 74, 106, 419, 312]
11.762[439, 109, 50, 50, 74, 90, 344, 387]
11.785[428, 107, 48, 49, 69, 104, 339, 396]
11.808[432, 104, 46, 48, 63, 108, 347, 402]
11.822[427, 102, 43, 50, 64, 111, 346, 397]
11.845[370, 100, 37, 53, 78, 100, 281, 381]
11.868[370, 97, 35, 50, 80, 104, 307, 315]
11.882[397, 114, 36, 47, 77, 91, 293, 320]
11.905[415, 122, 40, 50, 79, 104, 322, 348]
11.928[372, 111, 43, 48, 78, 106, 298, 309]
11.942[381, 105, 43, 41, 58, 108, 278, 331]
11.965[460, 107, 43, 38, 51, 104, 266, 397]
11.988[468, 95, 42, 42, 59, 118, 303, 416]
12.002[509, 120, 40, 43, 57, 118, 243, 393]
12.025[557, 124, 35, 45, 61, 111, 260, 403]
12.048[546, 124, 35, 45, 61, 113, 254, 412]
12.062[493, 120, 34, 46, 58, 115, 233, 350]
12.086[443, 113, 33, 44, 51, 102, 192, 300]
12.108[432, 82, 33, 42, 57, 89, 227, 325]
12.122[404, 95, 39, 39, 59, 89, 249, 347]
12.145[415, 113, 42, 42, 61, 96, 288, 328]
12.168[404, 118, 42, 41, 60, 89, 290, 324]
12.182[419, 122, 42, 40, 66, 90, 284, 337]
12.206[491, 142, 43, 43, 72, 102, 255, 319]
12.228[516, 130, 40, 47, 68, 104, 268, 373]
12.25[550, 128, 40, 46, 78, 117, 232, 371]
12.265[531, 122, 44, 51, 84, 122, 235, 370]
12.295[526, 119, 43, 48, 79, 124, 238, 350]
12.31[410, 90, 41, 44, 68, 113, 256, 368]
12.326[340, 93, 39, 41, 69, 123, 227, 375]
12.347[314, 95, 42, 46, 67, 100, 234, 370]
12.37[321, 96, 40, 45, 64, 113, 273, 420]
12.385[310, 95, 41, 47, 66, 116, 270, 437]
12.408[326, 94, 42, 48, 68, 118, 251, 467]
12.43[310, 92, 43, 51, 67, 113, 238, 415]
12.445[383, 102, 44, 48, 58, 117, 272, 431]
12.468[382, 106, 40, 45, 54, 99, 220, 379]
12.49[423, 116, 40, 45, 53, 90, 220, 363]
12.505[436, 117, 43, 45, 57, 97, 231, 295]
12.527[436, 121, 42, 42, 56, 94, 215, 275]
12.55[350, 115, 40, 38, 54, 87, 199, 322]
12.565[401, 131, 44, 38, 60, 92, 200, 320]
12.587[418, 134, 43, 38, 68, 94, 231, 346]
12.61[427, 143, 46, 44, 78, 96, 273, 365]
12.625[434, 135, 47, 45, 89, 91, 279, 374]
12.648[481, 135, 45, 45, 93, 90, 257, 312]
12.67[502, 122, 43, 49, 91, 95, 276, 345]
12.684[523, 127, 46, 52, 88, 105, 289, 327]
12.708[541, 144, 41, 48, 78, 97, 284, 356]
12.73[527, 147, 40, 47, 65, 97, 286, 338]
12.744[507, 138, 38, 48, 73, 101, 281, 341]
12.768[439, 138, 38, 45, 72, 92, 265, 294]
12.79[436, 144, 39, 43, 72, 101, 285, 356]
12.805[429, 122, 39, 44, 78, 97, 252, 337]
12.827[436, 120, 39, 47, 98, 102, 256, 340]
12.85[424, 123, 38, 46, 91, 108, 250, 341]
12.864[451, 126, 38, 45, 89, 109, 246, 341]
12.888[395, 107, 36, 48, 93, 116, 223, 308]
12.91[329, 98, 34, 46, 88, 114, 218, 281]
12.925[453, 160, 49, 63, 102, 141, 216, 314]
12.948[458, 160, 49, 65, 112, 137, 220, 300]
12.97[461, 173, 56, 72, 113, 159, 245, 373]
12.984[446, 170, 54, 68, 109, 142, 212, 346]
13.007[574, 208, 61, 69, 110, 152, 219, 338]
13.03[486, 181, 57, 57, 84, 127, 216, 311]
13.044[505, 187, 57, 56, 69, 121, 218, 327]
13.069[506, 174, 50, 46, 64, 89, 197, 241]
13.09[541, 194, 52, 47, 63, 89, 194, 251]
13.105[441, 163, 45, 46, 63, 70, 207, 283]
13.127[457, 152, 36, 39, 53, 66, 206, 272]
13.15[511, 170, 43, 36, 55, 73, 239, 269]
13.174[516, 167, 44, 39, 64, 71, 243, 288]
13.188[477, 144, 44, 42, 72, 80, 230, 259]
13.21[489, 142, 43, 45, 99, 81, 202, 217]
13.233[521, 144, 46, 47, 106, 88, 231, 291]
13.248[432, 104, 38, 47, 107, 85, 209, 292]
13.27[415, 100, 37, 46, 105, 90, 199, 270]
13.293[410, 97, 35, 43, 104, 77, 197, 274]
13.308[377, 83, 35, 41, 78, 73, 188, 269]
13.33[377, 98, 37, 44, 72, 89, 144, 191]
13.353[385, 101, 39, 46, 74, 85, 124, 189]
13.368[395, 110, 38, 45, 84, 84, 119, 233]
13.391[427, 112, 38, 47, 79, 87, 124, 253]
13.413[409, 111, 37, 45, 78, 91, 137, 260]
13.427[370, 93, 29, 40, 75, 74, 135, 268]
13.45[418, 106, 30, 41, 75, 77, 161, 284]
13.473[400, 100, 32, 39, 60, 80, 164, 248]
13.487[376, 103, 33, 40, 65, 85, 176, 229]
13.511[402, 117, 33, 43, 70, 83, 192, 303]
13.532[425, 146, 33, 45, 69, 81, 204, 291]
13.548[404, 137, 30, 41, 62, 77, 180, 265]
13.569[399, 135, 28, 42, 63, 70, 172, 260]
13.592[418, 146, 27, 38, 58, 64, 168, 292]
13.608[411, 137, 27, 36, 53, 66, 141, 206]
13.629[436, 132, 29, 31, 50, 63, 149, 240]
13.652[412, 134, 32, 34, 52, 71, 152, 258]
13.668[490, 154, 36, 34, 51, 87, 166, 314]
13.689[485, 142, 36, 36, 51, 85, 159, 282]
13.712[469, 142, 37, 35, 55, 84, 172, 302]
13.728[389, 110, 34, 35, 62, 87, 146, 285]
13.749[368, 102, 32, 34, 62, 80, 145, 290]
13.772[292, 84, 31, 37, 66, 76, 140, 252]
13.788[268, 78, 30, 36, 66, 87, 137, 258]
13.809[278, 82, 32, 38, 63, 89, 128, 270]
13.832[310, 92, 31, 37, 60, 93, 119, 270]
13.848[405, 100, 35, 40, 61, 94, 123, 270]
13.869[392, 92, 36, 39, 58, 85, 109, 250]
13.892[428, 102, 37, 39, 60, 74, 112, 249]
13.908[493, 106, 35, 36, 57, 73, 123, 376]
13.929[535, 121, 45, 43, 72, 80, 134, 366]
13.952[518, 131, 45, 41, 80, 86, 127, 347]
13.974[519, 143, 45, 40, 83, 89, 130, 349]
13.99[500, 138, 44, 42, 88, 98, 130, 368]
14.013[433, 140, 44, 47, 91, 111, 116, 199]
14.029[366, 126, 36, 46, 81, 100, 108, 209]
14.049[299, 107, 31, 48, 75, 96, 168, 301]
14.072[291, 88, 28, 48, 97, 92, 174, 297]
14.088[282, 83, 30, 48, 97, 86, 174, 269]
14.109[280, 73, 32, 44, 96, 69, 172, 267]
14.132[273, 78, 33, 41, 97, 74, 181, 297]
14.154[282, 84, 35, 37, 94, 81, 145, 239]
14.169[305, 93, 36, 36, 68, 81, 140, 273]
14.192[302, 111, 37, 35, 65, 79, 146, 277]
14.214[309, 110, 35, 34, 60, 76, 145, 311]
14.229[323, 103, 34, 33, 55, 77, 129, 273]
14.252[317, 106, 33, 35, 68, 69, 130, 245]
14.274[322, 109, 34, 38, 67, 71, 139, 233]
14.289[359, 93, 30, 35, 63, 72, 142, 245]
14.312[350, 93, 31, 35, 63, 71, 147, 237]
14.334[348, 92, 33, 37, 65, 73, 171, 249]
14.349[351, 93, 36, 38, 51, 73, 178, 258]
14.372[357, 84, 36, 39, 52, 74, 170, 265]
14.394[337, 96, 37, 38, 50, 71, 177, 281]
14.41[399, 123, 37, 40, 48, 71, 187, 281]
14.432[443, 133, 36, 39, 45, 60, 189, 272]
14.454[451, 139, 30, 34, 44, 55, 171, 301]
14.47[452, 153, 34, 30, 41, 54, 174, 299]
14.492[547, 160, 36, 35, 43, 56, 157, 280]
14.516[531, 151, 36, 31, 48, 60, 175, 275]
14.537[501, 143, 36, 33, 52, 65, 175, 297]
14.552[483, 136, 39, 37, 56, 78, 181, 293]
14.583[521, 143, 39, 39, 59, 81, 176, 277]
14.589[426, 132, 38, 36, 60, 80, 194, 323]
14.612[388, 119, 37, 40, 59, 84, 169, 308]
14.634[406, 121, 39, 39, 56, 86, 145, 291]
14.649[488, 132, 42, 40, 51, 80, 171, 265]
14.672[540, 141, 44, 42, 52, 78, 194, 343]
14.694[533, 142, 44, 41, 50, 79, 179, 289]
14.709[538, 145, 43, 37, 47, 72, 173, 294]
14.732[525, 142, 45, 40, 48, 65, 174, 295]
14.754[517, 147, 45, 41, 57, 73, 136, 287]
14.769[462, 168, 49, 47, 60, 82, 134, 328]
14.792[550, 173, 49, 49, 64, 91, 182, 376]
14.814[557, 173, 50, 51, 69, 93, 185, 381]
14.829[554, 173, 48, 52, 74, 96, 188, 399]
14.852[575, 173, 45, 52, 70, 86, 221, 439]
14.874[564, 134, 38, 44, 67, 77, 211, 359]
14.889[534, 163, 46, 46, 67, 77, 197, 380]
14.912[539, 163, 46, 49, 65, 76, 204, 376]
14.935[522, 163, 48, 47, 59, 89, 206, 355]
14.95[440, 158, 48, 47, 59, 98, 174, 303]
14.972[450, 165, 50, 49, 61, 100, 176, 339]
14.994[442, 153, 44, 50, 61, 95, 154, 278]
15.011[502, 170, 44, 54, 64, 97, 143, 281]
15.032[516, 180, 44, 51, 64, 85, 146, 316]
15.054[573, 171, 43, 51, 64, 78, 157, 355]
15.077[526, 152, 39, 53, 61, 71, 174, 330]
15.092[526, 155, 39, 63, 74, 75, 212, 384]
15.114[530, 148, 39, 66, 86, 87, 214, 384]
15.137[562, 152, 39, 70, 93, 87, 216, 357]
15.152[562, 192, 47, 70, 97, 90, 211, 342]
15.174[561, 206, 52, 72, 109, 108, 195, 351]
15.197[584, 198, 54, 63, 104, 118, 160, 351]
15.212[657, 205, 55, 63, 106, 118, 218, 383]
15.234[707, 200, 60, 65, 112, 131, 256, 487]
15.257[739, 169, 56, 64, 108, 127, 265, 480]
15.279[804, 163, 51, 71, 110, 120, 268, 485]
15.303[819, 187, 51, 73, 112, 117, 266, 482]
15.317[835, 213, 58, 72, 106, 124, 234, 494]
15.332[822, 217, 53, 68, 101, 123, 246, 418]
15.354[965, 273, 59, 72, 111, 133, 244, 487]
15.377[961, 288, 64, 74, 114, 130, 247, 502]
15.4[940, 285, 66, 78, 121, 126, 265, 473]
15.414[882, 275, 69, 87, 144, 154, 369, 530]
15.437[887, 288, 71, 91, 146, 159, 346, 530]
15.452[742, 256, 66, 88, 144, 155, 340, 484]
15.474[774, 248, 67, 88, 144, 163, 337, 483]
15.497[744, 230, 63, 82, 136, 158, 351, 473]
15.512[700, 208, 50, 72, 115, 125, 242, 374]
15.534[688, 207, 50, 71, 109, 105, 260, 429]
15.557[607, 188, 51, 85, 134, 131, 342, 459]
15.572[569, 200, 44, 74, 124, 145, 397, 442]
15.594[628, 226, 61, 105, 222, 161, 446, 523]
15.617[650, 240, 61, 108, 226, 159, 461, 533]
15.632[644, 241, 64, 109, 225, 163, 466, 486]
15.654[662, 240, 62, 98, 211, 161, 475, 498]
15.677[660, 230, 65, 101, 212, 139, 439, 510]
15.692[694, 230, 57, 73, 110, 146, 460, 504]
15.714[691, 266, 76, 77, 101, 154, 466, 496]
15.737[780, 284, 76, 85, 127, 184, 569, 601]
15.752[895, 378, 91, 97, 160, 190, 606, 616]
15.775[943, 523, 124, 98, 179, 209, 650, 652]
15.797[1000, 571, 134, 106, 203, 225, 694, 647]
15.812[1150, 655, 150, 111, 216, 259, 760, 715]
15.834[1324, 845, 167, 120, 212, 263, 790, 696]
15.857[1291, 853, 167, 119, 208, 278, 774, 707]
15.872[1274, 777, 145, 116, 201, 287, 743, 659]
15.894[1220, 745, 135, 109, 181, 278, 683, 649]
15.917[1110, 675, 114, 102, 178, 255, 628, 563]
15.932[907, 421, 101, 98, 186, 253, 515, 529]
15.956[922, 411, 99, 89, 167, 242, 562, 512]
15.977[878, 405, 96, 89, 155, 220, 563, 513]
16.0[915, 408, 94, 102, 191, 227, 557, 544]
16.014[921, 447, 98, 104, 189, 233, 615, 622]
16.037[940, 458, 91, 99, 199, 218, 605, 609]
16.06[915, 418, 84, 98, 205, 202, 508, 548]
16.074[910, 417, 87, 99, 208, 205, 514, 536]
16.097[833, 406, 86, 85, 166, 177, 471, 465]
16.127[833, 347, 76, 75, 153, 163, 411, 398]
16.142[690, 293, 66, 61, 111, 154, 436, 339]
16.157[640, 239, 61, 61, 93, 150, 431, 385]
16.18[691, 248, 58, 57, 86, 137, 403, 391]
16.194[688, 246, 56, 69, 110, 156, 412, 379]
16.217[743, 315, 73, 69, 112, 137, 354, 387]
16.24[752, 324, 71, 66, 109, 126, 283, 402]
16.254[739, 324, 70, 70, 110, 126, 263, 359]
16.277[688, 328, 77, 77, 114, 137, 261, 401]
16.3[722, 335, 78, 66, 89, 114, 291, 401]
16.314[573, 236, 57, 65, 81, 110, 267, 341]
16.338[590, 223, 59, 66, 81, 110, 250, 321]
16.36[690, 284, 68, 64, 70, 110, 294, 320]
16.375[701, 267, 61, 60, 64, 104, 297, 269]
16.405[647, 243, 61, 59, 59, 102, 277, 238]
16.42[657, 249, 60, 56, 53, 103, 265, 231]
16.434[721, 320, 68, 58, 75, 116, 277, 281]
16.457[589, 260, 58, 53, 77, 112, 247, 303]
16.48[638, 285, 60, 50, 79, 108, 309, 304]
16.494[668, 283, 59, 51, 90, 111, 313, 359]
16.517[728, 288, 62, 52, 91, 120, 323, 424]
16.54[640, 213, 50, 53, 90, 110, 321, 394]
16.554[728, 237, 53, 53, 90, 102, 322, 396]
16.577[716, 217, 51, 52, 87, 98, 308, 447]
16.6[720, 221, 50, 48, 82, 95, 285, 439]
16.614[662, 211, 48, 50, 82, 98, 298, 392]
16.637[664, 205, 49, 48, 63, 94, 290, 380]
16.66[673, 182, 46, 52, 66, 104, 285, 416]
16.674[616, 149, 41, 48, 63, 99, 226, 348]
16.697[562, 145, 40, 54, 62, 115, 215, 319]
16.72[585, 166, 40, 54, 64, 107, 180, 344]
16.734[658, 178, 43, 53, 67, 120, 185, 393]
16.757[546, 168, 40, 47, 64, 114, 168, 328]
16.78[545, 172, 41, 49, 73, 120, 170, 312]
16.802[602, 182, 43, 46, 79, 115, 177, 302]
16.817[612, 193, 46, 42, 82, 121, 288, 290]
16.841[552, 184, 47, 39, 78, 112, 300, 225]
16.854[540, 179, 49, 41, 78, 113, 305, 261]
16.877[588, 196, 48, 41, 75, 112, 323, 377]
16.9[537, 187, 48, 38, 60, 100, 354, 397]
16.914[528, 156, 76, 41, 54, 92, 325, 426]
16.937[520, 151, 79, 39, 55, 96, 312, 444]
16.96[528, 157, 86, 40, 56, 92, 342, 446]
16.982[505, 141, 86, 44, 57, 102, 351, 418]
16.997[520, 137, 86, 51, 64, 107, 322, 411]
17.02[465, 123, 59, 49, 68, 106, 265, 351]
17.042[550, 175, 58, 53, 71, 100, 276, 377]
17.057[580, 174, 46, 54, 81, 95, 252, 356]
17.08[648, 238, 56, 56, 77, 84, 235, 302]
17.102[643, 244, 60, 52, 72, 79, 222, 303]
17.118[643, 247, 62, 53, 70, 88, 227, 314]
17.14[541, 210, 55, 55, 77, 93, 212, 293]
17.163[648, 215, 55, 54, 69, 96, 209, 366]
17.177[605, 155, 48, 51, 77, 102, 214, 382]
17.2[614, 148, 45, 54, 81, 106, 256, 448]
17.222[605, 147, 41, 52, 79, 96, 253, 446]
17.237[621, 143, 42, 47, 67, 93, 261, 423]
17.26[479, 124, 43, 46, 64, 91, 236, 353]
17.282[351, 93, 40, 43, 52, 82, 210, 319]
17.297[302, 81, 35, 35, 49, 81, 168, 306]
17.32[312, 76, 34, 38, 47, 79, 160, 304]
17.342[289, 69, 33, 35, 45, 73, 136, 326]
17.357[465, 147, 38, 35, 43, 84, 211, 388]
17.38[566, 165, 37, 34, 41, 81, 203, 391]
17.403[588, 170, 41, 33, 36, 74, 207, 342]
17.417[656, 199, 44, 30, 38, 76, 215, 350]
17.447[724, 226, 49, 38, 62, 84, 215, 334]
17.462[654, 201, 46, 39, 66, 76, 154, 320]
17.477[591, 193, 47, 41, 67, 85, 160, 329]
17.5[596, 197, 46, 42, 69, 86, 138, 301]
17.522[594, 190, 46, 43, 70, 83, 133, 304]
17.537[505, 160, 38, 38, 53, 80, 127, 289]
17.56[449, 140, 35, 34, 49, 78, 104, 241]
17.583[442, 131, 36, 32, 50, 73, 132, 274]
17.597[496, 131, 33, 33, 51, 73, 146, 284]
17.62[478, 114, 30, 38, 53, 82, 137, 281]
17.642[472, 117, 31, 37, 50, 76, 143, 298]
17.665[574, 152, 35, 41, 52, 110, 168, 328]
17.68[575, 149, 31, 40, 50, 105, 139, 289]
17.702[593, 164, 36, 43, 49, 105, 137, 370]
17.717[544, 158, 38, 39, 44, 101, 134, 362]
17.74[572, 158, 40, 45, 54, 113, 152, 360]
17.763[511, 145, 43, 45, 54, 98, 137, 333]
17.777[540, 156, 43, 50, 60, 103, 157, 340]
17.807[460, 139, 44, 47, 57, 101, 149, 236]
17.822[473, 146, 43, 46, 56, 98, 171, 284]
17.837[431, 148, 44, 43, 51, 85, 155, 324]
17.86[422, 137, 38, 40, 46, 77, 145, 313]
17.883[367, 123, 37, 35, 37, 74, 127, 303]
17.905[325, 108, 31, 33, 38, 73, 123, 296]
17.92[336, 104, 28, 32, 36, 74, 101, 269]
17.942[443, 105, 27, 32, 35, 80, 125, 304]
17.965[430, 107, 32, 32, 37, 65, 122, 299]
17.98[551, 156, 39, 35, 42, 63, 125, 389]
18.002[591, 167, 42, 44, 46, 79, 126, 394]
18.025[603, 170, 43, 46, 48, 78, 123, 423]
18.04[587, 180, 42, 42, 45, 73, 84, 356]
18.062[666, 238, 46, 41, 46, 78, 112, 361]
18.085[580, 218, 42, 40, 47, 91, 106, 256]
18.1[573, 215, 41, 31, 49, 97, 102, 244]
18.123[565, 216, 43, 30, 52, 103, 98, 154]
18.145[531, 211, 45, 30, 51, 103, 109, 227]
18.16[423, 138, 37, 30, 49, 99, 84, 273]
18.182[525, 164, 35, 28, 44, 87, 92, 309]
18.206[544, 172, 32, 28, 39, 75, 117, 318]
18.22[516, 164, 33, 27, 36, 77, 118, 331]
18.242[562, 178, 36, 29, 40, 82, 110, 286]
18.265[573, 179, 36, 31, 45, 82, 107, 234]
18.28[502, 154, 40, 34, 50, 95, 111, 260]
18.303[497, 156, 45, 37, 52, 87, 84, 267]
18.325[506, 159, 45, 39, 52, 77, 81, 256]
18.339[452, 140, 42, 40, 56, 84, 99, 256]
18.362[454, 144, 44, 39, 53, 86, 118, 286]
18.385[453, 135, 39, 38, 49, 76, 127, 291]
18.399[406, 116, 36, 38, 47, 73, 132, 278]
18.423[382, 110, 34, 36, 46, 76, 138, 279]
18.452[372, 99, 30, 34, 38, 62, 132, 278]
18.467[413, 99, 28, 33, 36, 62, 121, 283]
18.483[390, 97, 30, 32, 38, 58, 105, 258]
18.504[379, 98, 28, 27, 35, 66, 101, 262]
18.527[460, 119, 30, 28, 34, 70, 94, 288]
18.543[458, 135, 31, 33, 41, 84, 95, 287]
18.564[419, 133, 33, 33, 42, 82, 169, 282]
18.587[453, 152, 35, 37, 47, 114, 170, 267]
18.603[484, 160, 37, 38, 49, 112, 174, 269]
18.624[408, 143, 35, 39, 49, 114, 173, 224]
18.641[406, 139, 38, 35, 43, 113, 181, 266]
18.663[370, 130, 36, 37, 43, 116, 106, 225]
18.685[370, 119, 41, 39, 44, 114, 112, 299]
18.701[352, 113, 41, 40, 43, 115, 107, 300]
18.723[464, 162, 45, 44, 49, 118, 112, 334]
18.744[461, 158, 44, 44, 49, 111, 91, 300]
18.761[502, 166, 45, 45, 51, 110, 103, 306]
18.783[536, 176, 43, 41, 44, 84, 118, 223]
18.804[595, 204, 47, 40, 45, 104, 129, 233]
18.821[542, 176, 43, 38, 40, 93, 138, 262]
18.843[526, 171, 44, 39, 40, 93, 137, 265]
18.864[523, 184, 48, 40, 37, 93, 137, 262]
18.887[487, 167, 42, 36, 34, 86, 130, 247]
18.902[408, 134, 39, 38, 34, 57, 125, 275]
18.924[365, 124, 39, 36, 33, 55, 124, 218]
18.946[387, 127, 37, 34, 30, 50, 125, 220]
18.962[337, 96, 34, 33, 31, 46, 139, 224]
18.984[326, 108, 36, 33, 34, 50, 123, 226]
19.007[325, 100, 35, 31, 34, 57, 137, 262]
19.021[390, 102, 35, 32, 37, 58, 128, 256]
19.046[364, 92, 35, 33, 38, 59, 128, 251]
19.067[368, 91, 31, 30, 37, 62, 124, 246]
19.089[367, 83, 30, 34, 36, 60, 132, 244]
19.104[428, 141, 37, 33, 38, 57, 140, 232]
19.128[384, 145, 37, 34, 35, 61, 138, 227]
19.142[437, 154, 39, 35, 37, 66, 157, 243]
19.164[457, 162, 40, 35, 36, 61, 148, 243]
19.186[480, 163, 41, 36, 35, 68, 158, 305]
19.202[434, 121, 34, 33, 34, 65, 144, 291]
19.224[454, 146, 40, 33, 35, 60, 144, 296]
19.247[403, 136, 36, 30, 34, 62, 141, 287]
19.263[390, 133, 37, 31, 35, 68, 142, 297]
19.284[327, 127, 35, 28, 34, 63, 127, 247]
19.307[464, 173, 36, 28, 30, 61, 130, 267]
19.323[440, 152, 28, 28, 29, 62, 133, 263]
19.352[540, 185, 32, 27, 29, 66, 139, 328]
19.367[536, 183, 29, 28, 31, 62, 134, 324]
19.382[580, 208, 33, 30, 34, 67, 142, 317]
19.404[464, 174, 35, 31, 34, 67, 132, 288]
19.427[573, 209, 37, 31, 37, 68, 129, 288]
19.442[614, 306, 58, 35, 41, 79, 136, 242]
19.464[634, 322, 60, 34, 40, 78, 135, 235]
19.495[590, 309, 59, 36, 49, 94, 121, 228]
19.502[595, 306, 58, 37, 52, 97, 123, 238]
19.524[527, 289, 58, 39, 53, 97, 139, 236]
19.547[376, 153, 36, 37, 52, 82, 129, 230]
19.562[344, 115, 34, 37, 52, 86, 133, 225]
19.584[445, 179, 43, 36, 45, 66, 134, 242]
19.607[455, 191, 45, 34, 42, 64, 131, 242]
19.622[410, 180, 45, 30, 39, 62, 123, 271]
19.645[409, 179, 43, 28, 33, 58, 107, 243]
19.667[410, 176, 44, 30, 34, 52, 106, 267]
19.682[347, 107, 37, 31, 32, 54, 117, 315]
19.704[363, 119, 36, 32, 39, 67, 124, 281]
19.727[385, 138, 42, 42, 49, 75, 131, 259]
19.742[395, 143, 43, 42, 52, 81, 125, 263]
19.764[399, 146, 42, 40, 51, 82, 130, 245]
19.788[347, 140, 41, 38, 49, 83, 124, 235]
19.809[517, 168, 47, 41, 52, 79, 133, 308]
19.824[502, 157, 41, 35, 50, 72, 117, 311]
19.855[489, 153, 40, 35, 49, 66, 122, 315]
19.869[498, 155, 42, 37, 48, 73, 116, 314]
19.885[529, 170, 43, 37, 48, 68, 115, 286]
19.907[367, 122, 34, 33, 40, 58, 95, 255]
19.929[362, 118, 37, 32, 32, 56, 107, 251]
19.944[364, 118, 38, 34, 36, 61, 105, 252]
19.967[392, 128, 34, 37, 41, 60, 127, 283]
19.989[363, 113, 32, 36, 42, 56, 129, 265]
20.004[325, 106, 33, 37, 43, 56, 127, 243]
20.028[347, 120, 43, 40, 47, 55, 121, 256]
20.049[408, 120, 42, 37, 44, 61, 150, 303]
20.064[377, 106, 44, 34, 41, 57, 133, 281]
20.087[359, 102, 44, 35, 42, 61, 126, 281]
20.109[370, 102, 44, 38, 44, 69, 137, 303]
20.124[465, 105, 38, 35, 41, 74, 138, 291]
20.147[469, 114, 40, 35, 47, 74, 121, 279]
20.169[461, 117, 39, 36, 48, 77, 125, 274]
20.185[469, 116, 36, 35, 49, 76, 129, 267]
20.207[510, 125, 36, 32, 46, 68, 119, 245]
20.229[420, 109, 33, 35, 47, 63, 116, 273]
20.244[362, 101, 31, 36, 44, 67, 92, 226]
20.267[410, 112, 31, 35, 41, 80, 173, 233]
20.289[442, 118, 34, 38, 43, 86, 174, 229]
20.304[388, 107, 34, 36, 41, 86, 173, 188]
20.327[386, 106, 33, 38, 52, 89, 170, 192]
20.349[415, 118, 37, 44, 68, 81, 172, 245]
20.364[408, 113, 39, 48, 70, 68, 86, 234]
20.395[356, 102, 37, 47, 71, 58, 74, 238]
20.409[342, 103, 37, 50, 77, 57, 66, 238]
20.424[312, 98, 36, 51, 79, 50, 61, 188]
20.447[252, 77, 33, 44, 65, 48, 51, 102]
20.469[127, 49, 28, 39, 63, 37, 53, 183]
20.486[114, 49, 28, 38, 62, 40, 62, 209]
20.515[86, 71, 26, 34, 54, 37, 61, 214]
20.529[91, 81, 24, 27, 36, 38, 65, 221]
20.544[84, 89, 21, 28, 44, 32, 64, 222]
20.568[83, 106, 22, 29, 43, 31, 50, 158]
20.589[100, 106, 21, 34, 61, 26, 37, 110]
20.604[113, 91, 21, 54, 105, 46, 38, 91]
20.626[110, 83, 22, 59, 117, 51, 33, 68]
20.649[111, 74, 25, 60, 118, 54, 32, 57]
20.664[109, 47, 27, 64, 129, 59, 31, 43]
20.687[89, 44, 29, 63, 123, 69, 30, 33]
20.709[68, 43, 30, 47, 95, 67, 33, 31]
20.732[47, 35, 31, 45, 89, 64, 35, 34]
20.747[40, 32, 35, 60, 89, 66, 39, 35]
20.77[33, 31, 38, 59, 82, 68, 54, 84]
20.792[34, 35, 37, 60, 88, 66, 64, 135]
20.807[36, 30, 35, 63, 89, 59, 64, 141]
20.829[34, 31, 35, 61, 83, 58, 63, 143]
20.852[31, 28, 27, 52, 83, 55, 60, 145]
20.866[33, 24, 23, 49, 76, 50, 47, 123]
20.889[34, 19, 26, 56, 95, 53, 39, 71]
20.912[32, 19, 28, 64, 101, 52, 37, 58]
20.928[31, 20, 27, 63, 103, 51, 35, 49]
20.949[30, 21, 26, 59, 100, 50, 36, 44]
20.972[22, 21, 28, 62, 103, 50, 35, 40]
20.987[22, 22, 26, 72, 115, 40, 23, 27]
21.009[21, 26, 28, 70, 124, 45, 23, 24]
21.032[23, 27, 28, 81, 126, 45, 22, 24]
21.047[23, 30, 30, 85, 131, 46, 22, 23]
21.069[23, 31, 29, 93, 137, 44, 22, 25]
21.091[23, 31, 28, 102, 134, 41, 22, 25]
21.106[25, 27, 26, 123, 134, 37, 25, 26]
21.129[46, 28, 29, 130, 137, 49, 99, 302]
21.152[47, 27, 31, 134, 135, 53, 109, 332]
21.167[54, 26, 30, 130, 129, 61, 156, 410]
21.189[67, 29, 41, 120, 139, 65, 165, 497]
21.212[69, 35, 56, 160, 265, 85, 168, 500]
21.226[59, 37, 62, 199, 295, 82, 147, 402]
21.249[60, 45, 68, 229, 326, 87, 144, 378]
21.273[57, 49, 69, 231, 331, 83, 104, 361]
21.286[43, 49, 65, 230, 318, 82, 97, 242]
21.309[40, 44, 54, 200, 219, 63, 104, 245]
21.333[45, 45, 48, 160, 179, 67, 102, 246]
21.346[42, 36, 39, 109, 120, 58, 98, 248]
21.369[38, 31, 38, 99, 107, 56, 86, 131]
21.4[40, 29, 37, 99, 106, 53, 102, 228]
21.407[42, 29, 35, 83, 99, 51, 94, 268]
21.429[35, 22, 31, 63, 89, 43, 85, 273]
21.452[35, 24, 29, 57, 71, 49, 86, 276]
21.467[39, 27, 29, 72, 113, 57, 88, 280]
21.49[38, 26, 28, 65, 112, 61, 89, 275]
21.513[35, 27, 26, 61, 110, 60, 86, 232]
21.527[34, 30, 25, 57, 109, 60, 86, 230]
21.549[32, 28, 26, 56, 110, 58, 83, 227]
21.573[29, 22, 24, 35, 64, 51, 79, 221]
21.587[25, 22, 22, 34, 68, 44, 50, 132]
21.609[29, 22, 25, 42, 74, 47, 68, 179]
21.632[43, 20, 25, 45, 72, 45, 70, 184]
21.646[52, 21, 25, 50, 73, 50, 72, 198]
21.669[53, 22, 25, 49, 71, 48, 75, 203]
21.693[52, 23, 26, 48, 61, 50, 69, 185]
21.715[53, 26, 27, 44, 58, 56, 75, 232]
21.73[44, 24, 27, 42, 57, 57, 74, 226]
21.752[33, 26, 25, 38, 67, 51, 74, 218]
21.775[32, 26, 27, 39, 68, 51, 73, 216]
21.797[33, 26, 27, 41, 69, 54, 82, 245]
21.813[28, 23, 26, 38, 64, 46, 58, 159]
21.835[34, 26, 25, 37, 64, 43, 67, 200]
21.85[34, 24, 25, 34, 51, 44, 68, 200]
21.873[34, 24, 23, 34, 46, 43, 68, 203]
21.895[32, 22, 22, 30, 42, 39, 59, 170]
21.909[32, 22, 18, 30, 39, 40, 78, 209]
21.933[25, 21, 21, 28, 36, 40, 74, 172]
21.955[23, 20, 21, 27, 31, 38, 71, 167]
21.969[26, 19, 20, 26, 32, 38, 75, 206]
21.992[28, 20, 20, 27, 33, 39, 80, 223]
22.015[28, 20, 21, 27, 34, 37, 63, 186]
22.029[28, 19, 19, 27, 30, 35, 65, 214]
22.052[28, 22, 21, 27, 37, 34, 65, 214]
22.075[28, 23, 21, 26, 39, 46, 66, 201]
22.089[32, 23, 22, 26, 41, 45, 60, 191]
22.112[36, 25, 23, 27, 40, 47, 60, 193]
22.136[38, 24, 23, 27, 43, 48, 70, 214]
22.149[38, 22, 22, 28, 38, 49, 69, 219]
22.172[38, 21, 25, 28, 34, 40, 67, 200]
22.195[32, 21, 23, 27, 32, 42, 79, 228]
22.209[29, 20, 21, 26, 31, 42, 81, 247]
22.233[28, 22, 23, 24, 30, 43, 78, 240]
22.255[29, 21, 23, 26, 36, 48, 80, 235]
22.269[30, 22, 21, 32, 41, 48, 84, 242]
22.292[29, 20, 21, 35, 41, 48, 70, 205]
22.315[34, 21, 22, 34, 42, 45, 73, 232]
22.329[35, 20, 22, 35, 41, 44, 65, 207]
22.352[36, 22, 22, 33, 40, 38, 75, 243]
22.375[36, 21, 24, 27, 35, 38, 69, 228]
22.389[36, 23, 24, 24, 33, 36, 70, 229]
22.413[33, 22, 25, 25, 32, 38, 69, 186]
22.435[33, 21, 23, 23, 33, 37, 69, 194]
22.458[32, 19, 23, 24, 29, 38, 67, 188]
22.473[31, 20, 22, 23, 31, 44, 65, 195]
22.495[30, 22, 22, 23, 31, 43, 66, 199]
22.509[27, 21, 23, 24, 37, 46, 61, 189]
22.533[28, 22, 23, 24, 37, 47, 67, 211]
22.555[28, 22, 22, 25, 38, 48, 66, 212]
22.569[29, 20, 22, 24, 36, 44, 69, 212]
22.593[28, 19, 24, 29, 42, 67, 69, 207]
22.615[28, 22, 25, 31, 39, 71, 70, 206]
22.637[26, 23, 26, 31, 40, 75, 60, 149]
22.653[28, 27, 26, 32, 42, 79, 64, 163]
22.675[30, 28, 28, 35, 45, 83, 76, 199]
22.698[31, 29, 26, 32, 41, 66, 75, 207]
22.713[32, 29, 23, 28, 42, 66, 74, 214]
22.735[33, 29, 22, 29, 42, 63, 76, 224]
22.758[30, 26, 22, 27, 40, 63, 70, 201]
22.772[29, 26, 21, 26, 40, 56, 67, 204]
22.795[32, 25, 22, 28, 42, 62, 70, 210]
22.817[31, 24, 22, 28, 40, 58, 75, 209]
22.832[29, 24, 23, 31, 39, 56, 73, 204]
22.855[29, 24, 24, 33, 40, 56, 74, 215]
22.877[28, 24, 24, 32, 34, 59, 63, 175]
22.892[28, 23, 24, 29, 34, 54, 70, 216]
22.915[30, 21, 25, 29, 34, 55, 65, 215]
22.938[29, 22, 25, 29, 40, 62, 66, 216]
22.951[31, 24, 24, 29, 39, 57, 75, 212]
22.975[31, 24, 25, 32, 39, 56, 82, 228]
22.998[28, 24, 26, 32, 45, 55, 76, 209]
23.013[28, 26, 24, 33, 46, 51, 78, 208]
23.035[31, 27, 26, 36, 43, 50, 77, 207]
23.057[31, 25, 28, 36, 48, 55, 77, 223]
23.072[34, 25, 27, 34, 50, 57, 72, 212]
23.095[36, 25, 28, 42, 43, 59, 83, 216]
23.118[36, 23, 29, 41, 45, 67, 86, 246]
23.14[35, 24, 35, 41, 45, 71, 87, 244]
23.155[34, 23, 39, 40, 41, 76, 84, 242]
23.177[31, 22, 39, 39, 42, 86, 83, 236]
23.191[28, 24, 36, 32, 46, 87, 69, 204]
23.216[28, 24, 37, 31, 47, 80, 76, 191]
23.237[31, 22, 29, 26, 46, 73, 87, 239]
23.252[34, 26, 21, 31, 47, 62, 79, 203]
23.275[44, 24, 23, 35, 49, 45, 79, 203]
23.298[80, 31, 26, 38, 49, 46, 96, 241]
23.312[84, 34, 23, 42, 50, 48, 88, 222]
23.335[84, 34, 25, 43, 52, 47, 88, 224]
23.358[84, 36, 29, 41, 50, 50, 85, 221]
23.372[79, 37, 30, 48, 45, 51, 92, 229]
23.395[47, 34, 31, 49, 45, 50, 88, 229]
23.417[42, 31, 32, 49, 41, 51, 87, 232]
23.447[40, 32, 35, 51, 40, 54, 74, 179]
23.456[43, 27, 31, 51, 47, 59, 86, 210]
23.477[55, 30, 30, 43, 48, 58, 79, 212]
23.499[58, 29, 27, 41, 44, 63, 73, 209]
23.515[57, 30, 29, 38, 55, 61, 75, 203]
23.537[56, 31, 27, 37, 56, 57, 75, 201]
23.559[52, 30, 30, 40, 53, 48, 72, 222]
23.575[39, 28, 31, 46, 55, 57, 75, 213]
23.598[30, 29, 33, 59, 61, 55, 83, 203]
23.619[32, 29, 33, 61, 56, 79, 95, 221]
23.636[32, 27, 30, 60, 52, 80, 96, 225]
23.657[31, 27, 28, 56, 51, 84, 92, 171]
23.679[32, 30, 28, 52, 49, 78, 101, 213]
23.695[32, 32, 29, 33, 43, 75, 90, 194]
23.717[29, 32, 29, 31, 38, 49, 93, 172]
23.739[31, 43, 33, 36, 38, 51, 93, 171]
23.756[33, 47, 34, 46, 39, 55, 90, 167]
23.777[34, 46, 34, 45, 39, 58, 79, 105]
23.799[30, 43, 35, 50, 44, 55, 81, 109]
23.816[36, 44, 34, 49, 44, 64, 82, 243]
23.837[37, 33, 31, 45, 43, 62, 82, 256]
23.859[38, 31, 29, 36, 40, 55, 85, 260]
23.875[39, 34, 32, 54, 46, 56, 83, 262]
23.898[41, 35, 28, 52, 39, 57, 76, 255]
23.919[36, 35, 28, 52, 40, 57, 52, 135]
23.935[35, 41, 34, 53, 44, 60, 52, 106]
23.956[37, 40, 34, 53, 43, 62, 76, 191]
23.979[38, 37, 32, 36, 37, 58, 85, 194]
23.996[41, 37, 32, 32, 38, 57, 86, 194]
24.017[42, 35, 36, 33, 36, 46, 85, 194]
24.039[41, 27, 31, 33, 36, 43, 87, 193]
24.055[38, 27, 31, 36, 42, 45, 72, 123]
24.077[36, 27, 30, 39, 47, 53, 66, 133]
24.107[35, 28, 34, 39, 45, 56, 75, 336]
24.116[36, 32, 34, 38, 46, 59, 80, 375]
24.137[34, 33, 34, 38, 44, 57, 77, 416]
24.159[34, 32, 37, 38, 39, 55, 71, 421]
24.175[33, 30, 38, 35, 32, 48, 67, 415]
24.197[30, 33, 32, 34, 35, 45, 76, 310]
24.219[30, 30, 38, 39, 35, 42, 71, 261]
24.235[32, 33, 37, 37, 38, 45, 78, 223]
24.257[33, 32, 34, 34, 39, 46, 77, 210]
24.279[33, 37, 33, 32, 39, 48, 82, 218]
24.294[33, 36, 38, 35, 39, 53, 69, 169]
24.317[36, 38, 32, 33, 38, 58, 88, 204]
24.339[34, 35, 35, 35, 36, 56, 82, 172]
24.354[37, 36, 37, 38, 36, 54, 89, 218]
24.377[41, 37, 37, 38, 34, 54, 84, 218]
24.399[39, 34, 36, 41, 33, 51, 83, 220]
24.414[37, 32, 33, 39, 35, 46, 63, 187]
24.437[36, 32, 34, 41, 32, 49, 60, 180]
24.459[32, 29, 33, 37, 35, 49, 45, 106]
24.474[31, 35, 34, 38, 36, 46, 62, 154]
24.497[35, 36, 30, 37, 36, 47, 58, 149]
24.519[32, 37, 31, 37, 34, 44, 58, 151]
24.542[38, 39, 28, 33, 39, 49, 70, 208]
24.557[40, 41, 33, 42, 37, 51, 78, 220]
24.579[38, 32, 34, 44, 39, 53, 67, 181]
24.602[40, 32, 35, 41, 37, 49, 75, 210]
24.616[41, 32, 37, 43, 38, 54, 76, 216]
24.639[37, 30, 37, 42, 38, 50, 69, 165]
24.662[34, 29, 37, 36, 39, 52, 62, 187]
24.677[36, 28, 35, 30, 37, 51, 60, 189]
24.699[30, 28, 36, 29, 41, 53, 56, 162]
24.722[33, 27, 35, 25, 41, 49, 75, 207]
24.737[34, 30, 34, 24, 38, 45, 76, 211]
24.759[34, 30, 27, 25, 39, 46, 75, 186]
24.782[36, 30, 33, 30, 39, 48, 75, 183]
24.797[39, 29, 33, 30, 38, 48, 85, 233]
24.819[37, 34, 34, 32, 37, 47, 69, 191]
24.842[38, 31, 37, 33, 37, 49, 79, 217]
24.857[38, 31, 38, 30, 32, 46, 77, 216]
24.879[34, 30, 36, 31, 32, 52, 77, 216]
24.902[31, 30, 34, 31, 28, 50, 61, 153]
24.917[27, 27, 34, 31, 29, 51, 63, 148]
24.939[26, 28, 33, 33, 30, 51, 44, 96]
24.962[41, 29, 34, 33, 32, 51, 88, 235]
24.977[41, 30, 32, 31, 36, 46, 87, 237]
24.999[44, 31, 34, 33, 38, 49, 92, 242]
25.022[44, 32, 36, 34, 40, 49, 92, 247]
25.037[43, 32, 32, 31, 42, 49, 92, 248]
25.059[37, 30, 30, 32, 43, 46, 78, 236]
25.082[41, 28, 31, 32, 42, 51, 82, 236]
25.097[42, 31, 30, 32, 43, 52, 86, 249]
25.128[44, 29, 26, 33, 40, 53, 85, 245]
25.142[44, 28, 28, 33, 38, 57, 85, 242]
25.157[38, 29, 28, 30, 36, 55, 59, 127]
25.179[41, 26, 27, 29, 36, 50, 105, 290]
25.202[38, 26, 27, 29, 38, 45, 99, 283]
25.217[37, 26, 29, 25, 41, 46, 101, 288]
25.239[40, 26, 27, 29, 41, 45, 108, 306]
25.262[41, 25, 29, 32, 41, 57, 109, 307]
25.277[31, 29, 27, 31, 38, 61, 63, 156]
25.299[30, 29, 26, 31, 35, 66, 61, 137]
25.322[36, 27, 26, 31, 33, 65, 86, 211]
25.337[33, 27, 27, 28, 32, 63, 83, 218]
25.359[34, 32, 27, 26, 33, 57, 83, 224]
25.382[34, 30, 30, 27, 38, 53, 82, 227]
25.404[37, 30, 29, 26, 37, 59, 83, 227]
25.419[31, 31, 30, 30, 34, 70, 61, 156]
25.442[31, 32, 33, 31, 37, 75, 55, 108]
25.457[36, 28, 33, 31, 38, 78, 77, 210]
25.479[39, 29, 33, 33, 37, 96, 79, 222]
25.502[37, 32, 34, 35, 37, 92, 78, 223]
25.524[37, 31, 32, 33, 38, 84, 72, 219]
25.539[38, 31, 29, 31, 39, 79, 68, 220]
25.562[32, 31, 28, 33, 40, 95, 44, 114]
25.585[27, 29, 26, 31, 37, 81, 38, 76]
25.599[27, 23, 24, 27, 39, 79, 36, 65]
25.622[38, 24, 27, 29, 39, 80, 83, 257]
25.644[38, 21, 26, 30, 32, 81, 86, 271]
25.659[38, 22, 27, 28, 30, 55, 85, 274]
25.682[40, 27, 29, 27, 32, 55, 88, 280]
25.704[38, 26, 31, 30, 36, 66, 89, 284]
25.72[26, 25, 28, 30, 38, 68, 50, 140]
25.75[26, 26, 30, 29, 38, 72, 47, 138]
25.764[26, 29, 31, 29, 37, 73, 55, 178]
25.787[27, 27, 28, 29, 35, 70, 61, 198]
25.801[30, 27, 27, 27, 29, 63, 64, 197]
25.824[31, 28, 29, 27, 28, 57, 64, 196]
25.839[28, 27, 27, 27, 28, 51, 63, 175]
25.861[29, 24, 25, 27, 28, 52, 76, 183]
25.884[28, 21, 25, 29, 26, 50, 74, 193]
25.9[29, 23, 24, 29, 30, 46, 71, 197]
25.922[30, 22, 25, 26, 29, 47, 73, 202]
25.944[31, 26, 27, 28, 32, 50, 72, 205]
25.959[31, 26, 28, 30, 32, 52, 63, 168]
25.99[33, 28, 29, 29, 33, 55, 70, 159]
26.012[35, 30, 31, 32, 35, 65, 80, 204]
26.019[35, 30, 29, 46, 36, 64, 80, 204]
26.041[36, 26, 28, 50, 37, 60, 81, 207]
26.065[34, 26, 30, 49, 38, 60, 72, 200]
26.079[32, 23, 30, 48, 37, 58, 57, 174]
26.102[32, 23, 29, 49, 36, 75, 69, 199]
26.133[34, 23, 29, 36, 35, 76, 78, 233]
26.139[33, 24, 31, 29, 33, 77, 79, 235]
26.161[33, 25, 27, 37, 35, 75, 79, 237]
26.185[33, 29, 26, 46, 35, 77, 81, 235]
26.199[27, 26, 26, 45, 31, 54, 61, 165]
26.221[23, 25, 27, 46, 31, 58, 44, 96]
26.245[31, 25, 24, 46, 32, 60, 75, 245]
26.259[34, 24, 25, 39, 28, 61, 79, 255]
26.281[35, 22, 26, 30, 31, 55, 78, 261]
26.305[36, 21, 24, 29, 35, 49, 78, 267]
26.319[37, 21, 23, 28, 34, 42, 81, 274]
26.342[32, 24, 23, 28, 34, 51, 60, 155]
26.365[28, 23, 22, 30, 37, 57, 56, 131]
26.379[26, 25, 25, 28, 35, 60, 57, 138]
26.402[29, 27, 25, 28, 30, 61, 64, 192]
26.425[33, 28, 25, 27, 29, 59, 62, 191]
26.447[33, 25, 25, 27, 28, 53, 55, 184]
26.462[33, 26, 25, 25, 24, 45, 53, 183]
26.485[32, 24, 22, 26, 24, 43, 50, 169]
26.507[28, 23, 22, 25, 25, 41, 38, 92]
26.522[22, 23, 22, 23, 26, 42, 37, 68]
26.546[26, 22, 22, 24, 24, 40, 65, 193]
26.567[27, 22, 22, 26, 26, 44, 68, 204]
26.581[28, 21, 22, 25, 26, 48, 70, 207]
26.605[29, 20, 24, 28, 27, 52, 69, 209]
26.627[30, 21, 24, 29, 27, 51, 70, 210]
26.642[27, 20, 24, 27, 26, 48, 42, 109]
26.665[28, 22, 24, 25, 26, 45, 42, 117]
26.687[29, 23, 25, 29, 28, 40, 50, 164]
26.701[29, 24, 24, 26, 29, 37, 64, 204]
26.725[32, 25, 24, 30, 30, 38, 66, 210]
26.747[31, 28, 26, 32, 33, 44, 67, 208]
26.762[30, 27, 26, 31, 37, 58, 64, 193]
26.785[27, 27, 26, 31, 39, 59, 57, 151]
26.807[24, 26, 25, 32, 37, 59, 42, 84]
26.822[25, 27, 25, 34, 36, 59, 60, 160]
26.845[28, 25, 24, 32, 37, 59, 73, 199]
26.867[27, 24, 24, 33, 33, 47, 76, 206]
26.882[30, 23, 24, 29, 30, 42, 82, 220]
26.905[33, 24, 25, 29, 30, 42, 88, 228]
26.927[32, 22, 23, 24, 33, 41, 78, 209]
26.941[30, 21, 23, 28, 34, 51, 69, 189]
26.965[31, 22, 22, 26, 33, 51, 65, 186]
26.987[32, 23, 23, 27, 37, 52, 67, 205]
27.001[32, 22, 25, 29, 37, 50, 61, 201]
27.025[30, 25, 26, 28, 33, 52, 58, 172]
27.047[30, 26, 26, 25, 29, 44, 56, 155]
27.062[30, 25, 27, 27, 31, 43, 61, 168]
27.085[29, 24, 24, 27, 28, 44, 69, 194]
27.107[32, 26, 24, 24, 28, 46, 75, 213]
27.122[32, 23, 22, 25, 30, 45, 73, 213]
27.145[34, 23, 24, 26, 28, 41, 76, 215]
27.175[33, 23, 24, 24, 28, 40, 71, 202]
27.181[32, 23, 26, 25, 28, 38, 52, 138]
27.205[30, 21, 25, 26, 26, 36, 57, 162]
27.227[30, 23, 24, 24, 26, 35, 55, 160]
27.241[27, 22, 23, 25, 28, 35, 52, 159]
27.265[32, 22, 24, 25, 28, 33, 74, 221]
27.287[35, 23, 22, 26, 27, 33, 73, 220]
27.302[32, 23, 25, 26, 28, 33, 64, 179]
27.325[32, 20, 27, 27, 28, 33, 64, 175]
27.347[32, 22, 25, 26, 28, 31, 66, 179]
27.37[30, 21, 25, 27, 28, 30, 53, 161]
27.385[29, 25, 25, 26, 28, 29, 58, 180]
27.408[31, 26, 23, 26, 28, 33, 67, 206]
27.43[33, 27, 21, 24, 28, 34, 68, 211]
27.445[34, 27, 22, 26, 28, 37, 68, 212]
27.467[29, 26, 24, 30, 28, 38, 58, 165]
27.49[32, 31, 23, 29, 29, 38, 62, 204]
27.505[33, 37, 25, 31, 28, 35, 53, 182]
27.527[33, 36, 26, 30, 26, 37, 71, 234]
27.55[33, 36, 25, 29, 26, 38, 69, 236]
27.565[33, 38, 23, 26, 27, 39, 75, 240]
27.587[30, 34, 25, 28, 26, 48, 69, 192]
27.61[27, 28, 24, 27, 30, 49, 81, 237]
27.625[27, 28, 24, 27, 30, 47, 66, 183]
27.647[27, 36, 24, 29, 31, 47, 67, 177]
27.67[27, 37, 27, 30, 33, 53, 61, 170]
27.685[28, 36, 26, 30, 33, 46, 59, 168]
27.707[32, 38, 26, 28, 30, 45, 56, 141]
27.73[33, 61, 27, 29, 33, 45, 60, 151]
27.745[36, 57, 27, 28, 31, 42, 71, 195]
27.767[36, 57, 25, 26, 29, 33, 71, 202]
27.79[35, 56, 25, 25, 32, 41, 75, 207]
27.805[31, 55, 24, 27, 34, 45, 69, 179]
27.828[28, 32, 24, 27, 34, 49, 71, 172]
27.85[24, 30, 23, 25, 34, 48, 59, 120]
27.864[34, 36, 30, 25, 33, 54, 87, 262]
27.887[33, 34, 30, 26, 32, 50, 89, 272]
27.909[33, 33, 30, 24, 33, 47, 89, 279]
27.924[36, 32, 29, 22, 32, 43, 85, 280]
27.947[35, 35, 31, 25, 31, 46, 88, 281]
27.97[24, 29, 25, 29, 33, 44, 57, 151]
27.984[25, 30, 24, 26, 33, 41, 49, 123]
28.008[26, 31, 25, 28, 29, 40, 40, 91]
28.037[27, 30, 24, 29, 28, 43, 58, 176]
28.044[32, 26, 23, 28, 30, 41, 66, 188]
28.067[35, 25, 24, 26, 29, 44, 86, 235]
28.097[36, 29, 26, 29, 29, 47, 88, 239]
28.104[34, 30, 26, 27, 31, 50, 89, 242]
28.135[31, 27, 28, 29, 31, 47, 78, 186]
28.15[26, 28, 28, 29, 29, 45, 67, 168]
28.164[24, 30, 26, 29, 29, 39, 51, 169]
28.187[23, 27, 26, 29, 31, 45, 51, 169]
28.209[25, 23, 27, 29, 31, 42, 50, 170]
28.224[24, 30, 29, 29, 31, 42, 51, 167]
28.247[25, 30, 27, 27, 32, 45, 52, 167]
28.27[22, 28, 27, 27, 30, 42, 37, 79]
28.284[25, 28, 27, 25, 28, 41, 56, 138]
28.307[31, 29, 26, 28, 29, 46, 79, 231]
28.33[32, 24, 25, 24, 28, 48, 83, 243]
28.352[32, 25, 25, 29, 31, 47, 86, 251]
28.368[34, 28, 24, 25, 31, 47, 87, 256]
28.389[33, 27, 24, 27, 32, 45, 78, 232]
28.413[30, 27, 23, 25, 31, 39, 63, 173]
28.428[33, 29, 23, 31, 36, 49, 75, 226]
28.449[35, 28, 25, 31, 33, 54, 84, 233]
28.472[33, 28, 27, 33, 34, 56, 85, 231]
28.488[32, 28, 26, 31, 32, 51, 82, 227]
28.509[30, 29, 27, 32, 34, 49, 76, 205]
28.531[24, 25, 24, 32, 33, 43, 60, 127]
28.548[27, 31, 23, 31, 33, 47, 59, 167]
28.569[33, 28, 22, 31, 33, 48, 74, 225]
28.591[33, 31, 22, 30, 33, 49, 75, 231]
28.608[33, 27, 21, 32, 30, 56, 74, 228]
28.629[33, 27, 22, 28, 26, 55, 72, 227]
28.651[27, 22, 23, 27, 25, 47, 69, 192]
28.668[24, 23, 23, 25, 27, 45, 59, 135]
28.689[28, 19, 22, 27, 32, 45, 74, 173]
28.711[30, 23, 24, 25, 31, 41, 77, 180]
28.728[33, 24, 24, 27, 33, 37, 85, 220]
28.749[35, 23, 26, 28, 34, 38, 79, 214]
28.771[34, 22, 26, 32, 34, 38, 78, 212]
28.788[33, 24, 27, 31, 30, 37, 78, 221]
28.809[34, 25, 25, 30, 31, 37, 76, 219]
28.831[31, 23, 24, 32, 32, 39, 68, 180]
28.848[30, 24, 22, 31, 32, 37, 68, 177]
28.869[32, 25, 23, 28, 32, 37, 76, 228]
28.893[29, 25, 22, 30, 32, 39, 62, 187]
28.914[31, 23, 23, 29, 30, 36, 76, 224]
28.937[35, 23, 24, 28, 29, 36, 85, 236]
28.951[35, 24, 26, 28, 27, 38, 90, 241]
28.968[32, 23, 24, 27, 25, 37, 81, 182]
28.989[35, 23, 26, 28, 24, 37, 88, 224]
29.012[32, 23, 26, 27, 27, 38, 76, 189]
29.028[33, 25, 26, 28, 26, 38, 83, 220]
29.049[35, 23, 23, 31, 29, 40, 79, 222]
29.071[36, 26, 23, 32, 28, 48, 79, 225]
29.088[31, 26, 22, 31, 31, 47, 69, 177]
29.109[29, 25, 20, 32, 30, 49, 67, 168]
29.132[28, 28, 23, 30, 32, 48, 72, 193]
29.148[45, 29, 24, 28, 33, 55, 121, 309]
29.177[49, 27, 25, 27, 35, 52, 126, 324]
29.191[49, 27, 25, 28, 36, 52, 128, 331]
29.208[50, 26, 25, 27, 34, 50, 130, 334]
29.229[48, 21, 25, 28, 31, 49, 118, 293]
29.251[31, 20, 24, 25, 27, 40, 63, 154]
29.274[24, 21, 26, 29, 31, 47, 60, 170]
29.29[29, 22, 27, 29, 29, 51, 76, 247]
29.319[28, 23, 27, 30, 31, 53, 80, 259]
29.334[29, 26, 26, 28, 33, 55, 81, 261]
29.349[29, 26, 25, 28, 34, 53, 81, 263]
29.371[29, 25, 26, 27, 30, 43, 72, 232]
29.395[26, 25, 24, 23, 30, 40, 69, 197]
29.409[30, 25, 25, 22, 28, 37, 74, 233]
29.431[33, 22, 26, 26, 26, 34, 80, 237]
29.454[33, 22, 27, 29, 25, 32, 83, 241]
29.469[33, 23, 24, 28, 23, 33, 84, 242]
29.492[33, 23, 27, 29, 23, 31, 68, 194]
29.523[29, 24, 25, 30, 25, 33, 54, 117]
29.53[29, 23, 23, 29, 25, 35, 62, 157]
29.552[27, 26, 23, 26, 26, 38, 62, 167]
29.574[31, 26, 25, 27, 28, 39, 67, 214]
29.589[31, 26, 22, 26, 28, 38, 72, 223]
29.611[31, 26, 22, 25, 27, 38, 76, 224]
29.634[31, 26, 23, 24, 27, 36, 64, 188]
29.649[30, 24, 24, 26, 26, 33, 61, 169]
29.672[28, 22, 22, 26, 26, 36, 55, 107]
29.694[29, 22, 23, 30, 29, 40, 63, 157]
29.709[30, 23, 23, 31, 28, 38, 66, 190]
29.731[26, 24, 23, 29, 29, 38, 63, 191]
29.754[27, 24, 22, 31, 29, 39, 61, 193]
29.769[26, 25, 22, 31, 27, 37, 58, 190]
29.791[24, 24, 22, 27, 25, 37, 50, 151]
29.814[22, 22, 20, 28, 24, 34, 42, 105]
29.829[29, 23, 23, 30, 27, 52, 65, 204]
29.851[30, 24, 24, 26, 27, 54, 69, 214]
29.874[29, 25, 24, 26, 30, 55, 69, 216]
29.889[29, 26, 25, 28, 30, 56, 65, 210]
29.911[31, 29, 25, 27, 31, 57, 69, 213]
29.934[25, 27, 22, 28, 31, 44, 48, 117]
29.949[33, 30, 22, 29, 30, 45, 91, 221]
29.98[35, 29, 23, 34, 30, 44, 104, 281]
29.994[35, 29, 25, 33, 30, 44, 105, 282]
30.009[34, 26, 28, 32, 31, 47, 102, 283]
30.032[34, 29, 30, 32, 30, 44, 102, 284]
30.054[27, 24, 30, 31, 30, 40, 66, 205]
30.069[29, 25, 32, 28, 29, 41, 65, 161]
30.091[34, 26, 29, 27, 30, 43, 83, 228]
30.122[34, 26, 28, 28, 29, 43, 86, 229]
30.129[35, 25, 27, 26, 29, 52, 88, 235]
30.151[35, 26, 30, 28, 30, 55, 85, 230]
30.174[31, 25, 26, 27, 28, 56, 70, 193]
30.189[27, 23, 26, 27, 27, 51, 60, 137]
30.211[28, 36, 27, 26, 26, 47, 59, 150]
30.234[32, 56, 31, 29, 26, 38, 69, 208]
30.257[33, 60, 27, 30, 26, 34, 69, 215]
30.271[33, 59, 27, 28, 28, 42, 69, 217]
30.294[30, 61, 27, 30, 32, 47, 62, 197]
30.316[30, 56, 26, 31, 36, 54, 62, 189]
30.332[24, 35, 22, 29, 40, 61, 48, 106]
30.354[27, 31, 22, 28, 42, 64, 62, 179]
30.377[34, 29, 23, 31, 45, 60, 92, 279]
30.392[36, 30, 24, 29, 43, 55, 92, 293]
30.414[36, 27, 25, 30, 41, 51, 94, 295]
30.436[38, 26, 23, 28, 37, 46, 94, 299]
30.451[35, 26, 26, 27, 36, 42, 84, 258]
30.474[29, 27, 26, 25, 30, 41, 52, 141]
30.497[25, 24, 24, 26, 32, 44, 43, 103]
30.511[24, 25, 24, 24, 30, 43, 33, 79]
30.534[23, 25, 26, 23, 29, 38, 45, 156]
30.557[27, 23, 24, 24, 26, 37, 46, 160]
30.573[29, 24, 25, 25, 30, 37, 61, 201]
30.594[31, 22, 24, 26, 24, 35, 64, 207]
30.616[31, 23, 23, 27, 27, 44, 72, 222]
30.631[31, 22, 21, 29, 28, 47, 69, 180]
30.654[31, 24, 22, 35, 33, 56, 76, 225]
30.677[28, 23, 23, 35, 32, 60, 63, 193]
30.691[32, 25, 23, 35, 34, 61, 77, 249]
30.714[32, 25, 23, 36, 33, 54, 71, 236]
30.736[32, 24, 25, 36, 39, 61, 68, 233]
30.752[31, 21, 25, 30, 38, 56, 60, 186]
30.774[30, 23, 23, 28, 39, 58, 60, 182]
30.805[26, 20, 24, 28, 38, 57, 51, 158]
30.813[26, 20, 26, 27, 39, 59, 50, 165]
30.834[28, 20, 25, 26, 33, 49, 61, 200]
30.857[29, 24, 24, 22, 29, 47, 64, 207]
30.872[31, 22, 27, 24, 31, 43, 65, 210]
30.894[30, 24, 26, 23, 32, 42, 66, 175]
30.917[33, 25, 25, 23, 31, 45, 73, 207]
30.931[29, 26, 25, 23, 30, 46, 61, 178]
30.954[28, 22, 25, 25, 30, 46, 68, 199]
30.977[27, 25, 24, 24, 27, 45, 69, 205]
30.991[28, 23, 25, 24, 25, 46, 62, 197]
31.014[26, 22, 24, 25, 25, 42, 54, 162]
31.037[26, 24, 24, 25, 24, 41, 54, 151]
31.051[27, 25, 25, 24, 26, 39, 45, 149]
31.074[28, 24, 25, 24, 28, 39, 42, 145]
31.097[27, 26, 24, 28, 31, 36, 38, 142]
31.113[28, 27, 25, 28, 30, 37, 37, 139]
31.134[29, 26, 26, 32, 35, 51, 38, 140]
31.156[34, 27, 26, 34, 36, 60, 80, 222]
31.18[82, 29, 29, 41, 41, 62, 89, 280]
31.194[97, 29, 29, 41, 40, 68, 107, 327]
31.216[103, 30, 30, 41, 41, 74, 131, 341]
31.24[107, 31, 29, 39, 39, 71, 141, 361]
31.254[106, 32, 28, 40, 43, 71, 125, 328]
31.276[84, 30, 27, 36, 38, 69, 130, 324]
31.3[90, 32, 30, 36, 38, 67, 131, 294]
31.314[96, 33, 32, 38, 39, 71, 150, 344]
31.337[94, 33, 31, 38, 40, 82, 176, 352]
31.36[109, 35, 32, 44, 39, 82, 223, 371]
31.374[126, 47, 35, 43, 43, 90, 233, 381]
31.396[113, 46, 33, 41, 44, 96, 238, 377]
31.42[111, 47, 30, 39, 42, 95, 257, 420]
31.434[130, 50, 32, 41, 42, 83, 248, 424]
31.457[131, 62, 34, 34, 43, 85, 238, 422]
31.479[234, 68, 33, 41, 43, 87, 266, 414]
31.494[333, 91, 34, 41, 45, 101, 319, 433]
31.517[351, 95, 37, 46, 51, 116, 337, 366]
31.539[348, 94, 38, 47, 53, 123, 351, 349]
31.554[352, 87, 38, 55, 62, 142, 362, 394]
31.577[309, 81, 38, 56, 62, 153, 368, 373]
31.6[266, 76, 38, 60, 64, 153, 355, 395]
31.614[262, 76, 36, 58, 63, 144, 332, 387]
31.637[261, 77, 35, 58, 62, 144, 413, 392]
31.66[284, 79, 32, 50, 54, 137, 444, 380]
31.674[278, 78, 30, 45, 51, 131, 500, 421]
31.697[322, 95, 35, 43, 53, 133, 553, 459]
31.72[318, 96, 35, 40, 51, 129, 546, 457]
31.742[319, 95, 36, 41, 52, 123, 483, 448]
31.757[296, 94, 38, 46, 57, 112, 466, 390]
31.78[300, 100, 41, 46, 59, 110, 424, 394]
31.794[212, 72, 34, 45, 53, 88, 327, 304]
31.817[218, 71, 36, 49, 57, 102, 328, 356]
31.839[222, 73, 36, 48, 53, 103, 374, 369]
31.854[215, 71, 35, 42, 47, 97, 350, 367]
31.877[189, 57, 32, 40, 44, 89, 299, 319]
31.9[167, 49, 34, 39, 46, 105, 352, 349]
31.914[151, 58, 31, 34, 42, 102, 403, 297]
31.945[137, 55, 32, 34, 41, 98, 356, 298]
31.959[188, 59, 34, 33, 44, 103, 360, 367]
31.974[194, 61, 32, 34, 46, 107, 368, 353]
31.997[198, 59, 32, 35, 50, 91, 342, 338]
32.019[226, 62, 33, 35, 55, 91, 319, 365]
32.034[272, 73, 34, 37, 58, 94, 430, 438]
32.057[253, 72, 35, 40, 59, 97, 465, 442]
32.081[261, 80, 40, 43, 64, 89, 463, 473]
32.102[259, 82, 43, 48, 69, 121, 482, 499]
32.117[300, 79, 47, 52, 76, 152, 536, 539]
32.139[289, 80, 50, 54, 78, 189, 546, 525]
32.162[306, 80, 48, 53, 80, 191, 541, 511]
32.177[309, 74, 46, 53, 77, 205, 560, 509]
32.2[318, 82, 44, 54, 80, 209, 577, 517]
32.222[289, 77, 40, 54, 83, 186, 598, 490]
32.237[341, 73, 39, 56, 86, 185, 630, 480]
32.259[330, 89, 42, 61, 87, 204, 699, 505]
32.282[329, 88, 42, 60, 87, 203, 682, 486]
32.297[316, 84, 44, 57, 84, 182, 644, 463]
32.327[355, 100, 47, 64, 86, 191, 594, 484]
32.342[368, 111, 47, 61, 88, 174, 530, 464]
32.365[379, 101, 46, 66, 98, 176, 437, 471]
32.38[388, 103, 46, 66, 99, 170, 464, 516]
32.402[469, 103, 45, 67, 99, 182, 523, 518]
32.417[443, 101, 41, 59, 88, 176, 511, 479]
32.44[401, 90, 42, 60, 86, 173, 478, 516]
32.462[413, 94, 41, 51, 69, 145, 538, 502]
32.477[450, 101, 43, 49, 66, 137, 570, 491]
32.5[372, 100, 43, 48, 65, 124, 540, 488]
32.522[349, 93, 42, 46, 66, 118, 546, 458]
32.537[347, 101, 37, 40, 62, 115, 552, 391]
32.559[368, 104, 39, 45, 67, 121, 485, 399]
32.583[345, 101, 35, 45, 69, 137, 485, 413]
32.605[389, 106, 50, 69, 97, 217, 557, 430]
32.619[407, 119, 57, 74, 105, 222, 534, 439]
32.642[465, 129, 61, 77, 109, 220, 524, 463]
32.656[482, 183, 65, 81, 118, 249, 519, 440]
32.68[561, 210, 70, 83, 117, 245, 491, 420]
32.71[572, 219, 62, 65, 97, 207, 394, 428]
32.716[596, 226, 60, 61, 89, 199, 381, 422]
32.747[584, 228, 63, 68, 87, 199, 378, 400]
32.762[616, 208, 63, 66, 83, 170, 447, 402]
32.776[623, 233, 63, 80, 102, 180, 435, 405]
32.8[678, 275, 68, 85, 110, 157, 467, 372]
32.829[761, 352, 89, 88, 113, 193, 572, 425]
32.837[785, 350, 88, 84, 111, 190, 610, 441]
32.86[781, 366, 86, 78, 104, 180, 584, 419]
32.882[796, 346, 84, 62, 87, 180, 628, 431]
32.896[751, 317, 78, 54, 71, 173, 601, 411]
32.919[661, 220, 48, 45, 63, 130, 520, 364]
32.942[708, 245, 48, 42, 70, 145, 461, 434]
32.956[666, 211, 45, 43, 66, 148, 423, 450]
32.98[599, 207, 46, 41, 67, 131, 336, 414]
33.002[597, 220, 52, 39, 68, 135, 333, 409]
33.016[595, 220, 52, 39, 68, 142, 325, 409]
33.039[535, 213, 54, 39, 57, 121, 305, 327]
33.07[552, 209, 52, 42, 62, 112, 291, 301]
33.084[509, 195, 50, 43, 58, 106, 336, 284]
33.099[469, 160, 42, 39, 51, 95, 316, 292]
33.122[439, 156, 46, 49, 59, 91, 324, 284]
33.145[385, 131, 46, 57, 80, 115, 355, 284]
33.16[384, 139, 49, 57, 81, 114, 372, 328]
33.182[467, 154, 55, 70, 89, 158, 337, 311]
33.205[484, 164, 57, 69, 89, 165, 334, 306]
33.219[492, 163, 54, 64, 84, 165, 319, 340]
33.242[582, 168, 53, 61, 75, 156, 324, 358]
33.264[700, 263, 64, 71, 83, 203, 321, 328]
33.28[709, 292, 65, 67, 88, 181, 302, 336]
33.303[736, 292, 72, 77, 96, 204, 318, 441]
33.324[750, 294, 75, 82, 101, 212, 331, 467]
33.346[665, 282, 73, 78, 96, 209, 313, 471]
33.369[541, 194, 62, 67, 85, 170, 324, 458]
33.384[495, 160, 54, 61, 78, 171, 408, 489]
33.4[491, 169, 43, 49, 75, 136, 398, 415]
33.421[529, 174, 42, 37, 72, 117, 387, 386]
33.444[534, 178, 40, 37, 69, 118, 396, 387]
33.46[636, 198, 41, 37, 71, 122, 399, 387]
33.481[632, 178, 41, 41, 89, 107, 329, 349]
33.504[662, 185, 46, 47, 90, 112, 360, 350]
33.52[627, 209, 46, 51, 93, 118, 396, 322]
33.543[756, 276, 59, 61, 103, 121, 386, 280]
33.564[691, 295, 64, 63, 102, 110, 367, 271]
33.58[677, 296, 67, 59, 87, 158, 349, 274]
33.601[710, 327, 69, 59, 82, 170, 337, 333]
33.624[793, 326, 70, 60, 81, 168, 272, 336]
33.641[717, 310, 68, 59, 74, 178, 304, 417]
33.661[714, 281, 61, 59, 79, 186, 286, 425]
33.684[730, 289, 60, 60, 76, 151, 329, 431]
33.701[706, 270, 62, 60, 80, 143, 322, 397]
33.722[672, 265, 59, 60, 74, 146, 360, 455]
33.744[669, 256, 55, 51, 69, 132, 317, 407]
33.766[633, 259, 59, 48, 62, 119, 325, 421]
33.783[664, 274, 59, 44, 59, 125, 331, 411]
33.804[660, 270, 57, 43, 48, 118, 333, 447]
33.821[709, 280, 58, 47, 66, 114, 296, 418]
33.841[748, 257, 57, 52, 70, 111, 311, 383]
33.864[810, 264, 60, 78, 77, 118, 321, 393]
33.888[827, 254, 59, 102, 87, 114, 284, 395]
33.901[785, 233, 56, 105, 92, 109, 272, 348]
33.925[694, 218, 53, 106, 84, 117, 266, 309]
33.94[609, 222, 55, 107, 82, 122, 265, 354]
33.961[586, 212, 48, 91, 80, 115, 232, 314]
33.991[524, 192, 47, 67, 71, 105, 213, 314]
34.006[584, 181, 44, 60, 65, 104, 192, 384]
34.021[578, 159, 45, 55, 67, 112, 254, 397]
34.044[602, 134, 39, 50, 67, 114, 266, 369]
34.067[565, 131, 40, 48, 62, 110, 300, 383]
34.082[531, 127, 41, 47, 57, 106, 296, 381]
34.104[570, 178, 53, 52, 68, 152, 389, 292]
34.127[544, 187, 53, 49, 61, 136, 369, 266]
34.141[567, 187, 55, 48, 60, 140, 359, 291]
34.165[617, 210, 59, 52, 64, 141, 342, 295]
34.186[629, 214, 58, 50, 65, 143, 350, 289]
34.203[538, 177, 48, 45, 63, 116, 279, 280]
34.224[652, 233, 56, 49, 68, 124, 269, 307]
34.255[648, 243, 56, 52, 69, 116, 272, 290]
34.269[586, 216, 50, 47, 63, 119, 265, 256]
34.284[589, 216, 51, 48, 63, 116, 262, 246]
34.306[593, 215, 51, 43, 53, 98, 256, 274]
34.322[573, 169, 45, 46, 50, 99, 247, 242]
34.344[537, 164, 45, 45, 51, 96, 226, 214]
34.366[527, 165, 43, 40, 50, 87, 219, 226]
34.381[569, 172, 46, 43, 50, 105, 320, 287]
34.404[583, 176, 46, 45, 48, 99, 313, 277]
34.426[537, 158, 41, 38, 44, 87, 330, 297]
34.442[534, 160, 41, 36, 42, 93, 328, 296]
34.464[542, 161, 42, 40, 45, 109, 349, 327]
34.486[501, 157, 41, 43, 47, 103, 298, 284]
34.502[539, 160, 41, 42, 51, 103, 292, 306]
34.524[533, 165, 43, 44, 52, 110, 272, 277]
34.548[569, 165, 42, 47, 54, 105, 277, 323]
34.561[557, 165, 41, 47, 55, 92, 247, 277]
34.592[571, 162, 39, 44, 61, 87, 183, 304]
34.607[533, 160, 36, 45, 58, 92, 183, 335]
34.621[518, 151, 35, 43, 57, 84, 220, 350]
34.644[459, 143, 33, 40, 56, 83, 222, 336]
34.666[472, 146, 31, 35, 54, 80, 219, 342]
34.681[449, 151, 34, 37, 48, 74, 222, 352]
34.704[517, 163, 39, 44, 58, 87, 204, 325]
34.726[504, 171, 40, 49, 68, 128, 208, 351]
34.741[553, 174, 40, 51, 71, 134, 224, 330]
34.764[605, 182, 42, 52, 70, 135, 226, 326]
34.786[636, 192, 40, 54, 75, 141, 223, 293]
34.801[726, 206, 43, 52, 72, 145, 246, 317]
34.831[776, 211, 48, 49, 67, 120, 238, 281]
34.846[761, 211, 48, 48, 64, 116, 220, 286]
34.862[779, 243, 51, 46, 62, 124, 243, 291]
34.891[780, 231, 54, 49, 62, 130, 247, 288]
34.907[667, 212, 50, 45, 59, 116, 242, 218]
34.921[620, 215, 48, 45, 59, 119, 260, 244]
34.945[685, 230, 51, 48, 59, 118, 319, 288]
34.968[632, 190, 50, 52, 60, 118, 305, 317]
34.989[593, 191, 45, 43, 51, 120, 311, 329]
35.004[635, 242, 53, 46, 50, 122, 303, 346]
35.026[657, 237, 51, 41, 44, 111, 268, 355]
35.049[625, 232, 53, 38, 44, 112, 185, 334]
35.064[649, 269, 60, 37, 50, 113, 192, 319]
35.087[648, 264, 61, 38, 49, 94, 186, 304]
35.117[586, 214, 51, 33, 47, 93, 190, 326]
35.124[590, 216, 53, 34, 46, 92, 168, 290]
35.146[622, 243, 51, 35, 45, 90, 172, 326]
35.169[637, 212, 45, 38, 40, 78, 159, 312]
35.192[687, 228, 46, 38, 41, 90, 147, 348]
35.206[700, 234, 47, 39, 41, 83, 141, 313]
35.229[664, 240, 47, 40, 42, 80, 144, 316]
35.244[631, 209, 44, 39, 39, 75, 143, 319]
35.266[625, 212, 42, 36, 43, 79, 134, 353]
35.289[569, 196, 39, 37, 46, 73, 140, 340]
35.304[647, 319, 58, 41, 65, 116, 187, 475]
35.326[670, 323, 56, 41, 64, 119, 188, 475]
35.349[628, 330, 57, 41, 68, 125, 182, 443]
35.364[637, 341, 59, 43, 77, 143, 184, 422]
35.394[695, 367, 68, 48, 85, 162, 185, 410]
35.409[706, 334, 65, 52, 83, 177, 158, 235]
35.424[704, 326, 68, 51, 84, 179, 190, 231]
35.447[742, 313, 68, 56, 88, 184, 199, 304]
35.469[684, 287, 68, 58, 83, 177, 196, 294]
35.484[729, 284, 64, 57, 74, 157, 191, 303]
35.506[692, 228, 55, 50, 64, 111, 223, 374]
35.529[737, 248, 57, 56, 68, 114, 222, 494]
35.544[758, 261, 59, 52, 64, 113, 233, 448]
35.566[819, 274, 59, 48, 58, 100, 237, 476]
35.589[898, 284, 58, 47, 59, 104, 257, 499]
35.604[891, 303, 63, 49, 58, 102, 259, 474]
35.626[907, 291, 60, 46, 56, 101, 260, 380]
35.649[855, 277, 58, 44, 53, 86, 246, 386]
35.664[818, 262, 55, 45, 59, 97, 249, 364]
35.686[668, 226, 55, 44, 61, 99, 229, 375]
35.709[669, 163, 47, 42, 59, 100, 194, 356]
35.724[598, 147, 44, 42, 59, 98, 178, 365]
35.746[610, 152, 46, 45, 63, 121, 195, 374]
35.769[683, 179, 50, 43, 58, 116, 196, 395]
35.792[655, 184, 49, 52, 56, 119, 212, 355]
35.815[594, 180, 49, 55, 57, 129, 187, 347]
35.829[642, 179, 48, 53, 55, 130, 178, 345]
35.844[685, 179, 48, 55, 53, 112, 176, 346]
35.866[704, 172, 45, 54, 55, 112, 214, 415]
35.889[718, 162, 45, 45, 56, 102, 197, 412]
35.912[743, 164, 45, 42, 57, 87, 205, 491]
35.926[724, 192, 47, 42, 56, 96, 221, 475]
35.949[742, 207, 49, 40, 53, 99, 293, 490]
35.972[640, 197, 48, 43, 48, 91, 265, 450]
35.994[634, 197, 45, 46, 48, 94, 274, 449]
36.009[669, 209, 48, 49, 48, 96, 277, 451]
36.032[670, 187, 46, 53, 58, 100, 320, 445]
36.046[683, 203, 51, 57, 62, 104, 259, 458]
36.069[720, 266, 63, 60, 71, 122, 260, 430]
36.092[765, 274, 64, 60, 73, 126, 266, 438]
36.106[756, 270, 62, 57, 73, 128, 340, 350]
36.129[801, 321, 70, 53, 68, 126, 308, 373]
36.152[800, 308, 65, 53, 73, 138, 328, 370]
36.166[786, 260, 58, 47, 77, 131, 347, 357]
36.197[763, 269, 61, 46, 76, 126, 406, 359]
36.212[758, 268, 63, 44, 77, 124, 378, 355]
36.227[704, 214, 55, 47, 81, 112, 365, 407]
36.249[637, 204, 54, 48, 77, 117, 375, 373]
36.273[675, 207, 53, 52, 68, 121, 371, 409]
36.286[668, 187, 50, 52, 72, 134, 310, 417]
36.309[605, 175, 56, 66, 72, 135, 285, 413]
36.332[597, 167, 58, 65, 73, 138, 324, 404]
36.346[623, 186, 60, 64, 78, 130, 326, 394]
36.369[576, 179, 58, 63, 90, 129, 353, 369]
36.391[544, 178, 61, 64, 86, 119, 360, 385]
36.406[575, 192, 55, 52, 91, 129, 390, 399]
36.429[593, 208, 54, 54, 96, 133, 362, 330]
36.452[579, 193, 52, 52, 102, 126, 352, 345]
36.466[564, 185, 53, 48, 89, 116, 349, 376]
36.489[567, 181, 49, 48, 89, 116, 376, 360]
36.512[573, 161, 45, 47, 82, 100, 339, 350]
36.526[567, 139, 41, 42, 71, 117, 356, 392]
36.549[553, 130, 38, 43, 54, 120, 354, 386]
36.572[601, 134, 37, 43, 57, 121, 331, 367]
36.595[639, 137, 41, 48, 60, 125, 362, 415]
36.609[599, 146, 42, 47, 63, 132, 369, 409]
36.632[540, 138, 41, 46, 66, 106, 381, 371]
36.646[517, 144, 42, 41, 64, 95, 360, 361]
36.669[524, 192, 47, 46, 68, 101, 402, 353]
36.692[495, 205, 49, 42, 64, 106, 368, 279]
36.706[509, 205, 50, 45, 64, 101, 362, 292]
36.729[563, 219, 58, 49, 63, 103, 338, 286]
36.752[569, 211, 58, 48, 66, 104, 366, 356]
36.767[561, 181, 58, 47, 60, 98, 312, 368]
36.789[573, 158, 56, 47, 64, 82, 280, 378]
36.819[631, 182, 60, 52, 68, 93, 288, 423]
36.834[665, 228, 61, 51, 67, 107, 314, 456]
36.85[686, 249, 66, 53, 67, 113, 280, 407]
36.872[624, 242, 63, 48, 65, 115, 291, 394]
36.894[669, 280, 65, 47, 64, 118, 280, 381]
36.909[656, 279, 63, 39, 59, 109, 303, 330]
36.94[611, 248, 58, 37, 57, 101, 283, 287]
36.955[611, 236, 56, 37, 53, 97, 287, 309]
36.97[625, 233, 56, 39, 54, 92, 276, 323]
36.992[653, 276, 68, 65, 88, 191, 396, 396]
37.014[622, 271, 66, 67, 86, 194, 364, 380]
37.029[646, 268, 63, 68, 88, 196, 355, 375]
37.052[660, 277, 61, 71, 104, 221, 371, 424]
37.074[717, 291, 64, 72, 106, 224, 382, 417]
37.09[637, 206, 43, 50, 79, 148, 269, 370]
37.112[688, 216, 44, 48, 80, 144, 270, 364]
37.134[653, 205, 45, 45, 81, 142, 281, 368]
37.15[620, 183, 45, 45, 61, 110, 324, 311]
37.172[557, 173, 39, 47, 60, 103, 299, 284]
37.194[607, 234, 45, 47, 64, 99, 285, 264]
37.209[593, 218, 43, 57, 62, 103, 285, 282]
37.232[598, 227, 49, 57, 59, 104, 270, 276]
37.254[635, 243, 53, 58, 67, 93, 188, 241]
37.269[619, 231, 53, 57, 76, 97, 188, 269]
37.292[626, 219, 52, 55, 72, 105, 273, 298]
37.314[607, 223, 51, 44, 71, 96, 272, 287]
37.329[649, 231, 48, 44, 68, 91, 279, 333]
37.352[588, 213, 41, 44, 60, 88, 272, 348]
37.374[645, 237, 46, 44, 48, 89, 302, 383]
37.389[629, 214, 45, 47, 52, 79, 220, 339]
37.412[662, 239, 52, 48, 58, 94, 219, 361]
37.435[681, 286, 58, 50, 67, 98, 243, 332]
37.449[683, 286, 61, 48, 68, 94, 237, 312]
37.472[631, 267, 60, 48, 70, 103, 202, 270]
37.494[623, 266, 60, 49, 68, 119, 223, 287]
37.509[608, 264, 59, 57, 78, 127, 224, 256]
37.532[574, 213, 53, 59, 75, 122, 181, 239]
37.554[630, 250, 64, 71, 88, 160, 254, 338]
37.569[632, 253, 61, 69, 86, 155, 250, 311]
37.592[579, 238, 61, 72, 85, 143, 243, 320]
37.615[583, 227, 63, 69, 74, 132, 264, 410]
37.629[595, 240, 68, 66, 71, 139, 296, 409]
37.652[576, 216, 58, 56, 50, 103, 305, 341]
37.682[579, 211, 59, 61, 53, 99, 311, 345]
37.689[629, 216, 62, 58, 52, 97, 311, 392]
37.713[671, 229, 54, 52, 48, 89, 299, 315]
37.735[624, 187, 45, 53, 51, 83, 321, 332]
37.757[611, 183, 44, 48, 50, 87, 287, 340]
37.772[635, 188, 43, 42, 53, 92, 285, 376]
37.794[577, 180, 35, 42, 59, 95, 286, 304]
37.817[440, 123, 36, 47, 70, 102, 297, 280]
37.832[563, 226, 46, 65, 75, 111, 272, 302]
37.854[543, 230, 46, 64, 76, 100, 250, 300]
37.877[595, 233, 49, 69, 74, 119, 266, 263]
37.892[654, 252, 52, 67, 70, 125, 267, 278]
37.915[658, 254, 51, 65, 61, 128, 240, 355]
37.937[547, 176, 43, 48, 57, 121, 263, 319]
37.952[550, 161, 41, 49, 57, 124, 272, 357]
37.974[534, 172, 39, 45, 66, 111, 264, 372]
37.997[478, 149, 41, 49, 70, 105, 246, 379]
38.012[462, 151, 43, 53, 71, 99, 246, 313]
38.034[433, 144, 41, 54, 68, 90, 171, 313]
38.057[464, 142, 40, 55, 70, 84, 161, 270]
38.072[397, 122, 40, 59, 68, 77, 180, 271]
38.094[400, 132, 40, 57, 66, 76, 194, 238]
38.117[410, 124, 41, 53, 67, 69, 209, 234]
38.132[425, 119, 54, 48, 61, 76, 239, 265]
38.154[401, 120, 53, 47, 67, 84, 249, 257]
38.177[383, 117, 51, 40, 60, 95, 231, 233]
38.192[376, 96, 47, 38, 59, 92, 222, 241]
38.215[559, 228, 49, 37, 69, 103, 239, 308]
38.237[577, 246, 39, 38, 70, 98, 208, 278]
38.251[562, 243, 43, 37, 68, 90, 202, 328]
38.274[542, 239, 42, 35, 72, 70, 196, 319]
38.297[562, 245, 44, 37, 70, 71, 208, 326]
38.319[413, 139, 41, 44, 63, 71, 205, 305]
38.336[388, 125, 42, 45, 63, 75, 213, 336]
38.357[446, 130, 42, 51, 63, 80, 182, 283]
38.38[479, 136, 46, 52, 56, 79, 196, 283]
38.395[457, 124, 42, 54, 68, 84, 200, 276]
38.416[416, 126, 44, 47, 64, 72, 183, 279]
38.433[495, 139, 47, 56, 80, 101, 193, 304]
38.455[439, 139, 44, 53, 80, 101, 197, 312]
38.476[423, 134, 41, 53, 79, 111, 170, 308]
38.5[391, 129, 47, 52, 69, 107, 150, 308]
38.515[411, 132, 44, 52, 74, 113, 130, 315]
38.536[336, 109, 35, 40, 61, 82, 124, 296]
38.553[340, 107, 38, 41, 64, 81, 120, 294]
38.575[320, 110, 40, 45, 62, 79, 128, 304]
38.596[380, 126, 35, 44, 66, 77, 127, 297]
38.626[360, 115, 34, 42, 64, 68, 123, 252]
38.641[405, 126, 38, 41, 59, 71, 172, 256]
38.656[458, 133, 38, 40, 51, 82, 180, 255]
38.68[538, 161, 37, 35, 68, 80, 178, 269]
38.694[566, 171, 46, 38, 71, 86, 188, 294]
38.716[567, 172, 46, 39, 69, 88, 189, 312]
38.739[513, 166, 46, 40, 71, 91, 122, 268]
38.754[511, 196, 51, 41, 70, 85, 137, 268]
38.776[531, 220, 59, 51, 62, 83, 172, 329]
38.799[502, 219, 55, 48, 55, 86, 160, 314]
38.814[499, 220, 56, 50, 53, 86, 167, 309]
38.836[507, 217, 56, 52, 55, 87, 213, 319]
38.859[493, 205, 56, 52, 60, 87, 219, 331]
38.881[493, 182, 49, 42, 57, 85, 206, 297]
38.898[489, 170, 48, 44, 58, 81, 223, 301]
38.919[512, 174, 50, 44, 58, 80, 221, 295]
38.934[507, 173, 51, 43, 59, 77, 195, 306]
38.956[479, 147, 46, 40, 54, 70, 194, 303]
38.979[381, 114, 43, 40, 47, 86, 184, 294]
38.994[339, 106, 38, 37, 45, 86, 161, 284]
39.016[336, 100, 36, 36, 45, 90, 152, 277]
39.039[434, 116, 31, 36, 47, 93, 144, 285]
39.054[442, 119, 34, 41, 55, 97, 113, 271]
39.076[429, 113, 33, 42, 57, 76, 125, 224]
39.099[578, 144, 40, 43, 59, 80, 128, 301]
39.114[596, 151, 40, 42, 61, 77, 134, 305]
39.136[590, 185, 50, 43, 57, 78, 128, 322]
39.159[588, 187, 50, 39, 52, 77, 129, 314]
39.174[593, 204, 54, 38, 60, 87, 102, 321]
39.196[457, 190, 51, 36, 59, 87, 131, 309]
39.219[496, 204, 59, 36, 60, 92, 144, 321]
39.234[443, 170, 52, 35, 62, 91, 140, 270]
39.256[450, 173, 55, 33, 63, 94, 143, 277]
39.279[466, 155, 51, 33, 59, 91, 152, 282]
39.294[523, 158, 50, 35, 58, 89, 140, 260]
39.316[463, 131, 41, 37, 56, 81, 136, 254]
39.339[505, 159, 42, 35, 54, 76, 133, 252]
39.354[542, 163, 36, 38, 55, 79, 141, 243]
39.377[520, 162, 37, 40, 49, 77, 142, 274]
39.399[470, 153, 38, 37, 52, 74, 136, 258]
39.414[498, 184, 39, 33, 57, 78, 125, 243]
39.436[478, 166, 36, 35, 63, 76, 128, 235]
39.459[456, 157, 36, 33, 62, 63, 118, 247]
39.474[562, 199, 41, 31, 63, 62, 139, 327]
39.496[554, 199, 39, 33, 66, 59, 132, 307]
39.519[521, 172, 36, 34, 59, 53, 141, 303]
39.534[510, 179, 41, 35, 52, 58, 143, 349]
39.558[556, 190, 44, 35, 55, 62, 146, 351]
39.579[468, 155, 40, 43, 57, 58, 123, 289]
39.594[461, 154, 41, 41, 49, 58, 129, 293]
39.624[482, 149, 37, 41, 51, 60, 114, 290]
39.647[478, 133, 36, 39, 53, 59, 117, 243]
39.654[377, 108, 32, 39, 48, 52, 107, 227]
39.676[429, 150, 35, 31, 44, 61, 123, 194]
39.699[432, 158, 37, 32, 47, 70, 114, 184]
39.721[494, 168, 40, 32, 46, 70, 126, 182]
39.736[467, 159, 36, 34, 43, 70, 119, 167]
39.759[588, 257, 48, 35, 48, 82, 136, 277]
39.782[570, 250, 47, 37, 53, 86, 122, 252]
39.796[599, 254, 50, 36, 54, 96, 124, 282]
39.819[534, 252, 51, 40, 55, 117, 126, 280]
39.841[586, 275, 55, 40, 62, 121, 132, 283]
39.856[475, 193, 45, 41, 60, 119, 141, 250]
39.879[520, 171, 44, 37, 55, 114, 166, 270]
39.901[541, 169, 40, 40, 61, 106, 168, 251]
39.916[536, 162, 38, 41, 60, 90, 162, 273]
39.94[490, 121, 35, 40, 58, 88, 155, 292]
39.961[566, 131, 37, 39, 57, 84, 146, 294]
39.976[570, 163, 42, 41, 57, 79, 138, 283]
39.999[537, 168, 46, 40, 53, 76, 163, 289]
40.021[581, 188, 47, 38, 53, 64, 162, 271]
40.036[684, 228, 50, 37, 51, 58, 165, 250]
40.059[665, 230, 50, 39, 56, 54, 153, 171]
40.081[598, 205, 45, 40, 61, 51, 125, 214]
40.098[613, 195, 42, 39, 56, 49, 93, 228]
40.119[568, 176, 40, 38, 57, 54, 89, 246]
40.141[410, 122, 34, 36, 55, 50, 81, 247]
40.156[313, 94, 29, 32, 46, 47, 79, 248]
40.18[354, 103, 39, 36, 52, 73, 76, 196]
40.201[289, 99, 36, 36, 50, 70, 56, 154]
40.216[288, 109, 38, 34, 49, 68, 73, 194]
40.24[316, 104, 35, 36, 47, 69, 74, 199]
40.261[320, 108, 36, 36, 47, 73, 75, 205]
40.276[291, 97, 27, 28, 33, 65, 77, 214]
40.299[288, 92, 26, 24, 33, 66, 78, 218]
40.321[273, 69, 24, 29, 41, 77, 51, 151]
40.344[238, 75, 26, 28, 41, 78, 48, 135]
40.359[229, 72, 26, 31, 51, 99, 47, 118]
40.381[176, 60, 25, 32, 52, 92, 38, 86]
40.396[169, 59, 26, 34, 51, 91, 54, 183]
40.419[178, 73, 28, 32, 45, 81, 52, 188]
40.441[172, 68, 30, 35, 47, 83, 69, 239]
40.456[169, 65, 30, 31, 39, 61, 70, 244]
40.479[165, 65, 29, 33, 38, 71, 71, 247]
40.501[147, 68, 28, 32, 39, 70, 58, 179]
40.516[106, 63, 26, 31, 41, 71, 59, 170]
40.547[95, 61, 25, 31, 46, 67, 35, 83]
40.561[93, 70, 27, 36, 44, 59, 33, 67]
40.576[94, 69, 28, 34, 45, 53, 42, 161]
40.599[81, 62, 30, 34, 47, 53, 42, 163]
40.621[73, 48, 30, 34, 49, 49, 41, 166]
40.643[64, 44, 29, 35, 49, 50, 41, 167]
40.659[58, 26, 29, 34, 50, 66, 44, 168]
40.681[39, 25, 28, 36, 54, 65, 33, 76]
40.705[31, 23, 28, 40, 59, 66, 33, 66]
40.719[30, 24, 28, 56, 78, 71, 31, 54]
40.741[30, 24, 28, 54, 75, 71, 30, 45]
40.764[25, 24, 26, 55, 77, 55, 26, 39]
40.779[25, 25, 28, 55, 75, 49, 24, 28]
40.801[29, 25, 27, 53, 71, 54, 23, 24]
40.832[30, 24, 24, 40, 55, 51, 24, 23]
40.839[29, 23, 25, 43, 55, 51, 23, 22]
40.861[29, 19, 23, 39, 56, 51, 21, 23]
40.885[45, 19, 21, 37, 54, 50, 24, 54]
40.899[64, 19, 23, 35, 52, 47, 22, 61]
40.921[70, 24, 24, 34, 46, 48, 22, 67]
40.944[72, 24, 27, 72, 52, 54, 22, 70]
40.959[73, 26, 32, 105, 80, 62, 27, 71]
40.981[64, 28, 40, 120, 116, 68, 32, 53]
41.004[45, 32, 42, 128, 137, 69, 37, 47]
41.019[33, 30, 42, 130, 144, 69, 39, 40]
41.041[40, 31, 46, 153, 161, 70, 59, 189]
41.065[40, 34, 48, 152, 155, 67, 60, 196]
41.079[40, 33, 43, 147, 152, 62, 59, 205]
41.102[38, 32, 41, 147, 148, 64, 58, 208]
41.125[39, 32, 44, 171, 215, 68, 58, 209]
41.139[31, 32, 41, 153, 225, 64, 40, 100]
41.161[28, 30, 36, 145, 230, 92, 39, 84]
41.185[29, 29, 36, 141, 218, 97, 35, 63]
41.207[29, 27, 34, 138, 213, 96, 34, 49]
41.221[29, 24, 31, 106, 143, 94, 31, 44]
41.244[28, 26, 34, 95, 111, 96, 37, 39]
41.259[28, 26, 35, 84, 91, 75, 35, 38]
41.282[25, 27, 35, 84, 88, 66, 34, 34]
41.304[24, 28, 37, 83, 81, 60, 35, 33]
41.319[22, 30, 37, 80, 76, 55, 36, 33]
41.35[20, 27, 31, 69, 76, 55, 27, 21]
41.364[21, 26, 29, 62, 76, 48, 27, 21]
41.379[19, 26, 33, 57, 81, 51, 28, 21]
41.401[20, 24, 32, 53, 82, 52, 30, 19]
41.425[20, 23, 30, 52, 81, 54, 29, 21]
41.439[19, 24, 29, 41, 63, 52, 30, 23]
41.461[18, 25, 27, 36, 60, 44, 28, 21]
41.484[21, 25, 21, 47, 51, 42, 27, 20]
41.499[19, 25, 21, 44, 60, 38, 24, 21]
41.521[21, 24, 23, 48, 96, 37, 24, 19]
41.544[22, 27, 24, 67, 130, 33, 24, 18]
41.559[23, 27, 27, 68, 133, 34, 24, 21]
41.582[21, 27, 28, 62, 134, 49, 25, 21]
41.604[20, 27, 28, 62, 128, 52, 26, 24]
41.628[18, 26, 27, 59, 107, 55, 26, 25]
41.641[17, 22, 26, 39, 60, 54, 24, 25]
41.665[17, 22, 25, 39, 53, 53, 23, 24]
41.689[19, 22, 24, 40, 51, 46, 23, 25]
41.701[19, 22, 23, 36, 50, 45, 27, 29]
41.724[34, 24, 24, 35, 40, 43, 28, 32]
41.747[35, 23, 24, 33, 42, 43, 27, 35]
41.761[37, 24, 24, 35, 43, 49, 30, 36]
41.784[37, 24, 25, 31, 42, 45, 30, 35]
41.807[37, 23, 24, 41, 51, 45, 25, 31]
41.829[25, 22, 25, 41, 52, 43, 22, 26]
41.844[25, 22, 26, 45, 63, 49, 26, 22]
41.867[23, 22, 28, 50, 101, 50, 26, 23]
41.881[23, 24, 29, 51, 105, 50, 29, 24]
41.906[23, 24, 30, 46, 102, 50, 30, 23]
41.927[24, 25, 30, 47, 104, 54, 31, 29]
41.941[22, 25, 28, 45, 98, 46, 29, 29]
41.972[23, 25, 26, 35, 58, 41, 29, 28]
41.987[22, 22, 24, 34, 57, 38, 25, 28]
42.001[22, 23, 24, 31, 64, 35, 24, 27]
42.024[18, 21, 25, 30, 65, 28, 22, 19]
42.047[20, 22, 24, 30, 68, 39, 26, 23]
42.061[20, 21, 23, 31, 68, 38, 24, 24]
42.084[20, 21, 23, 30, 62, 39, 23, 23]
42.107[19, 22, 23, 30, 52, 39, 23, 25]
42.122[22, 23, 24, 33, 48, 40, 22, 27]
42.145[20, 24, 27, 32, 76, 37, 23, 27]
42.167[21, 24, 28, 33, 83, 68, 30, 26]
42.181[21, 23, 29, 36, 85, 70, 30, 27]
42.204[23, 23, 30, 37, 87, 71, 31, 25]
42.227[22, 22, 29, 33, 85, 70, 31, 23]
42.249[23, 20, 27, 31, 54, 67, 28, 22]
42.265[22, 21, 27, 31, 49, 37, 23, 20]
42.288[23, 22, 25, 31, 43, 36, 22, 19]
42.301[22, 22, 25, 34, 44, 49, 24, 18]
42.325[22, 21, 30, 36, 47, 54, 31, 23]
42.354[22, 24, 29, 37, 47, 54, 33, 21]
42.361[20, 23, 29, 32, 39, 51, 32, 21]
42.392[18, 22, 30, 31, 39, 49, 34, 22]
42.407[19, 24, 28, 31, 39, 45, 34, 26]
42.421[22, 26, 26, 33, 85, 44, 30, 28]
42.444[24, 23, 28, 37, 91, 54, 31, 28]
42.467[24, 24, 28, 39, 93, 56, 34, 29]
42.489[24, 24, 27, 38, 95, 56, 33, 30]
42.504[24, 24, 27, 36, 95, 49, 32, 28]
42.527[22, 23, 26, 34, 59, 48, 29, 22]
42.549[21, 24, 25, 34, 51, 53, 33, 26]
42.565[21, 25, 25, 35, 46, 53, 31, 28]
42.587[22, 25, 24, 35, 42, 52, 31, 27]
42.61[22, 24, 24, 34, 36, 51, 31, 29]
42.625[22, 22, 23, 34, 31, 49, 31, 30]
42.647[21, 23, 22, 28, 25, 32, 24, 29]
42.67[20, 23, 21, 28, 26, 30, 25, 26]
42.684[19, 22, 20, 26, 25, 32, 23, 26]
42.707[21, 22, 20, 25, 27, 32, 24, 25]
42.729[19, 23, 23, 24, 30, 32, 24, 23]
42.745[21, 21, 21, 25, 32, 38, 24, 19]
42.767[22, 20, 25, 23, 33, 41, 22, 22]
42.789[21, 23, 25, 25, 33, 40, 23, 21]
42.804[19, 23, 25, 25, 30, 39, 28, 24]
42.827[19, 24, 22, 24, 32, 37, 27, 25]
42.85[20, 22, 24, 26, 34, 29, 26, 26]
42.872[18, 25, 21, 25, 31, 30, 25, 26]
42.888[18, 23, 22, 25, 33, 35, 27, 26]
42.909[18, 22, 21, 28, 34, 38, 22, 23]
42.925[19, 20, 24, 27, 30, 39, 25, 24]
42.947[17, 23, 24, 25, 29, 39, 26, 23]
42.97[18, 21, 23, 26, 31, 38, 27, 23]
42.984[18, 21, 24, 25, 32, 37, 26, 23]
43.008[20, 22, 26, 30, 38, 48, 25, 22]
43.03[20, 24, 25, 31, 38, 50, 22, 21]
43.044[20, 23, 24, 31, 37, 50, 22, 24]
43.067[19, 23, 25, 30, 40, 65, 25, 22]
43.089[20, 24, 25, 31, 37, 65, 25, 21]
43.104[22, 23, 24, 27, 35, 58, 25, 21]
43.127[22, 22, 24, 28, 33, 58, 25, 22]
43.149[22, 21, 23, 27, 34, 61, 25, 18]
43.164[22, 22, 24, 27, 29, 47, 22, 18]
43.187[21, 20, 22, 28, 29, 44, 23, 19]
43.21[18, 22, 25, 30, 29, 42, 24, 19]
43.223[19, 23, 25, 30, 31, 40, 25, 19]
43.247[20, 24, 24, 29, 30, 38, 24, 19]
43.269[20, 23, 25, 32, 36, 47, 25, 21]
43.291[21, 23, 27, 31, 39, 49, 25, 19]
43.308[20, 21, 25, 28, 39, 50, 25, 20]
43.329[19, 20, 24, 26, 37, 49, 23, 19]
43.351[19, 19, 24, 27, 37, 50, 22, 20]
43.367[18, 18, 23, 23, 30, 40, 23, 21]
43.389[18, 19, 20, 25, 28, 39, 22, 22]
43.411[18, 22, 19, 23, 26, 40, 22, 22]
43.428[18, 22, 20, 24, 26, 41, 24, 21]
43.449[19, 21, 20, 23, 29, 36, 26, 21]
43.471[20, 23, 21, 23, 29, 34, 24, 21]
43.495[20, 23, 22, 22, 29, 40, 25, 22]
43.509[23, 22, 22, 22, 29, 38, 24, 24]
43.531[21, 22, 21, 22, 30, 36, 23, 24]
43.548[22, 22, 23, 24, 30, 37, 21, 26]
43.569[21, 20, 22, 24, 29, 37, 19, 24]
43.591[20, 18, 22, 26, 32, 35, 22, 24]
43.607[16, 19, 21, 27, 32, 37, 22, 22]
43.629[16, 20, 22, 27, 33, 40, 22, 22]
43.651[15, 22, 22, 26, 32, 41, 22, 19]
43.668[15, 21, 23, 26, 30, 41, 22, 19]
43.689[16, 22, 22, 24, 27, 32, 19, 19]
43.719[20, 22, 22, 23, 28, 29, 20, 19]
43.727[20, 21, 20, 23, 27, 27, 19, 21]
43.749[19, 21, 20, 26, 27, 36, 19, 22]
43.771[21, 22, 19, 27, 34, 41, 20, 26]
43.787[22, 21, 21, 28, 33, 42, 20, 27]
43.81[20, 20, 22, 28, 33, 43, 19, 27]
43.831[22, 21, 23, 27, 32, 48, 25, 31]
43.848[22, 20, 22, 25, 31, 43, 25, 30]
43.869[20, 19, 23, 25, 27, 39, 27, 26]
43.892[18, 19, 23, 24, 29, 41, 28, 24]
43.907[18, 21, 24, 23, 30, 42, 29, 25]
43.929[18, 20, 23, 24, 30, 35, 23, 18]
43.951[18, 21, 22, 22, 30, 34, 23, 20]
43.968[19, 22, 22, 23, 29, 37, 20, 23]
43.989[21, 24, 21, 23, 27, 37, 20, 22]
44.011[21, 23, 21, 27, 26, 38, 18, 21]
44.028[22, 24, 22, 26, 27, 39, 23, 23]
44.049[21, 23, 23, 30, 26, 38, 24, 22]
44.071[20, 24, 22, 28, 30, 34, 25, 20]
44.086[19, 22, 23, 29, 31, 31, 23, 19]
44.109[20, 24, 24, 27, 31, 31, 24, 21]
44.131[18, 23, 22, 28, 30, 32, 20, 19]
44.146[17, 24, 22, 25, 29, 32, 19, 23]
44.169[19, 23, 23, 25, 25, 31, 19, 24]
44.191[21, 22, 22, 25, 23, 32, 21, 24]
44.206[18, 22, 25, 23, 24, 31, 24, 24]
44.229[20, 23, 24, 24, 32, 32, 23, 24]
44.251[20, 23, 22, 24, 40, 34, 24, 22]
44.266[21, 23, 26, 28, 44, 37, 25, 22]
44.289[20, 24, 27, 26, 44, 37, 25, 22]
44.311[20, 24, 26, 27, 44, 36, 26, 26]
44.326[20, 25, 27, 26, 41, 32, 26, 27]
44.349[23, 24, 27, 29, 36, 31, 29, 27]
44.371[23, 22, 26, 27, 34, 29, 27, 27]
44.386[22, 23, 26, 30, 36, 34, 28, 27]
44.417[22, 20, 25, 31, 37, 34, 24, 22]
44.431[21, 21, 26, 32, 34, 35, 23, 21]
44.454[19, 21, 27, 29, 34, 33, 21, 21]
44.469[17, 23, 26, 29, 31, 33, 21, 19]
44.491[20, 23, 26, 25, 27, 30, 20, 23]
44.514[21, 23, 25, 25, 25, 35, 20, 24]
44.529[23, 22, 23, 23, 27, 37, 22, 24]
44.551[22, 22, 23, 25, 26, 37, 21, 25]
44.574[24, 21, 22, 23, 27, 37, 26, 28]
44.589[22, 22, 22, 25, 27, 38, 25, 26]
44.611[22, 24, 23, 24, 27, 40, 28, 25]
44.634[21, 23, 24, 25, 25, 38, 27, 24]
44.656[21, 23, 23, 24, 26, 38, 27, 24]
44.671[19, 23, 22, 25, 25, 38, 21, 21]
44.694[20, 20, 23, 26, 26, 40, 24, 22]
44.709[21, 19, 22, 26, 26, 36, 20, 22]
44.731[22, 20, 21, 26, 25, 35, 20, 23]
44.754[23, 19, 23, 28, 23, 34, 20, 22]
44.769[23, 20, 25, 28, 27, 36, 20, 23]
44.791[24, 21, 24, 29, 29, 34, 25, 28]
44.814[24, 22, 23, 29, 32, 34, 27, 28]
44.83[25, 21, 23, 29, 32, 37, 27, 29]
44.851[24, 20, 24, 27, 34, 36, 28, 28]
44.874[23, 21, 21, 25, 32, 33, 28, 27]
44.889[20, 20, 23, 21, 29, 30, 22, 22]
44.912[19, 21, 23, 23, 30, 37, 21, 23]
44.934[18, 21, 22, 22, 30, 36, 21, 24]
44.949[18, 22, 21, 22, 30, 37, 23, 26]
44.971[19, 20, 23, 25, 31, 38, 28, 28]
44.994[20, 20, 20, 25, 29, 39, 27, 27]
45.009[19, 21, 21, 22, 27, 31, 26, 24]
45.031[21, 21, 24, 26, 30, 30, 26, 24]
45.054[20, 21, 27, 26, 29, 40, 26, 23]
45.069[19, 21, 28, 26, 28, 45, 24, 22]
45.091[20, 23, 28, 27, 29, 46, 25, 24]
45.114[20, 24, 28, 28, 27, 49, 25, 24]
45.129[19, 22, 27, 29, 24, 49, 32, 28]
45.151[21, 22, 25, 28, 25, 45, 32, 28]
45.174[22, 23, 23, 28, 27, 41, 29, 26]
45.197[19, 21, 23, 28, 28, 39, 28, 25]
45.211[20, 20, 24, 26, 31, 38, 30, 29]
45.234[19, 22, 21, 26, 33, 38, 26, 22]
45.249[19, 22, 22, 26, 33, 34, 24, 23]
45.271[18, 22, 23, 24, 34, 34, 24, 24]
45.302[21, 24, 21, 24, 33, 35, 30, 30]
45.309[20, 23, 21, 29, 35, 45, 29, 27]
45.331[20, 24, 23, 27, 32, 44, 29, 28]
45.354[19, 26, 23, 26, 32, 45, 31, 30]
45.376[21, 25, 22, 28, 31, 46, 30, 29]
45.391[19, 25, 25, 27, 31, 46, 27, 22]
45.414[20, 25, 25, 24, 29, 33, 27, 22]
45.437[20, 24, 24, 24, 29, 33, 26, 20]
45.451[24, 21, 25, 24, 28, 36, 26, 18]
45.474[22, 23, 26, 26, 26, 36, 25, 20]
45.496[23, 22, 24, 27, 26, 34, 23, 20]
45.511[23, 22, 23, 27, 24, 44, 23, 20]
45.534[23, 22, 25, 26, 26, 46, 24, 22]
45.556[19, 24, 24, 27, 25, 42, 27, 26]
45.571[20, 22, 24, 23, 24, 40, 27, 25]
45.594[18, 22, 25, 23, 25, 40, 27, 25]
45.616[17, 23, 25, 22, 27, 34, 29, 27]
45.631[19, 27, 25, 23, 27, 34, 30, 27]
45.654[19, 26, 23, 22, 27, 32, 27, 23]
45.676[18, 26, 24, 22, 29, 33, 26, 24]
45.691[19, 25, 26, 21, 26, 32, 26, 23]
45.714[20, 24, 26, 21, 23, 28, 23, 21]
45.736[18, 21, 26, 21, 24, 23, 20, 20]
45.751[20, 22, 27, 24, 26, 25, 19, 19]
45.774[21, 23, 25, 24, 24, 22, 21, 20]
45.796[24, 23, 22, 24, 26, 26, 29, 28]
45.811[24, 22, 23, 23, 27, 25, 29, 28]
45.834[25, 23, 23, 24, 27, 30, 29, 29]
45.856[24, 23, 23, 23, 27, 31, 29, 31]
45.871[24, 25, 24, 27, 29, 37, 29, 30]
45.894[21, 25, 25, 27, 28, 37, 22, 22]
45.917[20, 25, 24, 30, 37, 42, 24, 20]
45.932[20, 24, 23, 31, 39, 41, 25, 21]
45.954[20, 22, 22, 29, 40, 40, 24, 19]
45.977[19, 20, 21, 28, 40, 37, 23, 19]
45.991[20, 20, 20, 27, 41, 34, 23, 21]
46.013[20, 22, 20, 25, 33, 31, 21, 21]
46.037[20, 22, 20, 24, 31, 31, 20, 21]
46.051[21, 22, 21, 25, 31, 34, 21, 20]
46.073[21, 22, 22, 23, 27, 33, 20, 21]
46.097[19, 22, 24, 26, 28, 35, 19, 20]
46.111[17, 19, 24, 24, 27, 32, 21, 22]
46.133[17, 22, 25, 24, 26, 32, 21, 23]
46.157[17, 20, 25, 22, 27, 28, 22, 23]
46.171[17, 23, 27, 22, 28, 33, 21, 23]
46.193[17, 23, 26, 21, 27, 31, 27, 28]
46.217[19, 24, 27, 24, 28, 36, 27, 27]
46.231[18, 22, 24, 22, 28, 39, 28, 25]
46.253[19, 23, 25, 23, 25, 41, 28, 26]
46.277[18, 21, 24, 26, 26, 37, 29, 27]
46.291[19, 22, 23, 28, 29, 45, 24, 21]
46.314[19, 20, 21, 27, 30, 44, 25, 21]
46.337[19, 19, 23, 29, 32, 41, 23, 22]
46.359[19, 20, 23, 29, 32, 39, 23, 22]
46.374[19, 19, 21, 26, 30, 39, 22, 20]
46.397[20, 20, 23, 25, 28, 30, 22, 20]
46.419[19, 21, 24, 24, 27, 28, 21, 20]
46.434[21, 21, 24, 23, 26, 28, 22, 20]
46.457[21, 21, 23, 21, 26, 28, 22, 18]
46.479[20, 21, 23, 23, 26, 27, 28, 23]
46.494[20, 20, 22, 21, 26, 27, 28, 22]
46.517[19, 19, 21, 25, 28, 36, 30, 23]
46.539[17, 21, 21, 27, 29, 39, 32, 27]
46.553[18, 22, 20, 27, 30, 45, 30, 27]
46.577[19, 22, 22, 27, 30, 46, 24, 24]
46.599[18, 21, 21, 28, 30, 45, 24, 25]
46.614[19, 23, 24, 26, 30, 39, 22, 24]
46.637[20, 22, 24, 24, 30, 40, 17, 20]
46.66[20, 21, 25, 25, 29, 35, 19, 20]
46.674[19, 22, 23, 25, 30, 34, 22, 23]
46.697[20, 22, 24, 22, 29, 32, 23, 23]
46.719[21, 21, 22, 24, 26, 33, 22, 24]
46.734[19, 21, 22, 24, 29, 31, 23, 23]
46.757[19, 21, 22, 25, 30, 32, 22, 23]
46.779[21, 21, 22, 25, 31, 32, 22, 20]
46.794[19, 20, 22, 26, 30, 33, 20, 22]
46.817[18, 20, 22, 24, 30, 32, 21, 21]
46.839[18, 21, 21, 25, 27, 33, 20, 22]
46.854[17, 20, 20, 25, 28, 30, 19, 23]
46.877[16, 21, 21, 27, 28, 32, 21, 23]
46.899[19, 21, 21, 28, 30, 32, 21, 22]
46.914[18, 23, 24, 27, 29, 32, 22, 22]
46.937[20, 24, 23, 27, 28, 29, 24, 21]
46.959[20, 24, 25, 26, 30, 29, 25, 19]
46.974[19, 22, 24, 25, 26, 27, 23, 18]
47.004[19, 23, 23, 25, 26, 27, 23, 16]
47.019[21, 24, 21, 25, 26, 24, 20, 13]
47.033[19, 22, 23, 25, 29, 29, 20, 19]
47.057[20, 22, 22, 24, 28, 30, 20, 21]
47.079[22, 24, 24, 23, 28, 30, 21, 22]
47.109[21, 24, 24, 24, 29, 30, 23, 22]
47.117[20, 22, 22, 23, 29, 35, 23, 24]
47.139[20, 24, 22, 27, 29, 31, 23, 20]
47.154[19, 24, 23, 29, 31, 34, 23, 19]
47.177[17, 23, 22, 30, 33, 36, 24, 18]
47.2[17, 22, 22, 28, 33, 36, 23, 18]
47.214[19, 22, 23, 29, 32, 31, 23, 18]
47.244[20, 19, 24, 23, 30, 34, 20, 19]
47.26[20, 20, 25, 24, 26, 33, 23, 17]
47.282[20, 20, 24, 26, 24, 34, 20, 17]
47.297[21, 20, 23, 26, 22, 35, 21, 18]
47.319[19, 19, 24, 26, 23, 35, 22, 18]
47.342[20, 20, 22, 27, 24, 36, 24, 18]
47.357[22, 20, 22, 28, 26, 38, 22, 20]
47.379[21, 20, 22, 26, 30, 39, 22, 22]
47.402[22, 20, 22, 29, 30, 39, 23, 22]
47.417[21, 22, 22, 28, 29, 39, 21, 22]
47.439[20, 21, 23, 27, 28, 34, 19, 22]
47.462[20, 20, 23, 26, 28, 46, 17, 20]
47.477[20, 22, 23, 26, 24, 45, 14, 18]
47.499[19, 23, 24, 24, 25, 48, 15, 18]
47.522[20, 22, 24, 25, 24, 48, 16, 18]
47.537[19, 23, 24, 25, 25, 49, 21, 20]
47.559[20, 23, 24, 23, 28, 39, 21, 20]
47.582[20, 24, 27, 23, 27, 40, 24, 21]
47.597[19, 23, 27, 22, 29, 37, 24, 22]
47.619[20, 22, 27, 21, 30, 36, 24, 22]
47.642[21, 22, 27, 21, 30, 36, 21, 20]
47.664[19, 23, 27, 21, 30, 37, 22, 20]
47.679[20, 21, 26, 23, 30, 41, 20, 20]
47.702[21, 21, 24, 25, 28, 40, 20, 19]
47.717[20, 23, 24, 26, 28, 41, 20, 19]
47.739[21, 21, 25, 27, 29, 40, 21, 20]
47.762[20, 21, 22, 29, 26, 39, 21, 19]
47.776[21, 21, 23, 28, 33, 42, 23, 20]
47.799[21, 22, 25, 26, 34, 41, 25, 19]
47.822[21, 21, 23, 26, 34, 41, 25, 18]
47.836[21, 25, 24, 25, 32, 41, 24, 17]
47.86[22, 25, 27, 25, 31, 39, 27, 20]
47.882[20, 25, 26, 27, 27, 39, 27, 20]
47.896[21, 23, 25, 26, 27, 49, 25, 20]
47.919[21, 24, 26, 25, 28, 51, 27, 22]
47.942[19, 22, 25, 26, 28, 51, 28, 22]
47.956[21, 22, 24, 23, 29, 49, 25, 21]
47.979[22, 21, 24, 20, 26, 46, 24, 21]
48.002[45, 21, 26, 20, 24, 38, 24, 33]
48.016[47, 22, 29, 20, 24, 35, 23, 32]
48.039[47, 20, 29, 21, 25, 36, 21, 33]
48.062[48, 21, 28, 22, 24, 36, 20, 34]
48.076[47, 21, 28, 23, 24, 32, 19, 33]
48.099[27, 23, 27, 25, 26, 32, 20, 22]
48.122[22, 23, 25, 25, 25, 31, 19, 23]
48.136[23, 25, 27, 26, 26, 34, 20, 22]
48.159[20, 23, 29, 25, 25, 37, 20, 19]
48.182[20, 23, 28, 26, 25, 37, 19, 19]
48.204[19, 21, 26, 24, 23, 35, 21, 19]
48.219[19, 21, 26, 26, 28, 41, 22, 19]
48.241[17, 18, 23, 27, 30, 39, 21, 18]
48.264[18, 21, 21, 27, 30, 40, 23, 23]
48.28[18, 21, 20, 25, 29, 39, 25, 23]
48.301[19, 19, 20, 25, 28, 38, 23, 23]
48.324[18, 19, 20, 28, 26, 33, 24, 23]
48.34[21, 19, 22, 27, 26, 33, 24, 24]
48.361[19, 16, 22, 30, 31, 34, 25, 19]
48.391[19, 16, 22, 31, 33, 35, 23, 19]
48.4[17, 20, 23, 32, 36, 34, 24, 18]
48.421[19, 19, 22, 28, 33, 36, 23, 17]
48.444[16, 21, 20, 26, 32, 42, 23, 17]
48.46[20, 21, 18, 23, 29, 38, 20, 17]
48.481[20, 23, 19, 21, 27, 38, 20, 19]
48.503[23, 19, 20, 21, 24, 39, 20, 20]
48.52[23, 21, 21, 22, 24, 41, 18, 21]
48.541[23, 21, 22, 23, 22, 36, 22, 21]
48.563[21, 20, 24, 24, 23, 35, 22, 23]
48.58[22, 18, 25, 25, 24, 34, 20, 24]
48.609[19, 19, 24, 25, 24, 33, 22, 23]
48.623[17, 17, 22, 23, 24, 27, 23, 24]
48.646[17, 17, 21, 22, 25, 28, 20, 24]
48.661[17, 18, 20, 24, 24, 29, 20, 21]
48.683[17, 20, 19, 25, 23, 32, 21, 20]
48.7[20, 19, 19, 28, 28, 37, 22, 19]
48.721[20, 20, 22, 27, 29, 39, 20, 18]
48.743[20, 20, 23, 28, 28, 36, 20, 18]
48.76[20, 22, 24, 25, 29, 37, 21, 19]
48.781[21, 21, 25, 24, 29, 37, 21, 18]
48.804[20, 23, 25, 25, 25, 36, 17, 19]
48.82[20, 24, 24, 25, 24, 37, 21, 19]
48.843[21, 24, 24, 27, 24, 39, 21, 20]
48.863[20, 22, 22, 26, 23, 39, 22, 22]
48.88[19, 22, 20, 26, 22, 39, 25, 21]
48.901[18, 23, 20, 25, 23, 36, 26, 20]
48.923[19, 23, 19, 25, 24, 34, 25, 22]
48.94[17, 22, 21, 25, 26, 33, 26, 21]
48.962[20, 22, 23, 25, 26, 36, 27, 20]
48.991[20, 23, 24, 25, 28, 32, 24, 21]
49.0[21, 21, 24, 23, 26, 32, 23, 24]
49.021[21, 21, 25, 23, 27, 32, 21, 22]
49.045[23, 22, 24, 24, 28, 33, 20, 21]
49.06[21, 22, 24, 28, 33, 33, 16, 21]
49.081[20, 20, 23, 28, 32, 35, 18, 20]
49.104[20, 21, 23, 31, 32, 36, 17, 18]
49.12[19, 22, 22, 30, 32, 36, 18, 16]
49.149[18, 22, 23, 31, 31, 41, 23, 20]
49.163[18, 22, 24, 26, 26, 44, 24, 22]
49.186[21, 23, 25, 28, 29, 46, 24, 21]
49.201[20, 23, 25, 27, 28, 47, 25, 24]
49.225[22, 22, 25, 28, 29, 47, 25, 24]
49.254[21, 21, 26, 26, 27, 42, 20, 21]
49.261[23, 22, 24, 28, 28, 34, 21, 19]
49.291[23, 22, 24, 29, 26, 33, 21, 20]
49.306[23, 20, 24, 28, 27, 33, 20, 18]
49.321[22, 20, 24, 28, 27, 32, 19, 17]
49.343[24, 20, 21, 27, 27, 32, 20, 19]
49.366[22, 20, 21, 27, 28, 31, 19, 20]
49.381[20, 21, 18, 25, 30, 28, 19, 20]
49.404[19, 21, 19, 26, 28, 26, 20, 21]
49.426[19, 20, 20, 27, 27, 27, 21, 22]
49.441[18, 20, 19, 27, 27, 37, 21, 20]
49.463[18, 19, 24, 25, 26, 41, 22, 19]
49.486[18, 21, 24, 26, 23, 42, 21, 19]
49.51[19, 22, 25, 25, 23, 43, 21, 19]
49.524[20, 22, 26, 23, 26, 46, 21, 18]
49.546[19, 22, 25, 25, 24, 40, 18, 20]
49.561[19, 21, 23, 25, 25, 38, 18, 20]
49.583[20, 19, 23, 24, 26, 37, 18, 20]
49.606[20, 18, 22, 24, 28, 37, 17, 18]
49.621[19, 18, 24, 24, 26, 33, 17, 17]
49.644[19, 21, 25, 25, 29, 32, 19, 16]
49.666[19, 20, 23, 26, 28, 35, 20, 19]
49.681[19, 20, 23, 26, 28, 37, 19, 19]
49.704[20, 20, 22, 27, 27, 37, 22, 19]
49.726[19, 21, 20, 28, 27, 38, 20, 20]
49.742[21, 21, 21, 25, 26, 36, 19, 21]
49.764[21, 23, 22, 24, 26, 40, 19, 19]
49.786[21, 23, 24, 22, 25, 38, 19, 22]
49.801[19, 23, 25, 22, 25, 36, 19, 22]
49.824[20, 21, 28, 20, 24, 36, 21, 23]
49.846[18, 23, 27, 23, 25, 40, 20, 20]
49.861[19, 22, 28, 26, 29, 38, 19, 19]
49.883[19, 23, 28, 27, 27, 37, 20, 17]
49.906[20, 23, 27, 26, 27, 37, 20, 17]
49.921[20, 24, 25, 27, 28, 34, 21, 16]
49.944[21, 21, 26, 28, 27, 32, 22, 18]
49.966[21, 20, 24, 29, 24, 27, 22, 19]
49.981[22, 21, 23, 28, 25, 27, 22, 19]
50.003[22, 22, 23, 29, 26, 27, 22, 19]
50.026[23, 23, 24, 27, 28, 36, 23, 21]
50.041[23, 25, 22, 27, 25, 34, 22, 19]
50.063[22, 25, 23, 25, 27, 36, 27, 19]
50.086[21, 25, 22, 26, 30, 38, 28, 19]
50.109[21, 26, 23, 27, 31, 39, 27, 19]
50.124[19, 25, 22, 27, 32, 33, 25, 18]
50.146[21, 25, 23, 24, 33, 31, 27, 17]
50.169[23, 24, 22, 25, 33, 28, 23, 18]
50.184[23, 23, 24, 25, 30, 26, 22, 17]
50.206[23, 20, 22, 24, 27, 27, 22, 19]
50.229[23, 21, 23, 25, 27, 27, 25, 20]
50.243[22, 19, 21, 26, 28, 30, 24, 21]
50.266[20, 19, 23, 23, 25, 32, 23, 19]
50.288[21, 19, 20, 25, 29, 31, 23, 22]
50.304[21, 21, 22, 25, 30, 30, 24, 21]
50.326[21, 19, 22, 25, 31, 35, 22, 20]
50.348[19, 18, 23, 28, 31, 35, 23, 22]
50.363[19, 22, 22, 29, 32, 38, 22, 22]
50.386[19, 24, 22, 28, 30, 41, 22, 21]
50.408[19, 24, 21, 28, 31, 42, 21, 21]
50.423[20, 24, 21, 28, 32, 40, 20, 20]
50.446[22, 24, 19, 25, 33, 38, 19, 17]
50.468[20, 23, 23, 28, 33, 34, 19, 18]
50.483[19, 21, 22, 27, 31, 33, 18, 17]
50.506[20, 24, 25, 31, 33, 35, 20, 18]
50.528[19, 22, 27, 31, 29, 34, 20, 19]
50.543[19, 24, 26, 30, 27, 34, 19, 19]
50.566[20, 24, 24, 29, 26, 34, 21, 20]
50.588[21, 25, 26, 28, 27, 32, 22, 22]
50.603[21, 22, 23, 24, 26, 33, 19, 19]
50.626
