[21, 22, 20, 26, 25, 25, 22, 40]
0.895[22, 22, 20, 25, 22, 25, 19, 24]
0.919[22, 23, 21, 23, 22, 24, 21, 22]
0.939[21, 21, 21, 22, 23, 24, 19, 21]
0.956[17, 21, 22, 23, 22, 22, 18, 19]
0.978[18, 19, 23, 21, 19, 20, 23, 19]
0.999[20, 20, 23, 22, 20, 22, 25, 18]
1.022[19, 19, 23, 21, 18, 24, 25, 17]
1.038[20, 18, 24, 19, 17, 24, 25, 17]
1.059[19, 19, 23, 20, 17, 25, 25, 18]
1.082[19, 19, 21, 20, 20, 27, 23, 19]
1.098[18, 18, 22, 20, 20, 25, 24, 20]
1.119[19, 19, 21, 20, 23, 24, 22, 21]
1.142[20, 20, 20, 20, 22, 22, 22, 22]
1.158[21, 19, 18, 18, 23, 22, 24, 22]
1.179[22, 19, 22, 18, 22, 19, 24, 22]
1.202[22, 19, 20, 19, 22, 21, 23, 21]
1.218[21, 21, 19, 19, 21, 24, 24, 20]
1.239[22, 21, 21, 18, 23, 25, 25, 22]
1.262[23, 22, 24, 18, 21, 27, 23, 22]
1.278[24, 23, 22, 17, 21, 28, 25, 23]
1.299[22, 23, 22, 18, 21, 27, 22, 25]
1.323[22, 20, 23, 18, 22, 26, 22, 25]
1.338[22, 20, 23, 19, 22, 24, 21, 25]
1.359[21, 20, 21, 22, 24, 23, 22, 24]
1.382[19, 20, 20, 23, 23, 22, 21, 22]
1.398[21, 21, 22, 22, 22, 23, 24, 19]
1.42[19, 23, 20, 23, 22, 22, 26, 22]
1.442[19, 22, 19, 23, 21, 22, 27, 21]
1.458[19, 22, 20, 21, 17, 22, 27, 22]
1.479[17, 22, 19, 21, 19, 23, 30, 21]
1.502[16, 24, 20, 21, 19, 22, 27, 22]
1.518[18, 25, 22, 21, 19, 24, 27, 21]
1.547[17, 25, 23, 21, 19, 26, 27, 21]
1.571[16, 24, 22, 21, 21, 24, 28, 19]
1.578[19, 23, 23, 23, 20, 22, 24, 20]
1.599[19, 25, 21, 21, 20, 24, 24, 19]
1.63[20, 22, 20, 21, 21, 22, 21, 17]
1.646[21, 22, 20, 22, 22, 19, 23, 17]
1.659[23, 23, 21, 21, 20, 21, 20, 20]
1.682[22, 23, 23, 21, 21, 21, 20, 19]
1.699[21, 19, 24, 21, 22, 23, 20, 19]
1.719[21, 19, 25, 20, 19, 23, 20, 19]
1.742[23, 20, 25, 22, 20, 25, 18, 22]
1.758[21, 20, 24, 21, 20, 25, 17, 20]
1.779[21, 21, 23, 20, 20, 26, 19, 23]
1.802[22, 21, 22, 22, 22, 24, 19, 25]
1.824[22, 20, 20, 22, 23, 24, 21, 26]
1.855[19, 21, 23, 19, 22, 24, 20, 23]
1.862[17, 19, 23, 19, 22, 23, 22, 23]
1.884[19, 19, 21, 20, 22, 22, 21, 20]
1.907[20, 21, 22, 18, 20, 22, 22, 19]
1.922[26, 21, 22, 18, 21, 24, 20, 20]
1.948[26, 21, 21, 19, 23, 23, 21, 19]
1.967[27, 22, 21, 18, 24, 27, 19, 19]
1.982[26, 23, 21, 17, 23, 26, 20, 20]
2.004[26, 22, 22, 19, 23, 25, 18, 20]
2.027[21, 24, 25, 20, 23, 24, 19, 22]
2.044[22, 23, 24, 19, 21, 23, 22, 22]
2.064[26, 23, 24, 19, 21, 18, 21, 22]
2.087[26, 25, 25, 20, 21, 19, 23, 23]
2.102[26, 25, 23, 20, 21, 20, 22, 22]
2.125[27, 24, 21, 19, 20, 18, 25, 22]
2.147[25, 24, 19, 21, 20, 18, 23, 23]
2.162[23, 25, 21, 21, 21, 19, 23, 22]
2.185[22, 24, 19, 22, 20, 19, 23, 20]
2.208[21, 23, 25, 21, 22, 21, 24, 20]
2.222[19, 22, 24, 20, 22, 21, 23, 21]
2.244[19, 23, 25, 20, 22, 21, 22, 21]
2.267[18, 22, 24, 19, 21, 22, 23, 22]
2.282[23, 20, 25, 21, 21, 21, 20, 24]
2.304[22, 19, 21, 22, 19, 21, 21, 23]
2.327[23, 21, 21, 22, 18, 21, 20, 23]
2.342[23, 23, 21, 20, 18, 23, 21, 24]
2.364[24, 21, 19, 21, 18, 22, 23, 22]
2.387[19, 22, 19, 18, 19, 22, 24, 21]
2.403[21, 21, 20, 21, 20, 21, 23, 21]
2.424[21, 23, 22, 21, 20, 25, 24, 21]
2.447[20, 20, 22, 21, 22, 23, 24, 18]
2.462[20, 20, 23, 21, 23, 25, 20, 19]
2.484[19, 18, 23, 21, 22, 25, 21, 17]
2.507[20, 21, 22, 20, 22, 25, 22, 19]
2.53[20, 18, 24, 20, 23, 23, 21, 18]
2.545[21, 18, 23, 20, 20, 24, 21, 20]
2.567[25, 21, 23, 19, 20, 24, 22, 21]
2.59[25, 21, 25, 22, 20, 24, 20, 23]
2.604[23, 18, 26, 20, 21, 23, 19, 22]
2.627[24, 19, 23, 21, 21, 22, 19, 24]
2.65[25, 22, 22, 21, 20, 24, 18, 23]
2.672[24, 19, 22, 22, 20, 22, 17, 22]
2.687[23, 22, 22, 20, 21, 21, 17, 22]
2.71[22, 23, 20, 19, 20, 22, 17, 20]
2.724[23, 23, 21, 18, 22, 20, 15, 21]
2.747[21, 22, 25, 18, 22, 18, 20, 22]
2.77[21, 26, 23, 17, 21, 19, 20, 23]
2.784[21, 25, 23, 18, 23, 21, 23, 20]
2.807[21, 24, 23, 18, 24, 22, 22, 21]
2.831[22, 25, 24, 20, 23, 23, 23, 19]
2.844[24, 25, 21, 20, 24, 22, 20, 18]
2.867[22, 22, 21, 19, 27, 23, 20, 17]
2.891[21, 25, 23, 18, 24, 22, 20, 19]
2.904[25, 25, 22, 21, 26, 20, 19, 20]
2.927[23, 22, 21, 20, 25, 20, 20, 20]
2.95[21, 22, 22, 21, 26, 19, 20, 21]
2.964[22, 22, 24, 22, 23, 18, 21, 22]
2.987[23, 19, 22, 25, 25, 17, 20, 21]
3.01[22, 20, 21, 22, 23, 16, 21, 20]
3.024[23, 22, 23, 23, 24, 18, 23, 19]
3.047[23, 23, 24, 23, 22, 21, 23, 18]
3.07[25, 22, 22, 22, 23, 25, 22, 16]
3.084[24, 21, 23, 20, 21, 26, 22, 19]
3.107[24, 22, 24, 21, 20, 27, 22, 19]
3.131[24, 22, 22, 19, 20, 26, 19, 20]
3.144[22, 19, 21, 18, 20, 25, 18, 19]
3.168[20, 19, 22, 21, 20, 22, 18, 21]
3.19[22, 21, 20, 20, 21, 19, 18, 18]
3.204[19, 20, 19, 22, 21, 21, 18, 19]
3.228[18, 18, 22, 23, 19, 19, 17, 19]
3.25[24, 24, 22, 23, 20, 21, 18, 20]
3.264[25, 25, 22, 22, 19, 21, 20, 20]
3.287[26, 23, 22, 21, 19, 21, 20, 20]
3.31[29, 23, 24, 20, 20, 21, 21, 18]
3.324[29, 24, 23, 21, 21, 22, 21, 17]
3.356[25, 20, 22, 19, 19, 19, 21, 15]
3.371[23, 19, 22, 21, 20, 19, 23, 15]
3.384[23, 24, 21, 23, 21, 20, 22, 17]
3.408[19, 24, 21, 25, 19, 21, 22, 17]
3.43[24, 24, 19, 24, 20, 21, 22, 18]
3.445[24, 25, 17, 26, 23, 21, 23, 20]
3.467[25, 23, 19, 24, 25, 20, 23, 20]
3.498[23, 19, 19, 21, 22, 19, 24, 19]
3.513[26, 19, 16, 20, 24, 23, 23, 19]
3.527[25, 21, 17, 20, 23, 21, 25, 19]
3.55[25, 20, 18, 18, 21, 22, 25, 18]
3.573[27, 20, 18, 18, 18, 22, 22, 18]
3.596[28, 20, 18, 19, 18, 23, 21, 19]
3.611[25, 20, 21, 20, 17, 20, 22, 18]
3.633[22, 19, 21, 20, 19, 21, 20, 23]
3.648[23, 18, 22, 19, 20, 23, 19, 22]
3.67[21, 20, 24, 21, 20, 23, 21, 23]
3.693[19, 21, 24, 20, 21, 22, 22, 24]
3.708[21, 19, 23, 19, 21, 23, 21, 25]
3.73[21, 22, 23, 18, 21, 22, 20, 21]
3.753[22, 24, 26, 18, 25, 21, 20, 23]
3.768[22, 23, 25, 19, 25, 22, 18, 22]
3.791[23, 23, 25, 20, 23, 22, 18, 19]
3.813[22, 23, 25, 21, 25, 23, 20, 19]
3.828[21, 21, 25, 22, 23, 24, 20, 18]
3.85[19, 21, 21, 23, 19, 25, 23, 17]
3.873[21, 21, 20, 21, 19, 23, 22, 20]
3.888[20, 21, 21, 20, 19, 24, 22, 19]
3.91[22, 22, 21, 19, 19, 24, 22, 20]
3.932[25, 21, 21, 19, 20, 24, 23, 21]
3.955[24, 20, 21, 20, 20, 22, 20, 20]
3.97[24, 21, 21, 21, 20, 22, 23, 20]
3.993[24, 20, 23, 23, 21, 22, 25, 23]
4.007[25, 20, 21, 21, 21, 19, 23, 22]
4.03[23, 19, 22, 21, 19, 18, 21, 24]
4.053[23, 20, 24, 20, 20, 19, 23, 25]
4.067[22, 19, 22, 21, 21, 19, 20, 21]
4.09[22, 18, 20, 20, 20, 18, 17, 20]
4.113[21, 17, 21, 20, 18, 22, 19, 20]
4.128[23, 18, 21, 21, 22, 23, 20, 18]
4.151[24, 19, 19, 22, 22, 22, 19, 17]
4.173[22, 22, 22, 21, 22, 24, 20, 18]
4.187[22, 22, 22, 21, 23, 24, 21, 19]
4.211[21, 25, 21, 22, 25, 22, 22, 19]
4.233[20, 25, 22, 21, 21, 22, 20, 19]
4.247[21, 26, 23, 21, 20, 21, 21, 18]
4.27[23, 24, 20, 21, 19, 21, 22, 18]
4.293[23, 24, 20, 20, 19, 23, 22, 17]
4.307[22, 21, 21, 20, 19, 24, 20, 16]
4.33[24, 20, 19, 22, 19, 23, 22, 19]
4.353[21, 20, 18, 20, 21, 24, 22, 20]
4.367[21, 21, 18, 20, 22, 21, 22, 19]
4.398[20, 22, 20, 20, 21, 21, 23, 19]
4.42[19, 25, 20, 21, 22, 20, 22, 19]
4.435[21, 25, 22, 21, 24, 21, 20, 20]
4.45[21, 22, 22, 23, 23, 20, 19, 20]
4.473[20, 20, 23, 23, 21, 21, 19, 20]
4.495[22, 21, 21, 21, 21, 20, 19, 20]
4.511[23, 18, 23, 20, 21, 20, 19, 21]
4.533[20, 19, 22, 18, 20, 19, 19, 21]
4.555[21, 19, 25, 19, 22, 21, 17, 20]
4.571[20, 19, 25, 20, 23, 23, 19, 20]
4.593[18, 17, 24, 20, 25, 22, 17, 23]
4.615[20, 18, 24, 21, 24, 22, 18, 23]
4.63[20, 17, 25, 20, 23, 22, 20, 23]
4.653[22, 21, 21, 19, 25, 22, 21, 23]
4.675[22, 20, 20, 18, 23, 21, 18, 23]
4.698[21, 21, 20, 18, 22, 22, 20, 22]
4.713[20, 21, 17, 19, 26, 22, 18, 21]
4.736[23, 22, 17, 18, 26, 22, 19, 21]
4.751[20, 22, 18, 18, 23, 24, 21, 21]
4.773[23, 21, 19, 18, 25, 24, 21, 21]
4.795[23, 23, 20, 19, 24, 23, 21, 21]
4.81[24, 24, 20, 19, 20, 23, 21, 21]
4.833[21, 23, 22, 19, 21, 24, 19, 19]
4.855[24, 25, 22, 20, 21, 20, 19, 20]
4.871[20, 25, 23, 20, 19, 21, 25, 21]
4.893[21, 24, 24, 19, 18, 21, 27, 21]
4.915[21, 22, 24, 20, 20, 24, 30, 21]
4.93[21, 22, 22, 20, 19, 24, 30, 22]
4.953[22, 18, 23, 20, 19, 22, 29, 21]
4.976[24, 21, 21, 20, 19, 23, 24, 20]
4.997[23, 19, 20, 20, 20, 23, 20, 20]
5.014[25, 19, 19, 18, 20, 21, 17, 19]
5.035[27, 21, 20, 18, 20, 22, 17, 18]
5.057[23, 21, 20, 18, 20, 22, 18, 19]
5.08[22, 20, 19, 19, 21, 22, 19, 17]
5.094[22, 19, 20, 19, 22, 23, 18, 14]
5.117[19, 20, 21, 20, 22, 20, 22, 20]
5.134[16, 19, 19, 19, 22, 21, 22, 21]
5.155[18, 18, 19, 21, 21, 21, 25, 24]
5.171[17, 19, 20, 21, 20, 20, 25, 25]
5.194[18, 19, 19, 21, 19, 20, 26, 25]
5.215[21, 23, 18, 22, 18, 20, 22, 23]
5.231[22, 24, 20, 22, 21, 19, 21, 22]
5.254[23, 26, 19, 22, 23, 19, 19, 19]
5.276[24, 23, 19, 20, 22, 21, 18, 21]
5.291[23, 24, 20, 21, 22, 19, 22, 24]
5.314[20, 21, 20, 20, 22, 21, 22, 23]
5.335[20, 19, 20, 20, 21, 20, 25, 22]
5.357[20, 18, 21, 19, 21, 20, 27, 21]
5.38[20, 18, 24, 19, 21, 18, 25, 21]
5.395[21, 22, 23, 22, 22, 18, 23, 19]
5.417[25, 21, 25, 22, 22, 19, 24, 19]
5.434[25, 21, 27, 24, 21, 21, 22, 20]
5.456[22, 21, 26, 24, 22, 23, 20, 21]
5.477[20, 22, 23, 26, 21, 24, 23, 20]
5.492[20, 20, 24, 26, 21, 24, 24, 18]
5.515[19, 20, 22, 25, 21, 24, 22, 18]
5.537[17, 20, 18, 23, 22, 22, 24, 18]
5.552[18, 20, 19, 23, 21, 21, 24, 19]
5.575[19, 22, 21, 24, 20, 20, 23, 19]
5.597[19, 20, 21, 21, 20, 21, 21, 23]
5.612[18, 21, 21, 23, 20, 23, 22, 24]
5.635[21, 21, 22, 24, 21, 26, 21, 23]
5.657[20, 21, 21, 23, 20, 24, 21, 22]
5.673[21, 19, 21, 20, 20, 24, 20, 23]
5.695[23, 21, 25, 23, 19, 25, 21, 18]
5.717[21, 19, 24, 22, 19, 22, 23, 19]
5.732[18, 21, 25, 21, 19, 20, 22, 20]
5.755[19, 21, 24, 21, 21, 22, 23, 19]
5.777[19, 22, 22, 22, 20, 21, 23, 18]
5.792[19, 21, 19, 19, 21, 20, 22, 19]
5.815[20, 21, 20, 20, 22, 20, 20, 18]
5.837[21, 21, 19, 23, 20, 19, 19, 19]
5.852[25, 22, 20, 23, 20, 18, 17, 19]
5.875[24, 19, 20, 23, 22, 19, 17, 20]
5.897[23, 21, 19, 23, 22, 18, 16, 21]
5.912[24, 21, 21, 23, 19, 17, 16, 20]
5.935[23, 23, 20, 19, 22, 19, 17, 20]
5.957[19, 23, 20, 21, 21, 19, 18, 20]
5.972[20, 23, 21, 21, 22, 20, 18, 20]
5.995[20, 23, 24, 21, 21, 21, 19, 19]
6.018[19, 23, 21, 21, 21, 21, 19, 20]
6.032[22, 21, 21, 22, 21, 21, 18, 20]
6.055[22, 23, 22, 20, 19, 21, 19, 21]
6.078[20, 23, 23, 21, 20, 19, 20, 21]
6.092[21, 25, 21, 21, 21, 18, 24, 22]
6.115[22, 24, 22, 20, 22, 19, 25, 22]
6.139[21, 24, 24, 19, 20, 17, 25, 22]
6.153[22, 23, 24, 19, 21, 17, 24, 21]
6.175[22, 23, 23, 19, 18, 17, 25, 21]
6.197[21, 21, 24, 20, 19, 18, 20, 22]
6.212[21, 22, 25, 19, 18, 17, 21, 24]
6.235[22, 22, 26, 20, 18, 20, 21, 22]
6.259[21, 21, 27, 22, 19, 20, 22, 21]
6.272[23, 21, 27, 24, 19, 20, 20, 21]
6.295[21, 21, 25, 22, 18, 20, 20, 19]
6.317[21, 22, 26, 22, 20, 20, 18, 19]
6.34[20, 22, 23, 21, 21, 20, 21, 20]
6.362[19, 23, 24, 20, 21, 19, 20, 21]
6.377[18, 22, 22, 19, 21, 20, 22, 21]
6.4[21, 22, 24, 19, 21, 19, 23, 22]
6.415[20, 21, 21, 22, 20, 18, 24, 21]
6.437[20, 18, 23, 23, 20, 18, 23, 24]
6.46[23, 19, 20, 22, 18, 18, 22, 25]
6.475[22, 20, 20, 22, 18, 19, 21, 25]
6.498[19, 21, 18, 23, 21, 19, 21, 24]
6.52[21, 22, 21, 23, 19, 20, 21, 24]
6.543[21, 25, 25, 24, 18, 18, 19, 21]
6.557[20, 25, 28, 24, 22, 19, 20, 21]
6.58[21, 24, 28, 24, 21, 20, 19, 20]
6.595[21, 22, 31, 23, 19, 20, 19, 21]
6.617[21, 23, 33, 20, 19, 21, 21, 20]
6.648[22, 21, 31, 18, 20, 22, 22, 20]
6.655[21, 20, 29, 20, 19, 23, 21, 19]
6.677[20, 20, 37, 16, 19, 22, 20, 20]
6.7[23, 22, 40, 20, 20, 23, 21, 20]
6.716[22, 19, 37, 21, 21, 22, 19, 19]
6.738[22, 20, 40, 25, 22, 25, 18, 18]
6.76[21, 22, 44, 24, 22, 25, 18, 18]
6.775[21, 23, 39, 26, 23, 24, 21, 20]
6.798[21, 20, 34, 24, 23, 25, 20, 19]
6.82[21, 22, 35, 24, 24, 26, 19, 20]
6.835[21, 24, 28, 20, 22, 25, 21, 21]
6.857[20, 22, 31, 20, 21, 24, 22, 20]
6.88[20, 22, 34, 19, 21, 24, 19, 19]
6.895[18, 21, 33, 19, 20, 23, 20, 20]
6.917[19, 21, 33, 20, 18, 23, 23, 20]
6.94[18, 20, 35, 21, 18, 24, 22, 19]
6.956[22, 21, 29, 21, 19, 22, 21, 20]
6.977[22, 20, 32, 21, 18, 22, 24, 20]
7.0[23, 21, 35, 22, 19, 23, 23, 19]
7.015[23, 21, 35, 22, 20, 21, 21, 20]
7.037[24, 19, 34, 22, 22, 21, 20, 21]
7.06[22, 18, 30, 23, 22, 21, 22, 20]
7.075[22, 21, 26, 22, 22, 22, 21, 22]
7.098[22, 20, 27, 20, 22, 23, 22, 22]
7.12[22, 21, 29, 20, 23, 22, 22, 21]
7.135[22, 24, 29, 19, 22, 21, 24, 21]
7.157[23, 23, 29, 19, 22, 21, 24, 20]
7.18[25, 22, 28, 20, 23, 20, 23, 20]
7.196[24, 22, 25, 21, 23, 17, 22, 18]
7.217[25, 23, 28, 20, 21, 19, 21, 18]
7.24[23, 21, 32, 20, 23, 21, 21, 18]
7.263[22, 25, 32, 20, 21, 21, 20, 20]
7.279[20, 24, 32, 19, 19, 23, 20, 19]
7.3[21, 25, 31, 20, 21, 23, 22, 21]
7.323[22, 24, 26, 20, 21, 22, 21, 21]
7.338[22, 23, 21, 21, 20, 21, 20, 20]
7.368[21, 20, 34, 22, 24, 21, 21, 19]
7.383[22, 21, 35, 21, 24, 18, 22, 21]
7.398[22, 19, 35, 21, 25, 20, 21, 20]
7.42[19, 22, 35, 22, 27, 19, 21, 19]
7.443[20, 21, 35, 22, 27, 23, 21, 20]
7.458[22, 23, 25, 20, 25, 23, 20, 20]
7.488[21, 21, 22, 21, 25, 24, 20, 19]
7.503[20, 23, 26, 21, 25, 22, 19, 19]
7.518[21, 20, 30, 21, 23, 23, 19, 20]
7.54[21, 22, 35, 22, 24, 19, 20, 19]
7.563[23, 21, 34, 23, 24, 20, 18, 20]
7.578[22, 23, 34, 24, 24, 18, 18, 20]
7.6[23, 22, 32, 23, 23, 18, 18, 20]
7.623[24, 23, 35, 24, 22, 17, 17, 19]
7.638[23, 21, 33, 21, 20, 17, 17, 19]
7.66[20, 21, 33, 21, 18, 19, 18, 20]
7.684[22, 20, 32, 19, 18, 18, 17, 19]
7.698[20, 21, 34, 18, 19, 20, 19, 20]
7.72[19, 21, 24, 19, 20, 21, 19, 21]
7.751[23, 21, 21, 19, 19, 22, 18, 20]
7.758[23, 23, 24, 20, 21, 20, 18, 21]
7.78[23, 22, 27, 21, 21, 23, 19, 20]
7.803[24, 21, 28, 21, 20, 21, 17, 19]
7.817[23, 21, 33, 20, 21, 22, 18, 19]
7.84[20, 22, 34, 20, 21, 22, 20, 20]
7.863[21, 20, 33, 18, 19, 24, 21, 18]
7.878[18, 21, 35, 21, 19, 22, 23, 19]
7.9[20, 23, 36, 21, 22, 23, 22, 20]
7.923[19, 22, 34, 22, 22, 23, 24, 20]
7.938[20, 25, 33, 23, 25, 22, 24, 20]
7.96[19, 25, 32, 23, 24, 23, 22, 21]
7.983[22, 26, 28, 20, 24, 23, 21, 20]
7.998[21, 26, 26, 22, 23, 23, 23, 19]
8.02[21, 26, 22, 21, 23, 22, 21, 18]
8.043[22, 23, 24, 19, 21, 23, 20, 19]
8.058[24, 22, 35, 20, 23, 22, 21, 17]
8.08[21, 23, 38, 20, 22, 22, 19, 20]
8.103[19, 23, 39, 20, 21, 21, 20, 19]
8.118[23, 21, 39, 23, 20, 23, 21, 20]
8.14[23, 23, 40, 23, 21, 22, 21, 19]
8.163[21, 23, 38, 23, 19, 21, 20, 20]
8.178[22, 21, 36, 22, 20, 23, 22, 19]
8.2[22, 20, 37, 21, 20, 24, 20, 19]
8.223[20, 21, 37, 19, 19, 21, 19, 20]
8.246[20, 21, 40, 19, 18, 22, 18, 22]
8.26[20, 22, 34, 20, 21, 22, 19, 20]
8.283[19, 21, 33, 22, 22, 19, 18, 21]
8.306[20, 21, 32, 22, 20, 19, 18, 22]
8.32[18, 20, 35, 22, 24, 19, 19, 20]
8.343[17, 18, 36, 23, 23, 20, 19, 20]
8.366[19, 18, 35, 22, 22, 20, 19, 23]
8.389[19, 19, 34, 20, 23, 20, 19, 22]
8.403[18, 18, 38, 20, 24, 21, 19, 21]
8.426[18, 19, 36, 19, 22, 22, 20, 23]
8.44[18, 22, 31, 18, 24, 21, 24, 22]
8.463[19, 21, 32, 19, 25, 22, 23, 20]
8.486[18, 22, 32, 18, 24, 22, 25, 20]
8.508[17, 23, 27, 21, 24, 23, 25, 20]
8.523[20, 22, 28, 20, 25, 21, 25, 18]
8.546[22, 22, 28, 21, 24, 22, 22, 20]
8.56[20, 22, 29, 21, 23, 22, 22, 21]
8.583[22, 21, 28, 22, 23, 21, 20, 20]
8.606[24, 21, 28, 21, 23, 20, 21, 20]
8.628[22, 22, 24, 22, 21, 19, 19, 20]
8.643[21, 21, 29, 22, 21, 18, 20, 22]
8.666[21, 22, 31, 23, 21, 18, 19, 22]
8.68[20, 22, 31, 23, 20, 19, 19, 21]
8.703[20, 23, 31, 21, 19, 20, 17, 22]
8.726[19, 22, 31, 22, 19, 21, 17, 23]
8.74[20, 23, 26, 19, 19, 20, 19, 19]
8.763[20, 21, 22, 20, 19, 22, 19, 20]
8.786[19, 21, 24, 20, 18, 22, 21, 20]
8.8[18, 20, 23, 20, 20, 21, 22, 20]
8.823[20, 20, 24, 21, 19, 24, 22, 19]
8.846[20, 19, 30, 22, 20, 24, 20, 20]
8.861[20, 19, 34, 20, 22, 22, 21, 18]
8.883[21, 20, 33, 22, 23, 22, 20, 20]
8.906[22, 19, 33, 22, 22, 22, 20, 21]
8.92[20, 20, 31, 21, 23, 22, 22, 20]
8.943[19, 19, 25, 21, 23, 21, 23, 21]
8.966[20, 19, 20, 21, 21, 20, 22, 22]
8.98[20, 21, 25, 18, 21, 19, 21, 19]
9.003[20, 21, 29, 20, 23, 19, 23, 19]
9.026[21, 23, 32, 23, 23, 17, 20, 21]
9.04[23, 23, 32, 22, 21, 16, 19, 21]
9.063[20, 24, 31, 23, 22, 16, 19, 19]
9.086[21, 23, 28, 24, 22, 16, 22, 20]
9.108[19, 24, 31, 23, 20, 19, 21, 19]
9.123[19, 21, 30, 20, 20, 20, 21, 18]
9.146[17, 22, 31, 21, 23, 21, 22, 16]
9.168[18, 20, 32, 20, 23, 21, 21, 19]
9.183[20, 20, 33, 21, 23, 23, 19, 21]
9.213[20, 19, 27, 23, 23, 20, 18, 21]
9.228[20, 23, 35, 24, 24, 20, 18, 20]
9.243[21, 22, 36, 23, 22, 22, 17, 22]
9.266[22, 24, 35, 22, 21, 21, 17, 20]
9.288[21, 24, 36, 21, 21, 19, 17, 17]
9.311[21, 26, 40, 18, 19, 21, 18, 18]
9.326[22, 23, 33, 18, 20, 21, 18, 18]
9.348[21, 23, 31, 18, 19, 20, 20, 18]
9.363[22, 21, 31, 17, 20, 23, 19, 19]
9.387[22, 20, 39, 16, 21, 24, 20, 18]
9.416[21, 20, 37, 18, 21, 22, 19, 18]
9.423[23, 20, 34, 18, 21, 23, 20, 18]
9.446[25, 21, 42, 20, 19, 24, 18, 18]
9.468[24, 22, 42, 21, 20, 22, 19, 18]
9.483[24, 22, 36, 21, 21, 23, 18, 18]
9.506[24, 20, 33, 20, 20, 24, 17, 21]
9.536[22, 21, 36, 19, 19, 24, 19, 23]
9.544[18, 22, 29, 17, 19, 22, 18, 22]
9.566[20, 22, 30, 17, 18, 21, 17, 23]
9.588[20, 21, 34, 18, 20, 21, 18, 23]
9.603[23, 24, 35, 20, 21, 20, 19, 22]
9.626[24, 24, 32, 21, 20, 17, 17, 21]
9.648[24, 23, 35, 22, 23, 19, 21, 22]
9.663[22, 21, 38, 24, 24, 21, 22, 22]
9.686[22, 23, 35, 25, 23, 21, 21, 21]
9.708[21, 19, 34, 24, 23, 24, 20, 21]
9.723[20, 21, 43, 23, 24, 24, 22, 21]
9.746[22, 20, 41, 24, 21, 25, 18, 21]
9.768[22, 21, 37, 22, 20, 23, 18, 22]
9.783[23, 22, 37, 21, 22, 23, 20, 24]
9.806[21, 23, 41, 19, 21, 21, 19, 22]
9.828[22, 22, 38, 21, 21, 21, 18, 22]
9.843[20, 23, 40, 21, 20, 18, 17, 22]
9.866[21, 24, 44, 20, 21, 20, 18, 25]
9.888[76, 33, 72, 23, 22, 30, 47, 112]
9.903[119, 46, 137, 34, 40, 198, 101, 292]
9.926[195, 84, 300, 86, 54, 272, 152, 459]
9.948[314, 146, 320, 96, 80, 392, 223, 541]
9.971[452, 180, 323, 106, 110, 588, 348, 655]
9.987[546, 184, 320, 108, 132, 694, 396, 700]
10.008[598, 190, 343, 113, 135, 691, 401, 778]
10.03[618, 198, 224, 90, 136, 683, 419, 729]
10.047[642, 173, 213, 88, 154, 819, 624, 781]
10.068[649, 168, 231, 99, 194, 860, 796, 784]
10.09[621, 180, 237, 104, 198, 883, 845, 743]
10.107[654, 183, 165, 99, 196, 900, 881, 748]
10.128[688, 165, 155, 97, 198, 918, 919, 818]
10.151[656, 163, 143, 98, 184, 798, 851, 793]
10.167[591, 152, 103, 79, 122, 619, 657, 790]
10.188[564, 136, 97, 73, 92, 462, 611, 840]
10.211[555, 214, 136, 82, 88, 411, 592, 812]
10.227[562, 239, 136, 84, 84, 453, 616, 721]
10.248[556, 239, 123, 76, 75, 414, 527, 703]
10.27[545, 231, 122, 74, 73, 428, 586, 697]
10.287[554, 241, 150, 71, 71, 447, 615, 730]
10.308[531, 177, 150, 59, 69, 448, 622, 666]
10.33[437, 143, 152, 46, 63, 379, 572, 681]
10.353[442, 132, 153, 42, 56, 342, 617, 662]
10.368[483, 144, 157, 52, 65, 365, 597, 601]
10.39[534, 138, 148, 59, 74, 383, 596, 569]
10.407[541, 131, 125, 62, 86, 408, 598, 604]
10.428[583, 126, 129, 64, 87, 397, 568, 641]
10.45[586, 150, 137, 69, 92, 456, 564, 635]
10.467[554, 148, 160, 71, 90, 454, 555, 637]
10.488[508, 146, 138, 66, 85, 444, 498, 604]
10.511[457, 146, 127, 66, 79, 470, 474, 601]
10.527[459, 155, 132, 70, 87, 518, 479, 551]
10.555[459, 142, 131, 69, 80, 461, 428, 535]
10.57[456, 135, 109, 59, 76, 451, 440, 603]
10.587[449, 138, 112, 65, 88, 506, 526, 624]
10.608[470, 136, 128, 65, 88, 485, 520, 633]
10.63[475, 142, 129, 57, 82, 437, 519, 689]
10.647[439, 140, 137, 54, 83, 458, 524, 711]
10.668[442, 146, 125, 60, 85, 461, 492, 648]
10.69[454, 145, 126, 61, 82, 432, 442, 625]
10.707[493, 154, 120, 61, 80, 433, 536, 652]
10.729[457, 139, 104, 61, 81, 469, 543, 592]
10.75[506, 137, 95, 72, 103, 583, 615, 732]
10.767[513, 124, 108, 73, 102, 577, 621, 727]
10.788[494, 119, 140, 66, 93, 550, 596, 759]
10.81[460, 106, 137, 64, 91, 521, 524, 730]
10.827[476, 107, 146, 69, 92, 502, 557, 761]
10.849[439, 104, 139, 55, 64, 353, 477, 616]
10.87[463, 112, 133, 46, 62, 361, 457, 649]
10.887[451, 111, 177, 57, 63, 374, 457, 596]
10.908[398, 112, 193, 58, 69, 389, 444, 597]
10.931[351, 116, 192, 57, 65, 366, 388, 542]
10.954[373, 111, 192, 57, 63, 352, 389, 531]
10.969[430, 133, 201, 64, 73, 451, 415, 507]
10.991[499, 160, 146, 63, 85, 471, 530, 492]
11.006[512, 155, 120, 62, 84, 460, 535, 411]
11.028[524, 155, 112, 57, 86, 479, 601, 457]
11.052[517, 171, 113, 66, 91, 504, 658, 511]
11.073[452, 150, 100, 63, 86, 415, 665, 493]
11.088[361, 120, 103, 56, 76, 382, 582, 568]
11.11[390, 123, 111, 56, 76, 395, 565, 595]
11.133[421, 122, 119, 61, 70, 343, 491, 614]
11.148[425, 144, 119, 57, 68, 328, 474, 577]
11.17[442, 148, 112, 55, 67, 315, 474, 603]
11.193[444, 149, 90, 53, 63, 286, 436, 572]
11.209[421, 154, 103, 55, 66, 300, 446, 617]
11.23[399, 159, 105, 55, 73, 344, 485, 618]
11.253[360, 127, 106, 52, 68, 336, 431, 622]
11.275[332, 135, 111, 59, 65, 340, 416, 575]
11.291[355, 140, 140, 64, 65, 368, 451, 538]
11.313[420, 143, 131, 66, 63, 369, 508, 478]
11.328[462, 153, 137, 62, 57, 341, 467, 523]
11.35[466, 158, 143, 61, 57, 325, 442, 508]
11.373[458, 152, 146, 55, 57, 322, 423, 563]
11.388[447, 141, 118, 49, 57, 311, 508, 570]
11.411[429, 136, 110, 44, 57, 291, 468, 653]
11.433[378, 139, 96, 45, 52, 286, 468, 652]
11.448[373, 140, 81, 46, 56, 297, 499, 683]
11.471[423, 135, 82, 43, 55, 340, 496, 714]
11.493[451, 137, 103, 49, 61, 353, 374, 715]
11.508[429, 131, 140, 53, 61, 369, 375, 633]
11.53[439, 107, 140, 53, 69, 377, 415, 568]
11.553[448, 118, 148, 54, 66, 362, 404, 522]
11.568[394, 123, 145, 55, 65, 312, 413, 404]
11.59[347, 127, 138, 50, 62, 333, 425, 399]
11.613[294, 130, 103, 46, 63, 324, 483, 469]
11.635[241, 148, 105, 46, 57, 304, 436, 451]
11.652[257, 148, 107, 44, 59, 318, 434, 460]
11.674[282, 145, 110, 48, 59, 317, 445, 498]
11.689[321, 143, 110, 53, 59, 295, 439, 482]
11.711[331, 144, 104, 53, 56, 268, 343, 435]
11.733[342, 119, 103, 50, 58, 301, 405, 423]
11.748[344, 112, 107, 55, 58, 335, 463, 448]
11.771[322, 124, 144, 57, 58, 326, 457, 460]
11.793[301, 150, 168, 56, 62, 309, 454, 549]
11.808[351, 157, 178, 58, 60, 295, 465, 571]
11.83[410, 161, 182, 67, 70, 337, 420, 599]
11.853[386, 159, 174, 63, 75, 313, 321, 562]
11.868[416, 149, 139, 58, 77, 328, 288, 545]
11.892[434, 140, 129, 53, 71, 319, 393, 473]
11.913[416, 141, 141, 51, 71, 323, 387, 450]
11.928[373, 140, 135, 43, 63, 294, 410, 467]
11.951[379, 133, 137, 39, 53, 275, 438, 458]
11.973[370, 131, 138, 43, 55, 283, 441, 505]
11.995[380, 108, 112, 45, 54, 307, 431, 551]
12.011[357, 104, 85, 45, 55, 326, 457, 521]
12.033[353, 108, 108, 52, 54, 301, 479, 560]
12.055[356, 106, 112, 54, 56, 304, 504, 600]
12.07[361, 108, 129, 59, 53, 295, 515, 579]
12.093[365, 120, 133, 66, 54, 252, 441, 646]
12.115[365, 110, 133, 66, 54, 241, 404, 682]
12.131[388, 109, 112, 60, 51, 239, 362, 611]
12.153[416, 114, 108, 63, 56, 262, 293, 626]
12.175[392, 116, 88, 58, 60, 308, 328, 646]
12.191[381, 121, 100, 52, 57, 316, 345, 562]
12.213[385, 145, 103, 50, 57, 325, 356, 523]
12.235[364, 149, 108, 50, 59, 331, 357, 533]
12.251[326, 152, 109, 49, 64, 425, 425, 529]
12.273[355, 149, 111, 49, 69, 440, 438, 487]
12.296[334, 137, 106, 44, 70, 443, 446, 461]
12.31[343, 113, 107, 45, 79, 466, 467, 481]
12.333[348, 106, 106, 42, 82, 478, 562, 512]
12.355[340, 106, 105, 46, 78, 376, 548, 502]
12.371[322, 104, 105, 45, 69, 314, 520, 478]
12.393[298, 105, 92, 47, 72, 351, 521, 472]
12.416[293, 104, 86, 48, 64, 335, 497, 495]
12.431[300, 120, 83, 56, 60, 329, 378, 477]
12.453[296, 106, 87, 54, 65, 391, 396, 453]
12.476[300, 109, 87, 58, 69, 392, 371, 468]
12.49[333, 115, 89, 57, 64, 350, 352, 450]
12.513[334, 111, 93, 57, 61, 325, 329, 464]
12.535[317, 97, 92, 54, 69, 350, 372, 511]
12.551[383, 134, 109, 52, 61, 316, 299, 483]
12.573[373, 144, 106, 45, 55, 317, 369, 490]
12.595[363, 135, 102, 44, 56, 321, 391, 485]
12.61[361, 136, 96, 45, 57, 319, 405, 412]
12.633[404, 137, 95, 38, 48, 310, 406, 400]
12.656[405, 114, 63, 36, 54, 328, 477, 422]
12.672[395, 104, 65, 42, 58, 342, 455, 407]
12.693[399, 111, 74, 43, 68, 434, 505, 460]
12.716[397, 124, 81, 44, 69, 445, 549, 479]
12.731[360, 117, 79, 46, 71, 446, 554, 465]
12.753[294, 104, 77, 44, 67, 424, 611, 547]
12.776[308, 107, 81, 43, 69, 436, 604, 555]
12.791[327, 109, 84, 46, 63, 375, 586, 538]
12.822[308, 101, 84, 45, 62, 361, 558, 590]
12.836[326, 112, 87, 47, 58, 334, 539, 562]
12.851[352, 115, 90, 48, 58, 348, 527, 559]
12.873[342, 115, 86, 46, 55, 323, 575, 593]
12.896[318, 118, 85, 46, 50, 300, 554, 583]
12.911[387, 114, 83, 48, 50, 300, 552, 571]
12.933[376, 105, 85, 49, 56, 324, 555, 611]
12.956[394, 114, 90, 51, 55, 302, 507, 540]
12.979[409, 123, 95, 52, 56, 334, 500, 489]
12.993[439, 118, 88, 55, 65, 334, 532, 501]
13.016[401, 118, 91, 57, 70, 343, 535, 477]
13.039[409, 141, 103, 58, 65, 324, 531, 410]
13.053[395, 136, 95, 57, 69, 341, 555, 486]
13.076[426, 120, 98, 54, 66, 337, 563, 548]
13.099[394, 120, 100, 48, 62, 343, 547, 563]
13.113[388, 119, 102, 42, 61, 354, 551, 542]
13.136[364, 96, 122, 51, 65, 348, 563, 605]
13.159[351, 98, 153, 53, 57, 321, 498, 640]
13.173[331, 106, 152, 55, 60, 294, 429, 615]
13.204[309, 113, 161, 60, 56, 258, 401, 588]
13.219[286, 123, 181, 65, 51, 223, 365, 621]
13.233[295, 126, 165, 57, 56, 264, 394, 646]
13.256[313, 129, 153, 53, 59, 289, 401, 580]
13.279[282, 130, 158, 55, 54, 279, 418, 574]
13.293[478, 133, 148, 58, 58, 309, 470, 628]
13.316[485, 125, 122, 54, 59, 312, 481, 594]
13.339[473, 120, 122, 58, 60, 317, 455, 599]
13.353[471, 126, 100, 59, 60, 292, 426, 593]
13.377[479, 129, 90, 63, 64, 302, 473, 682]
13.399[319, 120, 91, 56, 64, 315, 501, 651]
13.413[320, 124, 131, 59, 65, 326, 514, 635]
13.437[353, 123, 128, 56, 60, 327, 529, 605]
13.466[330, 111, 202, 64, 61, 369, 539, 598]
13.474[298, 101, 223, 64, 59, 366, 486, 470]
13.496[381, 104, 228, 63, 64, 389, 392, 540]
13.519[389, 100, 210, 62, 62, 393, 397, 550]
13.533[411, 120, 209, 65, 59, 344, 414, 577]
13.556[501, 118, 141, 55, 55, 298, 443, 623]
13.579[517, 119, 115, 48, 54, 297, 481, 631]
13.593[460, 133, 119, 56, 49, 224, 505, 604]
13.616[452, 140, 124, 53, 54, 247, 528, 638]
13.639[410, 123, 134, 49, 53, 260, 506, 586]
13.653[349, 125, 131, 57, 76, 377, 541, 580]
13.676[334, 143, 122, 62, 78, 380, 507, 650]
13.699[360, 126, 104, 55, 76, 379, 483, 604]
13.714[419, 121, 85, 56, 73, 357, 455, 571]
13.736[434, 127, 71, 61, 75, 363, 420, 603]
13.759[410, 135, 70, 50, 49, 257, 353, 615]
13.774[419, 122, 74, 49, 46, 263, 334, 553]
13.796[387, 125, 82, 49, 49, 282, 410, 594]
13.819[325, 122, 91, 50, 52, 300, 378, 586]
13.833[394, 120, 108, 43, 47, 322, 355, 544]
13.856[379, 115, 112, 44, 51, 311, 321, 486]
13.879[416, 105, 113, 47, 55, 324, 395, 522]
13.902[439, 99, 116, 48, 52, 306, 345, 550]
13.916[459, 119, 119, 51, 50, 289, 360, 558]
13.939[418, 127, 115, 60, 56, 266, 434, 564]
13.962[424, 133, 115, 63, 58, 311, 449, 594]
13.977[397, 145, 110, 59, 52, 287, 413, 592]
13.999[388, 155, 109, 62, 61, 342, 464, 559]
14.022[366, 145, 109, 57, 61, 343, 462, 551]
14.036[345, 144, 105, 53, 57, 346, 424, 579]
14.059[358, 135, 111, 55, 68, 378, 480, 627]
14.081[367, 129, 119, 55, 72, 400, 486, 589]
14.096[351, 125, 144, 54, 71, 391, 432, 557]
14.119[396, 123, 138, 52, 69, 391, 455, 566]
14.142[409, 116, 131, 49, 70, 394, 493, 581]
14.156[394, 115, 122, 42, 59, 341, 422, 457]
14.179[379, 103, 110, 39, 57, 317, 396, 500]
14.201[438, 100, 103, 36, 52, 288, 383, 597]
14.216[426, 102, 126, 38, 57, 331, 391, 596]
14.246[409, 97, 124, 41, 60, 323, 358, 581]
14.261[408, 109, 133, 43, 60, 329, 382, 611]
14.276[428, 115, 139, 44, 56, 324, 430, 591]
14.299[390, 114, 116, 43, 57, 319, 443, 511]
14.321[362, 114, 89, 41, 53, 273, 417, 498]
14.338[341, 113, 95, 40, 50, 281, 414, 537]
14.359[378, 122, 85, 38, 45, 263, 392, 544]
14.381[371, 130, 85, 44, 49, 267, 334, 527]
14.396[409, 140, 89, 49, 51, 270, 294, 505]
14.419[400, 140, 89, 54, 49, 258, 275, 507]
14.442[439, 140, 80, 50, 47, 248, 222, 407]
14.456[392, 127, 81, 50, 51, 299, 235, 374]
14.479[444, 128, 70, 46, 60, 417, 284, 430]
14.501[388, 126, 71, 42, 59, 420, 314, 440]
14.516[396, 128, 73, 40, 66, 471, 327, 446]
14.539[397, 133, 73, 44, 73, 518, 341, 426]
14.561[409, 129, 71, 46, 74, 494, 344, 446]
14.576[335, 126, 75, 46, 67, 411, 403, 388]
14.599[344, 113, 66, 45, 68, 428, 449, 391]
14.622[343, 116, 74, 45, 73, 437, 510, 379]
14.637[302, 123, 95, 49, 68, 389, 497, 372]
14.659[348, 131, 111, 55, 70, 398, 511, 345]
14.681[442, 125, 110, 56, 91, 554, 609, 384]
14.696[425, 127, 111, 57, 91, 555, 588, 395]
14.719[420, 116, 103, 56, 82, 503, 566, 412]
14.742[436, 109, 86, 57, 87, 504, 583, 417]
14.756[395, 103, 83, 56, 85, 493, 563, 418]
14.779[302, 113, 81, 58, 72, 353, 405, 374]
14.801[373, 111, 87, 58, 69, 318, 418, 424]
14.816[365, 117, 84, 60, 71, 347, 391, 415]
14.839[433, 112, 97, 58, 62, 335, 368, 412]
14.861[452, 113, 83, 52, 62, 339, 378, 414]
14.884[498, 104, 92, 48, 55, 298, 398, 404]
14.899[457, 109, 93, 56, 72, 413, 397, 324]
14.921[466, 113, 96, 55, 71, 392, 368, 339]
14.944[397, 123, 84, 56, 76, 395, 369, 336]
14.959[409, 128, 103, 57, 79, 406, 395, 353]
14.982[335, 137, 114, 59, 80, 427, 361, 377]
15.003[351, 161, 123, 51, 69, 337, 370, 417]
15.02[383, 156, 121, 53, 73, 361, 423, 394]
15.041[383, 148, 119, 48, 70, 358, 419, 391]
15.063[345, 142, 113, 48, 68, 343, 393, 363]
15.08[388, 134, 102, 44, 64, 297, 403, 352]
15.101[386, 110, 88, 45, 67, 329, 400, 362]
15.123[353, 110, 93, 46, 68, 335, 384, 355]
15.147[374, 102, 97, 45, 65, 327, 387, 427]
15.161[371, 104, 82, 44, 64, 313, 394, 429]
15.183[338, 111, 74, 46, 72, 397, 481, 434]
15.2[318, 109, 71, 41, 65, 372, 433, 386]
15.222[333, 134, 108, 44, 61, 345, 418, 450]
15.243[301, 136, 105, 52, 59, 352, 426, 439]
15.26[332, 136, 107, 49, 57, 365, 420, 424]
15.281[318, 130, 116, 52, 51, 256, 282, 415]
15.303[310, 125, 124, 52, 54, 289, 344, 430]
15.32[305, 94, 98, 46, 54, 303, 321, 364]
15.341[308, 88, 96, 37, 54, 302, 328, 349]
15.363[297, 99, 103, 38, 56, 331, 323, 392]
15.38[278, 100, 160, 44, 57, 339, 325, 403]
15.401[284, 97, 164, 49, 50, 280, 254, 456]
15.423[329, 109, 160, 51, 50, 262, 267, 487]
15.44[343, 122, 164, 54, 64, 332, 271, 460]
15.461[326, 107, 165, 57, 62, 309, 328, 475]
15.483[359, 118, 117, 53, 63, 325, 331, 470]
15.5[353, 129, 108, 57, 64, 352, 360, 390]
15.521[306, 133, 119, 60, 68, 362, 365, 428]
15.543[316, 134, 118, 57, 59, 366, 383, 445]
15.56[335, 139, 113, 56, 61, 374, 327, 398]
15.588[296, 130, 109, 57, 56, 356, 313, 417]
15.603[305, 117, 102, 46, 55, 335, 297, 444]
15.62[291, 113, 94, 45, 52, 334, 282, 380]
15.641[284, 121, 96, 51, 53, 327, 332, 377]
15.663[285, 127, 105, 52, 55, 354, 348, 431]
15.68[292, 131, 101, 49, 54, 360, 346, 399]
15.701[293, 138, 115, 53, 57, 360, 333, 381]
15.723[329, 133, 126, 51, 57, 374, 342, 400]
15.74[330, 123, 121, 48, 55, 366, 349, 412]
15.761[359, 127, 115, 49, 52, 328, 341, 350]
15.783[400, 127, 105, 46, 53, 322, 373, 366]
15.806[400, 123, 96, 45, 52, 344, 408, 391]
15.821[390, 121, 95, 43, 52, 331, 405, 399]
15.843[380, 127, 98, 45, 56, 306, 361, 381]
15.866[361, 124, 93, 48, 52, 291, 384, 428]
15.881[315, 117, 96, 50, 51, 291, 361, 452]
15.903[350, 133, 93, 49, 51, 283, 328, 427]
15.926[325, 142, 91, 51, 51, 335, 389, 439]
15.941[331, 137, 127, 51, 45, 306, 347, 439]
15.963[347, 130, 137, 48, 47, 314, 323, 403]
15.986[355, 134, 136, 53, 51, 311, 329, 389]
16.001[338, 124, 142, 54, 51, 288, 357, 389]
16.023[364, 122, 135, 56, 50, 217, 285, 334]
16.046[384, 116, 106, 55, 50, 213, 304, 324]
16.077[343, 117, 109, 55, 50, 219, 293, 334]
16.083[356, 112, 121, 48, 48, 238, 288, 310]
16.106[359, 111, 119, 47, 45, 240, 259, 359]
16.121[346, 109, 123, 43, 44, 276, 280, 366]
16.143[333, 110, 119, 51, 53, 309, 317, 378]
16.166[348, 107, 108, 49, 51, 288, 327, 410]
16.181[334, 105, 101, 49, 49, 277, 349, 392]
16.203[297, 99, 94, 50, 53, 300, 367, 345]
16.226[303, 110, 89, 48, 54, 256, 341, 340]
16.241[284, 130, 95, 39, 41, 204, 274, 342]
16.263[297, 132, 88, 40, 41, 239, 301, 327]
16.294[293, 137, 95, 41, 43, 231, 286, 328]
16.301[306, 142, 101, 42, 39, 196, 243, 331]
16.323[276, 130, 98, 42, 37, 185, 241, 403]
16.346[261, 106, 105, 45, 41, 209, 256, 375]
16.361[242, 106, 106, 47, 48, 212, 208, 365]
16.383[315, 103, 93, 46, 49, 266, 192, 379]
16.407[315, 102, 106, 46, 50, 268, 231, 441]
16.421[334, 97, 106, 45, 49, 289, 250, 383]
16.443[386, 100, 102, 40, 47, 288, 293, 393]
16.466[381, 91, 101, 45, 44, 273, 310, 385]
16.481[325, 99, 103, 43, 43, 226, 314, 375]
16.503[342, 124, 97, 46, 44, 265, 385, 315]
16.526[400, 129, 100, 45, 44, 263, 388, 312]
16.541[347, 127, 99, 46, 47, 251, 369, 332]
16.563[354, 133, 99, 41, 44, 239, 353, 318]
16.586[370, 144, 97, 44, 51, 281, 370, 345]
16.601[356, 118, 85, 41, 53, 270, 298, 331]
16.632[310, 111, 77, 39, 54, 291, 294, 346]
16.646[325, 112, 79, 38, 54, 308, 276, 358]
16.661[356, 114, 101, 39, 57, 332, 336, 351]
16.683[334, 86, 103, 38, 52, 302, 305, 332]
16.706[345, 98, 103, 42, 51, 298, 302, 407]
16.729[313, 107, 111, 44, 52, 328, 330, 426]
16.743[323, 102, 111, 48, 56, 359, 340, 423]
16.766[264, 103, 95, 45, 54, 357, 385, 444]
16.788[287, 107, 95, 48, 54, 355, 400, 460]
16.803[269, 95, 91, 43, 54, 352, 415, 392]
16.826[269, 91, 83, 46, 54, 306, 400, 408]
16.848[275, 96, 69, 50, 52, 248, 403, 474]
16.864[278, 108, 73, 53, 53, 227, 309, 496]
16.886[280, 118, 82, 54, 56, 309, 352, 500]
16.908[281, 122, 103, 59, 57, 313, 340, 550]
16.924[334, 133, 102, 56, 57, 304, 319, 518]
16.946[324, 130, 108, 55, 65, 370, 399, 484]
16.968[328, 119, 108, 56, 66, 379, 407, 517]
16.984[316, 116, 99, 55, 68, 361, 380, 518]
17.006[340, 119, 83, 53, 67, 351, 360, 458]
17.029[320, 110, 96, 55, 68, 369, 376, 504]
17.043[314, 108, 92, 49, 57, 303, 300, 456]
17.066[299, 109, 87, 46, 55, 295, 289, 372]
17.088[282, 115, 87, 41, 51, 248, 272, 371]
17.103[283, 122, 99, 40, 57, 265, 300, 412]
17.126[251, 117, 92, 43, 55, 241, 277, 351]
17.148[269, 125, 95, 43, 58, 281, 282, 372]
17.163[308, 121, 123, 49, 59, 270, 290, 429]
17.186[340, 113, 129, 51, 59, 304, 320, 425]
17.209[362, 121, 118, 49, 54, 291, 315, 396]
17.223[390, 124, 123, 50, 61, 353, 332, 396]
17.246[368, 122, 122, 50, 57, 327, 320, 390]
17.268[358, 120, 97, 45, 57, 341, 358, 375]
17.284[339, 120, 109, 49, 56, 312, 334, 363]
17.306[289, 95, 111, 49, 57, 341, 365, 390]
17.329[310, 107, 114, 45, 46, 283, 374, 541]
17.344[313, 118, 122, 47, 48, 272, 363, 534]
17.366[297, 121, 131, 48, 49, 258, 335, 515]
17.389[282, 132, 114, 43, 47, 246, 331, 523]
17.403[276, 141, 112, 49, 46, 183, 292, 543]
17.426[224, 132, 103, 50, 50, 187, 278, 413]
17.449[233, 118, 123, 51, 52, 214, 284, 410]
17.463[247, 121, 112, 49, 54, 250, 289, 398]
17.486[300, 105, 119, 49, 52, 254, 286, 402]
17.509[299, 105, 132, 45, 50, 262, 324, 355]
17.523[281, 103, 144, 41, 47, 251, 335, 346]
17.546[286, 106, 118, 37, 42, 235, 341, 333]
17.569[317, 101, 120, 40, 37, 220, 309, 323]
17.592[272, 98, 111, 44, 42, 215, 314, 331]
17.606[293, 97, 96, 43, 42, 211, 256, 351]
17.628[327, 105, 77, 45, 45, 248, 242, 375]
17.644[319, 110, 94, 49, 52, 259, 253, 390]
17.667[302, 112, 89, 45, 51, 238, 284, 435]
17.689[309, 122, 95, 45, 49, 234, 276, 414]
17.712[288, 109, 104, 47, 52, 309, 335, 377]
17.726[280, 111, 113, 47, 56, 293, 386, 363]
17.749[261, 104, 104, 44, 54, 295, 384, 430]
17.772[233, 112, 104, 47, 59, 297, 391, 402]
17.786[261, 110, 103, 52, 59, 318, 412, 393]
17.809[268, 111, 122, 52, 61, 246, 372, 432]
17.832[256, 105, 122, 53, 67, 328, 348, 415]
17.847[270, 108, 117, 54, 68, 349, 351, 335]
17.869[265, 100, 117, 56, 65, 362, 373, 320]
17.892[258, 104, 121, 55, 73, 410, 433, 329]
17.915[252, 138, 105, 54, 73, 422, 429, 307]
17.929[239, 144, 96, 55, 64, 349, 417, 340]
17.952[243, 147, 117, 55, 59, 314, 462, 348]
17.966[245, 150, 124, 54, 62, 324, 484, 380]
17.989[280, 153, 123, 51, 50, 235, 402, 446]
18.012[297, 126, 115, 47, 49, 246, 414, 459]
18.026[306, 126, 114, 46, 54, 269, 432, 462]
18.049[311, 118, 97, 43, 56, 282, 386, 532]
18.072[313, 120, 91, 40, 52, 248, 306, 509]
18.086[284, 140, 97, 41, 52, 254, 341, 449]
18.109[273, 150, 102, 51, 56, 299, 399, 481]
18.132[303, 150, 109, 54, 55, 284, 358, 505]
18.147[291, 150, 107, 54, 52, 271, 333, 426]
18.169[289, 147, 100, 55, 56, 278, 339, 452]
18.193[342, 124, 88, 52, 57, 280, 318, 465]
18.206[340, 118, 76, 43, 50, 217, 273, 513]
18.228[299, 109, 86, 48, 45, 228, 312, 465]
18.252[343, 119, 97, 49, 49, 224, 332, 508]
18.266[369, 121, 96, 49, 48, 226, 373, 522]
18.289[315, 121, 105, 49, 51, 237, 400, 510]
18.312[313, 116, 102, 52, 50, 222, 381, 426]
18.326[332, 134, 88, 44, 51, 232, 356, 443]
18.349[302, 133, 74, 43, 48, 246, 356, 488]
18.372[292, 135, 78, 44, 46, 243, 312, 442]
18.386[325, 131, 87, 49, 47, 236, 338, 466]
18.41[330, 134, 100, 47, 49, 252, 336, 431]
18.432[316, 125, 102, 45, 51, 258, 360, 414]
18.447[334, 133, 104, 57, 55, 258, 372, 337]
18.47[354, 124, 112, 55, 57, 262, 437, 341]
18.492[322, 121, 97, 48, 54, 263, 463, 328]
18.506[314, 128, 86, 48, 50, 244, 449, 351]
18.529[369, 124, 90, 50, 45, 203, 431, 345]
18.552[352, 120, 94, 39, 47, 260, 483, 322]
18.566[313, 121, 84, 37, 46, 297, 450, 373]
18.589[331, 132, 91, 39, 49, 296, 379, 383]
18.612[334, 123, 97, 45, 50, 299, 390, 387]
18.635[276, 122, 89, 43, 50, 302, 393, 447]
18.649[290, 114, 115, 49, 47, 266, 340, 449]
18.672[314, 109, 122, 49, 44, 234, 337, 432]
18.694[324, 94, 114, 49, 41, 227, 383, 472]
18.709[313, 102, 119, 43, 42, 249, 400, 470]
18.732[332, 107, 143, 49, 55, 295, 437, 414]
18.754[327, 105, 121, 43, 54, 289, 416, 391]
18.769[312, 119, 116, 48, 56, 285, 387, 401]
18.792[292, 126, 119, 48, 56, 276, 358, 370]
18.815[329, 129, 111, 50, 55, 256, 412, 418]
18.829[355, 126, 77, 47, 46, 202, 395, 474]
18.852[342, 133, 90, 50, 46, 193, 418, 524]
18.874[357, 155, 102, 47, 45, 212, 434, 501]
18.89[352, 157, 107, 53, 47, 231, 449, 513]
18.912[330, 151, 109, 56, 50, 233, 386, 505]
18.934[277, 150, 113, 59, 52, 242, 405, 444]
18.949[293, 143, 106, 58, 52, 231, 381, 377]
18.972[309, 111, 94, 58, 57, 237, 422, 460]
18.995[308, 103, 101, 52, 58, 239, 417, 455]
19.01[309, 94, 95, 50, 63, 297, 423, 417]
19.032[350, 98, 90, 48, 64, 303, 392, 453]
19.055[347, 108, 93, 48, 63, 319, 419, 495]
19.069[306, 107, 92, 50, 59, 291, 374, 419]
19.092[368, 106, 81, 51, 55, 278, 337, 398]
19.115[389, 110, 89, 55, 49, 222, 334, 451]
19.129[373, 110, 91, 52, 42, 224, 313, 437]
19.159[381, 133, 100, 69, 46, 221, 285, 459]
19.175[394, 137, 103, 68, 46, 220, 277, 495]
19.189[335, 135, 103, 66, 46, 232, 282, 519]
19.212[308, 136, 102, 64, 50, 267, 305, 465]
19.235[311, 133, 116, 64, 52, 251, 352, 448]
19.249[297, 99, 100, 46, 46, 245, 353, 441]
19.272[283, 93, 97, 46, 43, 242, 343, 387]
19.295[288, 97, 96, 53, 54, 319, 387, 369]
19.309[306, 93, 94, 49, 56, 329, 375, 425]
19.332[299, 104, 75, 53, 55, 325, 334, 426]
19.355[275, 104, 79, 50, 55, 311, 308, 372]
19.369[280, 116, 81, 47, 59, 328, 374, 382]
19.392[282, 115, 79, 40, 49, 246, 322, 356]
19.415[259, 111, 76, 41, 42, 181, 299, 295]
19.429[241, 95, 68, 38, 43, 195, 296, 291]
19.452[256, 116, 77, 38, 44, 193, 292, 287]
19.474[289, 101, 81, 40, 40, 178, 257, 414]
19.489[299, 101, 77, 45, 42, 202, 289, 409]
19.512[383, 101, 86, 41, 39, 204, 286, 438]
19.535[374, 116, 86, 38, 36, 189, 299, 433]
19.557[371, 108, 94, 38, 39, 222, 298, 444]
19.572[356, 114, 95, 41, 41, 216, 259, 397]
19.595[354, 108, 94, 35, 39, 198, 222, 435]
19.617[253, 122, 96, 44, 41, 224, 271, 407]
19.632[258, 114, 101, 45, 45, 227, 263, 418]
19.655[248, 109, 85, 48, 45, 217, 287, 435]
19.677[247, 111, 77, 45, 41, 215, 277, 407]
19.692[204, 111, 76, 45, 43, 216, 269, 343]
19.715[230, 97, 61, 36, 47, 219, 231, 371]
19.737[215, 88, 49, 34, 46, 232, 220, 354]
19.752[212, 73, 42, 30, 44, 227, 192, 307]
19.775[175, 63, 36, 28, 50, 285, 243, 246]
19.797[154, 60, 34, 27, 49, 287, 249, 231]
19.812[100, 49, 25, 27, 42, 253, 225, 137]
19.835[106, 49, 25, 29, 41, 247, 218, 117]
19.857[99, 52, 25, 28, 39, 235, 202, 101]
19.872[95, 40, 23, 28, 31, 160, 137, 66]
19.895[96, 42, 26, 29, 30, 133, 120, 62]
19.917[76, 41, 27, 28, 30, 127, 106, 36]
19.931[58, 49, 26, 29, 31, 163, 120, 38]
19.962[66, 45, 27, 27, 33, 159, 123, 39]
19.977[62, 47, 25, 24, 31, 148, 101, 38]
19.991[61, 41, 22, 22, 31, 163, 102, 35]
20.015[61, 43, 21, 21, 31, 162, 101, 34]
20.036[56, 37, 22, 16, 28, 103, 69, 30]
20.053[35, 35, 24, 16, 27, 89, 52, 23]
20.075[32, 31, 25, 20, 27, 82, 49, 25]
20.096[31, 31, 25, 22, 26, 37, 44, 25]
20.113[26, 29, 25, 22, 25, 33, 40, 25]
20.135[23, 19, 24, 22, 22, 35, 41, 27]
20.156[21, 20, 21, 23, 21, 34, 42, 27]
20.173[22, 23, 21, 24, 20, 33, 42, 23]
20.195[21, 22, 20, 23, 20, 28, 25, 23]
20.216[22, 22, 25, 23, 21, 26, 26, 23]
20.239[22, 22, 25, 25, 21, 20, 25, 20]
20.254[24, 25, 28, 25, 22, 22, 22, 20]
20.277[24, 22, 28, 23, 21, 20, 22, 21]
20.293[25, 23, 28, 23, 21, 20, 21, 20]
20.314[26, 22, 22, 22, 22, 24, 20, 20]
20.336[25, 22, 24, 22, 22, 25, 21, 19]
20.353[23, 18, 22, 20, 22, 23, 21, 19]
20.374[20, 21, 24, 21, 23, 24, 21, 17]
20.396[20, 22, 25, 22, 23, 25, 22, 18]
20.413[20, 23, 26, 22, 22, 23, 22, 17]
20.442[21, 23, 26, 22, 23, 23, 19, 17]
20.456[21, 24, 25, 23, 21, 23, 19, 17]
20.473[23, 22, 25, 23, 22, 23, 19, 18]
20.495[21, 21, 24, 24, 24, 23, 20, 18]
20.517[20, 22, 25, 23, 24, 23, 20, 19]
20.539[20, 22, 24, 23, 23, 21, 20, 20]
20.554[20, 23, 26, 25, 25, 21, 21, 20]
20.576[21, 23, 24, 26, 25, 23, 20, 20]
20.599[23, 25, 25, 24, 23, 22, 19, 19]
20.614[25, 24, 24, 23, 22, 23, 19, 18]
20.636[25, 23, 24, 24, 23, 22, 18, 19]
20.659[26, 23, 21, 22, 22, 24, 21, 18]
20.674[26, 24, 21, 19, 20, 20, 22, 18]
20.696[29, 21, 21, 19, 19, 21, 24, 18]
20.719[29, 22, 21, 23, 20, 20, 25, 19]
20.734[30, 22, 22, 24, 20, 22, 24, 17]
20.757[29, 22, 22, 24, 21, 20, 22, 17]
20.781[29, 23, 21, 24, 20, 22, 22, 19]
20.794[24, 23, 22, 24, 21, 22, 20, 18]
20.816[24, 24, 21, 21, 19, 22, 19, 20]
20.839[23, 24, 20, 20, 21, 23, 22, 21]
20.854[22, 23, 20, 21, 20, 24, 22, 22]
20.877[21, 22, 20, 20, 20, 24, 20, 21]
20.899[23, 22, 21, 22, 22, 24, 19, 22]
20.914[24, 21, 21, 21, 24, 27, 20, 20]
20.936[24, 23, 19, 20, 22, 25, 18, 24]
20.959[23, 23, 20, 18, 22, 23, 20, 25]
20.974[25, 23, 22, 18, 24, 22, 22, 26]
20.999[22, 24, 19, 19, 22, 21, 24, 25]
21.019[22, 24, 23, 20, 21, 20, 24, 26]
21.034[20, 25, 23, 20, 22, 20, 26, 22]
21.056[20, 24, 22, 20, 20, 20, 25, 21]
21.079[21, 23, 22, 20, 19, 20, 25, 20]
21.094[24, 23, 22, 21, 20, 20, 24, 21]
21.116[23, 24, 22, 22, 19, 17, 27, 23]
21.139[23, 22, 22, 22, 19, 18, 23, 23]
21.154[25, 23, 23, 24, 20, 17, 23, 24]
21.176[25, 25, 20, 24, 21, 17, 23, 24]
21.199[23, 24, 20, 23, 21, 18, 22, 24]
21.214[23, 22, 22, 22, 21, 18, 18, 21]
21.237[24, 23, 22, 23, 21, 18, 18, 19]
21.259[24, 23, 22, 20, 19, 20, 17, 18]
21.274[22, 21, 23, 21, 17, 19, 17, 19]
21.296[20, 23, 24, 21, 18, 17, 18, 20]
21.319[20, 23, 21, 20, 18, 19, 18, 20]
21.334[17, 20, 21, 20, 18, 20, 17, 20]
21.356[16, 21, 22, 21, 21, 20, 19, 19]
21.379[18, 22, 21, 21, 22, 20, 20, 19]
21.395[20, 22, 22, 23, 22, 22, 19, 16]
21.416[22, 22, 21, 26, 23, 22, 21, 19]
21.439[22, 25, 21, 27, 26, 21, 21, 20]
21.454[22, 23, 21, 26, 24, 19, 22, 21]
21.477[22, 24, 21, 26, 24, 19, 20, 21]
21.499[24, 23, 20, 26, 24, 19, 20, 21]
21.522[23, 23, 20, 24, 24, 17, 22, 20]
21.536[26, 22, 22, 23, 21, 18, 21, 21]
21.559[26, 23, 21, 23, 21, 20, 22, 21]
21.581[26, 23, 23, 22, 19, 21, 22, 20]
21.597[25, 24, 25, 20, 19, 20, 23, 20]
21.62[24, 29, 28, 21, 20, 21, 20, 18]
21.642[24, 30, 27, 21, 19, 21, 21, 18]
21.657[25, 30, 26, 22, 20, 20, 20, 18]
21.679[24, 30, 26, 23, 23, 21, 20, 19]
21.701[23, 31, 24, 23, 26, 21, 20, 20]
21.716[23, 27, 22, 23, 25, 20, 19, 21]
21.739[21, 25, 22, 24, 26, 21, 21, 22]
21.762[20, 26, 23, 25, 26, 21, 18, 22]
21.777[20, 27, 23, 24, 24, 19, 22, 22]
21.799[19, 27, 22, 24, 21, 19, 21, 21]
21.821[18, 26, 21, 24, 23, 19, 21, 21]
21.836[18, 27, 21, 23, 24, 17, 21, 19]
21.859[18, 27, 20, 21, 23, 18, 22, 18]
21.882[18, 29, 20, 22, 23, 17, 19, 20]
21.897[20, 27, 21, 22, 21, 20, 20, 19]
21.919[21, 31, 21, 21, 20, 20, 19, 19]
21.942[22, 30, 23, 23, 18, 22, 20, 20]
21.957[23, 30, 23, 24, 20, 22, 22, 20]
21.979[24, 26, 23, 23, 23, 21, 21, 18]
22.001[25, 24, 22, 22, 23, 21, 20, 19]
22.017[24, 22, 23, 23, 24, 21, 22, 20]
22.039[24, 25, 23, 21, 25, 19, 22, 21]
22.062[24, 24, 27, 22, 23, 21, 21, 22]
22.077[23, 25, 26, 22, 23, 21, 20, 22]
22.108[21, 27, 27, 22, 23, 20, 23, 22]
22.122[20, 26, 27, 24, 23, 21, 22, 21]
22.137[21, 23, 26, 26, 22, 22, 22, 20]
22.159[20, 25, 22, 24, 22, 19, 23, 20]
22.182[21, 24, 23, 25, 21, 18, 24, 21]
22.197[21, 25, 22, 25, 21, 18, 20, 20]
22.219[21, 26, 21, 22, 20, 17, 18, 19]
22.242[20, 27, 22, 21, 21, 18, 18, 21]
22.257[20, 26, 21, 24, 22, 23, 17, 20]
22.28[19, 26, 20, 26, 21, 23, 18, 20]
22.302[19, 26, 21, 24, 19, 23, 19, 21]
22.318[19, 28, 22, 26, 23, 23, 19, 22]
22.339[22, 26, 23, 26, 22, 23, 21, 22]
22.362[23, 25, 22, 27, 23, 19, 22, 21]
22.377[23, 26, 23, 25, 23, 20, 22, 20]
22.399[24, 24, 22, 25, 23, 21, 23, 19]
22.422[24, 23, 21, 23, 20, 20, 24, 18]
22.445[23, 23, 21, 21, 21, 22, 23, 19]
22.459[21, 26, 22, 19, 20, 23, 23, 20]
22.482[20, 25, 22, 18, 20, 21, 24, 21]
22.505[19, 24, 23, 19, 21, 20, 23, 21]
22.519[22, 22, 22, 18, 20, 23, 23, 21]
22.542[21, 26, 22, 20, 20, 21, 20, 19]
22.565[22, 25, 21, 21, 21, 21, 19, 18]
22.579[22, 27, 21, 22, 22, 21, 17, 19]
22.61[23, 28, 22, 24, 21, 22, 18, 20]
22.625[20, 28, 24, 24, 22, 20, 17, 19]
22.639[21, 28, 23, 22, 23, 21, 19, 19]
22.662[20, 27, 24, 21, 22, 20, 19, 18]
22.685[22, 26, 24, 20, 25, 21, 18, 19]
22.699[21, 25, 23, 18, 25, 20, 17, 19]
22.722[23, 29, 23, 21, 25, 19, 20, 21]
22.745[21, 27, 25, 21, 25, 22, 18, 20]
22.759[21, 28, 25, 23, 26, 22, 19, 20]
22.782[20, 29, 24, 24, 23, 21, 19, 18]
22.805[20, 31, 25, 23, 22, 23, 20, 20]
22.819[18, 26, 24, 21, 21, 24, 19, 18]
22.842[18, 27, 22, 24, 20, 23, 19, 19]
22.865[20, 28, 20, 21, 20, 23, 20, 22]
22.879[18, 27, 24, 21, 21, 23, 23, 22]
22.902[21, 25, 25, 20, 22, 20, 23, 20]
22.932[23, 27, 25, 20, 23, 18, 23, 20]
22.939[22, 29, 27, 17, 23, 19, 24, 21]
22.962[21, 29, 28, 18, 23, 20, 23, 19]
22.985[24, 28, 24, 20, 21, 20, 21, 22]
22.999[21, 28, 23, 19, 21, 21, 23, 20]
23.022[20, 29, 24, 19, 22, 22, 22, 20]
23.045[21, 27, 23, 21, 24, 20, 20, 21]
23.059[21, 27, 22, 23, 24, 20, 21, 22]
23.09[20, 29, 21, 21, 26, 19, 20, 21]
23.105[21, 29, 23, 23, 26, 21, 18, 23]
23.119[22, 28, 21, 23, 25, 22, 18, 22]
23.142[22, 27, 23, 21, 23, 20, 18, 20]
23.165[22, 27, 24, 20, 24, 20, 16, 21]
23.179[22, 28, 26, 21, 22, 20, 17, 21]
23.202[24, 26, 26, 20, 22, 18, 18, 19]
23.225[23, 29, 27, 22, 23, 20, 20, 20]
23.24[23, 29, 27, 23, 24, 22, 20, 21]
23.262[23, 29, 27, 23, 22, 24, 21, 21]
23.285[20, 25, 26, 23, 23, 24, 21, 19]
23.3[21, 28, 25, 22, 23, 24, 20, 21]
23.322[22, 25, 23, 20, 22, 21, 18, 21]
23.345[22, 25, 22, 21, 21, 20, 19, 20]
23.367[22, 27, 20, 22, 23, 19, 19, 19]
23.382[24, 29, 21, 23, 23, 19, 17, 19]
23.405[21, 28, 20, 23, 22, 21, 19, 21]
23.427[19, 28, 20, 25, 20, 21, 20, 20]
23.442[20, 29, 23, 24, 23, 20, 19, 21]
23.465[21, 26, 25, 22, 23, 20, 20, 21]
23.487[20, 25, 25, 22, 24, 19, 22, 20]
23.502[22, 24, 24, 23, 26, 18, 20, 19]
23.525[23, 23, 25, 24, 27, 18, 20, 19]
23.548[25, 23, 21, 24, 26, 22, 22, 19]
23.562[23, 23, 20, 26, 23, 22, 21, 18]
23.585[25, 22, 19, 27, 22, 23, 20, 20]
23.608[27, 29, 21, 27, 21, 22, 21, 22]
23.622[26, 29, 23, 24, 23, 24, 22, 21]
23.645[24, 29, 23, 25, 21, 21, 22, 22]
23.667[25, 28, 26, 25, 23, 21, 22, 24]
23.682[24, 30, 24, 23, 23, 19, 21, 23]
23.705[20, 24, 25, 20, 21, 22, 22, 19]
23.728[22, 25, 22, 21, 19, 21, 21, 21]
23.75[25, 28, 22, 19, 21, 24, 20, 21]
23.765[24, 29, 20, 19, 18, 25, 19, 18]
23.787[25, 27, 23, 19, 18, 26, 20, 20]
23.802[25, 29, 22, 22, 21, 26, 20, 20]
23.825[24, 28, 22, 23, 24, 23, 21, 20]
23.848[21, 25, 22, 24, 24, 24, 20, 20]
23.862[21, 24, 23, 23, 24, 22, 22, 22]
23.885[20, 27, 21, 27, 24, 23, 21, 20]
23.907[20, 26, 21, 25, 23, 21, 20, 24]
23.922[19, 26, 21, 24, 21, 22, 20, 23]
23.952[21, 28, 21, 25, 20, 20, 21, 26]
23.967[20, 29, 21, 28, 25, 21, 19, 24]
23.982[20, 25, 21, 26, 26, 21, 19, 26]
24.005[23, 26, 22, 28, 27, 21, 19, 22]
24.027[23, 27, 21, 27, 26, 21, 22, 22]
24.042[21, 25, 22, 26, 26, 21, 21, 18]
24.065[22, 23, 23, 24, 21, 20, 24, 19]
24.087[23, 25, 23, 23, 21, 21, 26, 18]
24.102[22, 24, 21, 21, 20, 21, 28, 20]
24.125[23, 22, 24, 22, 20, 21, 24, 21]
24.147[24, 22, 23, 21, 20, 21, 24, 21]
24.162[23, 25, 20, 20, 21, 23, 22, 21]
24.185[23, 27, 23, 21, 21, 19, 19, 20]
24.207[22, 25, 23, 20, 21, 22, 18, 17]
24.222[22, 27, 21, 19, 22, 22, 18, 17]
24.245[22, 29, 21, 24, 24, 22, 19, 17]
24.267[23, 27, 21, 23, 23, 21, 20, 19]
24.282[22, 24, 20, 23, 23, 22, 20, 20]
24.305[21, 26, 20, 24, 25, 22, 18, 19]
24.327[22, 26, 21, 25, 23, 23, 19, 18]
24.35[21, 25, 22, 20, 21, 23, 19, 19]
24.365[22, 24, 22, 21, 21, 22, 17, 18]
24.388[23, 27, 21, 21, 19, 23, 22, 21]
24.41[24, 27, 23, 21, 17, 21, 22, 23]
24.425[23, 26, 22, 19, 18, 22, 23, 24]
24.447[25, 26, 22, 23, 20, 22, 23, 24]
24.47[23, 28, 23, 23, 20, 22, 24, 23]
24.485[22, 28, 23, 24, 19, 21, 20, 20]
24.507[22, 27, 22, 23, 21, 22, 21, 21]
24.53[27, 28, 21, 24, 23, 20, 23, 23]
24.545[25, 27, 24, 24, 25, 21, 25, 21]
24.568[25, 25, 23, 23, 24, 21, 24, 22]
24.591[25, 24, 26, 23, 24, 21, 24, 21]
24.605[26, 26, 24, 22, 22, 22, 23, 19]
24.628[22, 23, 26, 21, 20, 23, 21, 20]
24.65[21, 23, 24, 16, 16, 22, 19, 22]
24.665[24, 26, 24, 19, 16, 25, 19, 23]
24.687[24, 25, 20, 20, 16, 22, 20, 24]
24.71[23, 24, 24, 21, 18, 23, 20, 26]
24.725[24, 23, 23, 22, 18, 22, 23, 24]
24.748[24, 26, 24, 23, 17, 22, 23, 25]
24.77[21, 23, 24, 21, 19, 21, 23, 24]
24.785[22, 24, 26, 23, 20, 22, 22, 25]
24.808[22, 25, 25, 25, 20, 20, 21, 23]
24.83[22, 30, 24, 26, 22, 19, 20, 23]
24.852[22, 29, 22, 26, 25, 19, 18, 20]
24.868[22, 29, 25, 27, 24, 19, 19, 22]
24.89[20, 27, 23, 25, 23, 19, 18, 21]
24.904[22, 27, 23, 21, 24, 21, 18, 21]
24.928[24, 24, 25, 23, 22, 21, 18, 22]
24.95[25, 25, 25, 23, 22, 21, 18, 21]
24.965[25, 26, 24, 25, 23, 20, 17, 21]
24.988[27, 28, 26, 25, 24, 21, 21, 22]
25.009[27, 27, 25, 24, 22, 20, 22, 22]
25.032[23, 27, 24, 21, 23, 20, 21, 22]
25.048[25, 28, 26, 20, 20, 22, 23, 25]
25.069[27, 25, 23, 19, 19, 23, 24, 23]
25.093[26, 25, 23, 20, 19, 22, 20, 23]
25.108[26, 28, 23, 20, 19, 23, 19, 22]
25.13[25, 27, 23, 21, 18, 23, 20, 21]
25.152[23, 25, 22, 20, 19, 21, 18, 21]
25.168[21, 26, 23, 21, 20, 21, 19, 22]
25.189[21, 26, 21, 21, 19, 23, 22, 22]
25.212[20, 22, 20, 21, 19, 21, 22, 23]
25.228[25, 23, 20, 22, 20, 22, 23, 23]
25.249[24, 26, 18, 23, 19, 22, 23, 24]
25.272[23, 25, 19, 21, 20, 20, 22, 24]
25.288[21, 24, 19, 20, 21, 20, 23, 22]
25.31[24, 24, 21, 21, 21, 20, 22, 22]
25.332[23, 25, 20, 19, 22, 22, 22, 23]
25.348[23, 22, 23, 18, 21, 21, 20, 20]
25.37[23, 23, 22, 20, 19, 22, 23, 20]
25.392[23, 23, 21, 21, 20, 23, 20, 20]
25.408[20, 25, 19, 21, 21, 23, 22, 21]
25.429[18, 25, 24, 23, 20, 21, 22, 18]
25.452[20, 24, 22, 25, 22, 24, 22, 18]
25.468[20, 24, 24, 23, 22, 23, 20, 19]
25.489[22, 26, 25, 23, 22, 19, 21, 19]
25.513[23, 26, 25, 23, 21, 19, 21, 19]
25.528[21, 25, 21, 23, 22, 23, 21, 19]
25.549[22, 27, 20, 21, 21, 19, 20, 20]
25.572[22, 27, 18, 22, 23, 19, 19, 21]
25.588[21, 26, 16, 23, 23, 19, 18, 21]
25.609[20, 24, 16, 22, 23, 21, 17, 20]
25.632[21, 24, 18, 23, 22, 18, 16, 21]
25.649[21, 22, 18, 23, 23, 18, 17, 20]
25.669[21, 22, 19, 24, 23, 19, 16, 20]
25.692[20, 25, 21, 23, 23, 20, 19, 20]
25.715[20, 26, 20, 24, 23, 19, 20, 21]
25.729[22, 28, 19, 22, 23, 19, 22, 20]
25.752[22, 30, 22, 22, 23, 20, 22, 21]
25.767[22, 29, 22, 22, 21, 19, 23, 20]
25.789[24, 27, 24, 23, 19, 18, 22, 19]
25.812[23, 28, 24, 24, 19, 18, 21, 19]
25.827[22, 27, 24, 24, 20, 18, 19, 19]
25.849[19, 26, 21, 23, 22, 17, 21, 19]
25.872[19, 27, 25, 23, 22, 17, 21, 21]
25.887[20, 29, 22, 22, 22, 19, 19, 20]
25.909[21, 27, 22, 21, 26, 19, 19, 22]
25.932[21, 25, 23, 22, 24, 18, 22, 24]
25.947[23, 28, 24, 21, 23, 20, 20, 25]
25.969[23, 28, 20, 20, 23, 20, 21, 24]
25.992[23, 26, 20, 20, 23, 19, 23, 24]
26.007[23, 29, 21, 22, 20, 20, 23, 22]
26.029[22, 30, 22, 23, 21, 21, 20, 20]
26.052[21, 26, 23, 23, 21, 21, 19, 18]
26.067[21, 25, 23, 24, 21, 21, 19, 19]
26.089[19, 27, 23, 23, 25, 22, 19, 19]
26.112[18, 25, 23, 21, 25, 20, 19, 19]
26.127[17, 25, 21, 20, 24, 18, 20, 20]
26.15[18, 27, 20, 21, 23, 18, 21, 21]
26.172[17, 26, 19, 21, 23, 17, 21, 19]
26.187[19, 25, 18, 21, 19, 17, 21, 18]
26.209[21, 24, 19, 20, 18, 17, 21, 19]
26.232[21, 27, 19, 21, 19, 18, 21, 21]
26.255[19, 24, 21, 21, 21, 18, 20, 20]
26.269[21, 27, 20, 21, 21, 18, 21, 22]
26.292[20, 25, 21, 22, 22, 19, 24, 24]
26.315[20, 26, 21, 23, 23, 20, 23, 24]
26.331[21, 23, 20, 23, 22, 20, 23, 22]
26.352[23, 27, 17, 23, 21, 21, 24, 23]
26.375[21, 24, 18, 24, 23, 21, 24, 22]
26.39[20, 22, 18, 23, 21, 22, 22, 21]
26.422[19, 24, 17, 23, 21, 22, 23, 22]
26.435[22, 23, 19, 24, 22, 23, 22, 20]
26.45[20, 20, 20, 22, 22, 23, 22, 19]
26.474[22, 21, 20, 21, 22, 21, 20, 19]
26.495[24, 25, 19, 20, 21, 20, 18, 18]
26.509[26, 24, 21, 19, 21, 20, 17, 17]
26.534[24, 25, 21, 21, 22, 20, 18, 21]
26.555[24, 27, 22, 20, 21, 20, 18, 23]
26.57[24, 27, 21, 21, 19, 22, 18, 23]
26.592[23, 23, 21, 21, 21, 21, 19, 24]
26.623[22, 22, 19, 25, 22, 21, 18, 25]
26.629[22, 24, 19, 25, 22, 19, 18, 23]
26.652[23, 21, 18, 26, 21, 18, 16, 22]
26.675[22, 22, 20, 25, 22, 19, 17, 24]
26.69[21, 22, 22, 26, 21, 20, 17, 23]
26.712[23, 27, 22, 24, 20, 20, 18, 21]
26.735[21, 23, 22, 21, 20, 22, 18, 20]
26.75[22, 26, 23, 21, 20, 23, 20, 19]
26.772[21, 25, 23, 23, 19, 22, 22, 17]
26.795[21, 29, 22, 22, 19, 20, 20, 18]
26.809[23, 26, 22, 22, 19, 19, 20, 21]
26.832[22, 27, 22, 22, 19, 19, 20, 20]
26.856[22, 28, 23, 20, 20, 17, 19, 24]
26.877[22, 29, 22, 21, 21, 20, 17, 24]
26.892[22, 25, 23, 21, 21, 21, 17, 23]
26.915[21, 24, 24, 21, 21, 21, 17, 21]
26.93[21, 27, 24, 20, 23, 20, 17, 23]
26.952[20, 23, 23, 21, 22, 23, 18, 21]
26.975[21, 24, 23, 19, 21, 19, 17, 21]
26.99[20, 28, 23, 21, 24, 20, 19, 22]
27.012[21, 29, 24, 21, 24, 20, 19, 24]
27.035[20, 27, 25, 22, 22, 22, 19, 22]
27.049[22, 28, 25, 23, 22, 21, 18, 23]
27.072[20, 30, 25, 22, 23, 22, 20, 22]
27.095[25, 27, 25, 20, 21, 21, 19, 23]
27.11[23, 27, 24, 19, 19, 22, 19, 21]
27.132[23, 26, 24, 20, 19, 22, 20, 22]
27.155[22, 26, 22, 19, 20, 22, 21, 21]
27.177[23, 26, 25, 21, 18, 21, 19, 23]
27.192[22, 29, 22, 21, 20, 21, 19, 23]
27.215[22, 28, 23, 22, 20, 21, 18, 25]
27.237[23, 28, 24, 24, 21, 22, 19, 24]
27.252[23, 30, 24, 25, 20, 21, 17, 24]
27.275[24, 30, 23, 25, 22, 23, 18, 23]
27.297[21, 27, 24, 26, 20, 23, 17, 21]
27.312[21, 28, 22, 27, 20, 25, 19, 22]
27.335[22, 29, 22, 23, 20, 21, 19, 22]
27.357[24, 25, 24, 21, 20, 22, 20, 20]
27.372[23, 24, 22, 20, 19, 20, 21, 20]
27.395[23, 25, 21, 19, 19, 24, 21, 20]
27.417[25, 27, 21, 17, 18, 22, 21, 21]
27.432[24, 25, 21, 19, 18, 24, 20, 23]
27.455[22, 27, 20, 20, 18, 24, 20, 23]
27.477[23, 28, 23, 21, 19, 23, 20, 23]
27.492[24, 28, 23, 23, 19, 21, 21, 23]
27.514[22, 28, 24, 24, 19, 21, 19, 21]
27.537[21, 28, 24, 23, 21, 19, 20, 19]
27.552[21, 27, 23, 23, 20, 19, 21, 19]
27.575[20, 26, 21, 23, 20, 19, 20, 19]
27.598[19, 27, 21, 22, 24, 19, 20, 20]
27.612[20, 23, 22, 22, 26, 21, 20, 23]
27.635[22, 24, 21, 23, 25, 20, 20, 22]
27.658[22, 24, 22, 22, 24, 20, 17, 24]
27.672[25, 26, 23, 21, 24, 21, 19, 26]
27.695[23, 24, 22, 21, 23, 20, 18, 25]
27.718[22, 26, 22, 19, 21, 19, 18, 23]
27.732[27, 28, 23, 17, 20, 20, 19, 23]
27.755[27, 28, 23, 19, 22, 20, 20, 23]
27.778[25, 26, 21, 20, 22, 21, 20, 21]
27.792[26, 27, 23, 20, 21, 19, 20, 22]
27.815[28, 28, 23, 22, 23, 21, 22, 24]
27.838[23, 25, 24, 24, 25, 23, 23, 24]
27.852[23, 25, 24, 23, 24, 24, 22, 24]
27.876[24, 26, 24, 21, 22, 22, 21, 24]
27.898[22, 24, 25, 20, 22, 22, 23, 24]
27.912[21, 24, 24, 20, 20, 22, 21, 22]
27.935[20, 25, 22, 18, 21, 20, 19, 21]
27.958[21, 24, 23, 20, 24, 20, 20, 21]
27.98[19, 24, 23, 20, 24, 21, 21, 19]
27.995[21, 29, 24, 21, 26, 22, 20, 20]
28.018[20, 28, 23, 21, 26, 22, 19, 19]
28.032[20, 29, 25, 23, 26, 23, 19, 19]
28.055[21, 28, 25, 21, 23, 23, 19, 19]
28.085[22, 32, 26, 22, 24, 23, 21, 20]
28.101[22, 29, 24, 21, 22, 21, 20, 17]
28.115[22, 29, 25, 23, 22, 20, 21, 20]
28.138[22, 29, 23, 21, 21, 16, 21, 20]
28.16[25, 31, 21, 21, 21, 17, 21, 19]
28.175[25, 28, 24, 23, 21, 19, 18, 21]
28.198[25, 26, 23, 22, 21, 19, 18, 22]
28.22[28, 29, 24, 21, 20, 23, 18, 20]
28.235[27, 28, 25, 23, 21, 23, 20, 20]
28.258[22, 27, 25, 22, 20, 23, 18, 21]
28.28[23, 28, 22, 21, 20, 20, 20, 22]
28.295[22, 30, 24, 22, 21, 21, 20, 23]
28.318[18, 27, 21, 21, 20, 18, 23, 22]
28.34[20, 31, 21, 20, 21, 18, 21, 23]
28.355[20, 29, 23, 22, 23, 19, 22, 21]
28.378[21, 27, 22, 22, 22, 18, 22, 20]
28.4[21, 26, 22, 21, 22, 20, 24, 19]
28.415[23, 29, 23, 23, 23, 21, 21, 22]
28.439[23, 25, 22, 21, 23, 22, 21, 21]
28.468[24, 25, 20, 19, 22, 21, 22, 22]
28.475[22, 27, 21, 22, 23, 23, 21, 21]
28.498[22, 27, 21, 22, 23, 20, 16, 24]
28.521[20, 25, 21, 20, 26, 17, 17, 23]
28.535[21, 28, 24, 21, 25, 17, 18, 23]
28.566[20, 29, 26, 21, 24, 15, 17, 23]
28.58[19, 28, 24, 17, 25, 18, 19, 25]
28.595[19, 28, 26, 19, 25, 19, 20, 22]
28.618[22, 28, 28, 20, 22, 20, 20, 22]
28.64[21, 26, 25, 20, 21, 21, 20, 23]
28.655[22, 24, 23, 21, 21, 22, 21, 24]
28.679[24, 26, 26, 23, 20, 21, 31, 21]
28.701[23, 25, 22, 22, 19, 22, 33, 21]
28.715[22, 22, 21, 20, 17, 23, 34, 22]
28.738[23, 24, 18, 21, 18, 23, 34, 20]
28.768[22, 24, 19, 20, 17, 22, 34, 19]
28.775[22, 24, 20, 19, 18, 20, 25, 21]
28.798[25, 25, 21, 20, 20, 19, 21, 24]
28.82[23, 25, 21, 21, 21, 18, 18, 22]
28.835[24, 26, 22, 21, 19, 20, 20, 25]
28.858[25, 27, 23, 22, 20, 20, 18, 24]
28.881[24, 25, 22, 21, 20, 20, 17, 24]
28.895[22, 24, 21, 21, 20, 20, 18, 22]
28.918[22, 24, 21, 22, 20, 21, 18, 22]
28.94[22, 26, 22, 22, 22, 21, 19, 20]
28.955[20, 24, 23, 24, 23, 22, 19, 20]
28.978[21, 25, 23, 24, 22, 22, 20, 20]
29.0[22, 30, 25, 23, 22, 23, 20, 22]
29.015[25, 31, 26, 22, 22, 21, 20, 23]
29.038[23, 27, 25, 23, 21, 21, 17, 24]
29.06[22, 28, 26, 21, 19, 21, 18, 25]
29.084[22, 30, 23, 21, 21, 21, 18, 24]
29.098[20, 24, 21, 22, 20, 21, 16, 22]
29.121[20, 24, 22, 23, 20, 22, 21, 21]
29.143[21, 29, 23, 22, 19, 20, 22, 21]
29.158[21, 29, 23, 24, 20, 19, 22, 22]
29.18[20, 26, 22, 24, 17, 18, 22, 21]
29.203[23, 30, 24, 25, 16, 19, 24, 21]
29.218[22, 30, 22, 22, 16, 17, 19, 22]
29.241[22, 26, 22, 23, 19, 19, 18, 21]
29.264[23, 28, 21, 22, 20, 18, 19, 22]
29.278[25, 29, 20, 24, 21, 23, 19, 22]
29.301[23, 28, 19, 23, 21, 22, 17, 24]
29.323[22, 27, 21, 23, 21, 22, 18, 23]
29.338[22, 28, 20, 23, 19, 22, 20, 23]
29.361[22, 27, 19, 21, 19, 24, 20, 22]
29.383[21, 24, 22, 19, 20, 21, 20, 21]
29.399[20, 24, 21, 20, 21, 21, 20, 20]
29.42[22, 25, 21, 21, 22, 21, 19, 21]
29.443[24, 25, 21, 23, 23, 20, 19, 22]
29.459[23, 25, 22, 23, 24, 17, 18, 21]
29.482[25, 26, 21, 25, 23, 15, 17, 22]
29.503[26, 28, 22, 24, 21, 17, 17, 22]
29.518[23, 25, 22, 25, 23, 18, 18, 21]
29.541[22, 24, 23, 24, 22, 18, 17, 21]
29.563[22, 27, 23, 24, 21, 19, 18, 22]
29.577[21, 25, 22, 24, 21, 20, 18, 22]
29.601[20, 22, 21, 25, 22, 20, 18, 23]
29.623[20, 28, 21, 24, 20, 22, 18, 21]
29.639[18, 27, 21, 21, 21, 22, 21, 21]
29.661[19, 23, 21, 21, 22, 23, 20, 21]
29.683[17, 27, 21, 20, 22, 23, 20, 21]
29.697[20, 27, 22, 21, 22, 23, 21, 23]
29.721[19, 23, 22, 19, 23, 22, 22, 24]
29.743[20, 26, 24, 19, 22, 21, 19, 25]
29.758[19, 25, 23, 19, 22, 22, 20, 25]
29.78[20, 23, 23, 21, 23, 21, 19, 24]
29.803[20, 27, 24, 20, 22, 22, 17, 22]
29.817[21, 28, 23, 20, 22, 22, 17, 22]
29.841[22, 26, 22, 21, 23, 23, 19, 20]
29.863[24, 28, 23, 21, 22, 23, 17, 18]
29.878[24, 31, 23, 22, 22, 25, 18, 21]
29.901[24, 28, 23, 21, 23, 24, 20, 19]
29.923[24, 27, 22, 21, 21, 24, 21, 19]
29.937[25, 28, 25, 22, 21, 23, 22, 22]
29.961[24, 27, 25, 21, 20, 23, 22, 21]
29.983[24, 24, 26, 22, 21, 21, 21, 22]
30.006[23, 26, 24, 23, 20, 21, 21, 23]
30.027[23, 25, 25, 24, 23, 21, 19, 24]
30.042[20, 26, 23, 22, 22, 21, 17, 22]
30.065[22, 25, 21, 23, 24, 22, 21, 22]
30.081[21, 26, 23, 22, 22, 21, 23, 21]
30.103[20, 22, 24, 20, 22, 20, 22, 22]
30.125[22, 27, 25, 21, 20, 20, 23, 22]
30.141[22, 25, 24, 22, 22, 19, 24, 22]
30.163[21, 27, 26, 23, 20, 19, 21, 23]
30.185[23, 26, 23, 21, 22, 19, 21, 20]
30.201[23, 27, 23, 21, 22, 19, 21, 20]
30.23[21, 24, 22, 19, 22, 21, 21, 21]
30.245[22, 25, 25, 19, 19, 20, 21, 20]
30.261[22, 24, 25, 19, 20, 19, 21, 20]
30.283[21, 25, 25, 19, 19, 18, 20, 21]
30.306[22, 29, 26, 21, 18, 18, 23, 21]
30.321[24, 28, 30, 21, 19, 17, 24, 18]
30.343[37, 36, 43, 24, 20, 26, 31, 25]
30.365[138, 81, 53, 31, 22, 61, 62, 256]
30.382[186, 95, 59, 45, 33, 178, 150, 330]
30.402[319, 116, 59, 47, 49, 279, 411, 530]
30.425[454, 147, 64, 55, 54, 310, 443, 630]
30.441[500, 173, 88, 65, 74, 432, 517, 721]
30.463[517, 178, 165, 97, 85, 451, 550, 746]
30.485[636, 224, 216, 113, 90, 430, 584, 827]
30.501[724, 231, 227, 120, 106, 501, 642, 786]
30.522[722, 279, 238, 125, 113, 527, 661, 782]
30.545[729, 305, 232, 124, 112, 462, 659, 744]
30.562[774, 311, 199, 114, 123, 575, 787, 792]
30.583[721, 313, 202, 109, 123, 616, 846, 710]
30.612[618, 313, 238, 106, 109, 539, 718, 727]
30.621[598, 275, 237, 102, 106, 563, 779, 850]
30.643[623, 261, 251, 100, 103, 580, 763, 877]
30.673[625, 321, 265, 87, 86, 471, 648, 842]
30.681[638, 317, 259, 82, 83, 427, 572, 879]
30.702[700, 320, 254, 83, 87, 441, 737, 863]
30.725[689, 318, 255, 82, 84, 398, 685, 731]
30.741[683, 322, 245, 89, 78, 395, 787, 784]
30.763[650, 280, 222, 90, 77, 423, 782, 769]
30.785[666, 297, 191, 84, 97, 495, 953, 823]
30.801[650, 318, 246, 80, 93, 475, 864, 809]
30.823[627, 317, 259, 83, 100, 495, 872, 792]
30.845[576, 300, 257, 76, 103, 483, 814, 748]
30.862[598, 299, 256, 76, 101, 462, 859, 806]
30.882[518, 312, 261, 72, 82, 383, 679, 754]
30.905[461, 337, 165, 71, 80, 371, 689, 732]
30.927[480, 335, 162, 67, 66, 315, 687, 701]
30.943[522, 341, 203, 67, 61, 268, 635, 623]
30.965[444, 324, 210, 67, 66, 253, 578, 527]
30.989[476, 298, 239, 73, 63, 256, 528, 457]
31.002[448, 276, 244, 72, 67, 275, 510, 472]
31.025[436, 286, 225, 70, 71, 311, 511, 631]
31.047[410, 273, 189, 65, 73, 361, 530, 677]
31.063[461, 284, 181, 65, 69, 357, 511, 699]
31.085[478, 290, 116, 55, 66, 366, 561, 724]
31.107[536, 266, 104, 52, 59, 382, 584, 697]
31.123[577, 251, 101, 52, 58, 352, 542, 596]
31.145[576, 281, 147, 57, 59, 336, 574, 597]
31.167[547, 264, 149, 58, 57, 340, 590, 564]
31.183[506, 222, 144, 56, 56, 316, 541, 618]
31.205[460, 239, 147, 57, 62, 325, 497, 633]
31.227[477, 246, 148, 56, 59, 309, 489, 666]
31.244[476, 207, 93, 53, 52, 279, 432, 670]
31.265[500, 220, 88, 50, 49, 265, 408, 722]
31.287[529, 219, 89, 55, 55, 299, 412, 648]
31.303[550, 216, 92, 59, 56, 300, 444, 690]
31.325[552, 226, 97, 61, 59, 302, 428, 642]
31.348[572, 232, 107, 59, 58, 320, 462, 595]
31.363[570, 221, 103, 58, 63, 330, 480, 567]
31.385[543, 221, 108, 54, 63, 298, 499, 582]
31.408[499, 196, 121, 49, 63, 265, 461, 552]
31.43[425, 180, 115, 52, 66, 314, 524, 631]
31.445[379, 189, 125, 66, 67, 314, 545, 637]
31.468[348, 202, 131, 70, 68, 310, 511, 576]
31.483[346, 199, 145, 73, 65, 304, 488, 562]
31.505[420, 183, 126, 72, 60, 306, 560, 524]
31.528[387, 178, 137, 71, 57, 263, 522, 404]
31.543[404, 182, 126, 61, 54, 232, 483, 403]
31.565[431, 180, 129, 66, 51, 223, 490, 382]
31.587[494, 190, 110, 64, 51, 216, 495, 417]
31.603[434, 214, 137, 67, 51, 200, 400, 448]
31.625[486, 227, 134, 62, 51, 222, 430, 490]
31.656[525, 227, 135, 60, 57, 263, 416, 537]
31.662[515, 222, 136, 49, 60, 264, 409, 543]
31.685[453, 218, 140, 46, 58, 270, 385, 542]
31.708[452, 217, 151, 48, 60, 286, 401, 536]
31.723[443, 197, 144, 46, 61, 291, 421, 604]
31.745[413, 173, 143, 49, 56, 280, 546, 574]
31.769[388, 153, 150, 55, 51, 266, 569, 588]
31.79[383, 180, 147, 55, 52, 272, 597, 597]
31.805[401, 170, 117, 57, 51, 252, 588, 619]
31.828[369, 168, 127, 58, 52, 254, 552, 541]
31.85[339, 194, 134, 54, 57, 280, 467, 544]
31.865[446, 214, 133, 50, 56, 288, 502, 572]
31.896[462, 203, 159, 55, 57, 292, 499, 541]
31.911[447, 193, 167, 57, 56, 308, 480, 512]
31.925[466, 200, 156, 56, 54, 281, 483, 486]
31.948[518, 201, 150, 54, 46, 228, 457, 501]
31.97[438, 189, 143, 53, 49, 248, 390, 503]
31.985[422, 174, 112, 48, 47, 238, 357, 494]
32.008[413, 166, 92, 38, 44, 200, 366, 502]
32.03[395, 156, 99, 41, 45, 202, 346, 525]
32.045[337, 133, 93, 44, 47, 203, 307, 470]
32.068[398, 133, 82, 45, 46, 171, 305, 418]
32.091[385, 162, 79, 50, 48, 185, 335, 465]
32.105[417, 212, 74, 52, 50, 192, 331, 450]
32.128[399, 248, 76, 51, 49, 211, 330, 425]
32.151[382, 261, 94, 55, 51, 218, 345, 442]
32.173[304, 265, 112, 53, 50, 231, 324, 497]
32.188[346, 256, 119, 51, 49, 221, 300, 458]
32.21[323, 247, 128, 52, 48, 213, 297, 490]
32.225[353, 218, 135, 50, 48, 211, 298, 493]
32.248[339, 209, 128, 47, 48, 228, 318, 475]
32.27[345, 207, 109, 52, 52, 224, 334, 442]
32.285[343, 211, 104, 51, 51, 215, 335, 427]
32.308[325, 203, 95, 50, 50, 230, 340, 391]
32.331[331, 197, 99, 55, 48, 220, 364, 498]
32.354[327, 221, 95, 56, 49, 203, 340, 543]
32.368[323, 221, 97, 54, 44, 196, 344, 561]
32.391[302, 217, 102, 52, 47, 224, 420, 623]
32.405[332, 214, 121, 55, 52, 265, 454, 647]
32.428[312, 235, 111, 52, 59, 278, 439, 576]
32.451[334, 207, 111, 51, 61, 330, 498, 563]
32.465[324, 215, 111, 52, 65, 360, 483, 546]
32.488[327, 236, 107, 57, 67, 365, 451, 530]
32.51[353, 226, 100, 56, 65, 330, 424, 509]
32.525[331, 208, 93, 56, 59, 328, 442, 504]
32.563[377, 204, 101, 57, 53, 272, 358, 504]
32.57[389, 206, 108, 58, 50, 231, 398, 498]
32.585[384, 167, 105, 53, 42, 198, 339, 481]
32.608[422, 174, 98, 55, 45, 201, 361, 516]
32.63[447, 178, 107, 54, 48, 218, 365, 527]
32.645[413, 188, 101, 53, 50, 223, 400, 581]
32.668[408, 179, 105, 49, 51, 237, 357, 602]
32.691[413, 183, 115, 50, 54, 243, 374, 579]
32.706[408, 179, 120, 45, 50, 239, 355, 566]
32.728[416, 176, 113, 46, 48, 211, 318, 622]
32.75[403, 167, 114, 44, 45, 212, 295, 554]
32.773[427, 157, 108, 53, 44, 216, 335, 541]
32.788[422, 180, 103, 52, 41, 207, 331, 519]
32.81[362, 184, 93, 57, 41, 207, 331, 488]
32.826[363, 177, 97, 54, 38, 205, 328, 444]
32.848[354, 177, 97, 55, 39, 223, 322, 443]
32.87[391, 174, 96, 52, 42, 205, 348, 407]
32.894[411, 141, 89, 55, 45, 237, 379, 425]
32.908[423, 125, 88, 51, 44, 268, 357, 474]
32.931[415, 132, 111, 51, 49, 279, 337, 438]
32.953[438, 135, 115, 51, 50, 253, 372, 459]
32.968[411, 166, 113, 49, 49, 261, 347, 518]
32.991[421, 210, 128, 51, 44, 238, 325, 541]
33.013[420, 215, 136, 50, 49, 240, 364, 507]
33.028[447, 216, 115, 56, 50, 225, 370, 582]
33.05[458, 225, 114, 53, 47, 229, 336, 578]
33.073[437, 201, 118, 51, 42, 209, 299, 557]
33.088[419, 160, 108, 48, 46, 206, 293, 523]
33.11[402, 154, 99, 46, 44, 200, 300, 548]
33.134[365, 174, 107, 44, 43, 191, 306, 477]
33.148[346, 188, 109, 51, 44, 179, 311, 468]
33.171[338, 190, 129, 55, 44, 184, 330, 436]
33.194[381, 204, 127, 56, 46, 190, 354, 436]
33.208[378, 200, 121, 61, 45, 186, 397, 421]
33.231[378, 181, 118, 63, 43, 210, 397, 401]
33.254[385, 170, 125, 58, 51, 240, 392, 429]
33.268[428, 173, 116, 55, 54, 272, 400, 466]
33.291[404, 186, 121, 53, 51, 288, 408, 564]
33.313[381, 193, 125, 49, 50, 264, 338, 561]
33.328[371, 191, 124, 51, 54, 253, 384, 560]
33.351[344, 173, 117, 52, 49, 259, 399, 530]
33.373[311, 172, 106, 51, 52, 254, 390, 517]
33.388[330, 144, 95, 53, 51, 236, 434, 506]
33.411[339, 144, 98, 53, 49, 233, 443, 477]
33.434[332, 161, 99, 48, 43, 227, 449, 468]
33.448[327, 226, 100, 46, 45, 210, 442, 486]
33.471[344, 251, 96, 48, 48, 209, 470, 532]
33.494[327, 254, 99, 45, 50, 209, 422, 479]
33.508[330, 246, 101, 52, 54, 237, 413, 507]
33.531[393, 252, 107, 50, 58, 242, 394, 551]
33.561[409, 197, 102, 50, 56, 244, 423, 568]
33.568[416, 163, 100, 51, 48, 232, 386, 510]
33.591[405, 199, 117, 52, 49, 250, 360, 468]
33.613[438, 232, 118, 45, 45, 239, 363, 458]
33.628[397, 223, 110, 49, 41, 224, 334, 466]
33.651[405, 225, 107, 53, 40, 200, 323, 447]
33.674[449, 226, 108, 57, 44, 185, 352, 583]
33.688[441, 200, 88, 54, 45, 206, 395, 576]
33.711[417, 195, 89, 57, 46, 196, 393, 548]
33.733[465, 198, 94, 58, 49, 213, 418, 593]
33.748[448, 191, 104, 55, 52, 250, 412, 604]
33.771[407, 191, 105, 51, 49, 274, 412, 512]
33.793[399, 205, 113, 51, 47, 256, 368, 543]
33.816[404, 186, 109, 51, 48, 255, 356, 566]
33.831[340, 179, 111, 49, 46, 250, 353, 486]
33.853[353, 188, 109, 50, 43, 226, 359, 462]
33.876[346, 198, 111, 49, 43, 188, 354, 540]
33.891[349, 170, 105, 50, 43, 164, 374, 520]
33.914[426, 155, 102, 47, 48, 210, 394, 532]
33.936[449, 146, 94, 47, 49, 207, 393, 598]
33.951[481, 146, 93, 44, 50, 199, 386, 647]
33.973[469, 117, 91, 41, 52, 214, 435, 606]
33.996[475, 140, 103, 47, 52, 208, 429, 618]
34.011[396, 135, 96, 48, 48, 153, 417, 598]
34.033[372, 171, 134, 49, 58, 289, 400, 540]
34.056[323, 175, 133, 50, 60, 302, 397, 528]
34.071[300, 191, 136, 52, 63, 324, 351, 467]
34.094[274, 192, 135, 48, 63, 330, 340, 446]
34.116[289, 200, 150, 48, 61, 340, 340, 503]
34.131[337, 179, 128, 56, 56, 262, 345, 587]
34.154[432, 167, 128, 55, 54, 275, 347, 556]
34.176[443, 174, 136, 54, 50, 254, 335, 598]
34.199[457, 169, 131, 56, 50, 258, 354, 622]
34.214[463, 161, 119, 53, 49, 244, 360, 563]
34.236[439, 160, 109, 46, 45, 218, 348, 471]
34.251[358, 163, 104, 51, 46, 191, 359, 451]
34.274[393, 160, 88, 57, 47, 169, 339, 390]
34.296[388, 192, 97, 55, 45, 153, 333, 360]
34.31[387, 216, 108, 59, 48, 192, 324, 412]
34.334[367, 215, 113, 59, 45, 215, 383, 389]
34.356[395, 216, 111, 55, 44, 217, 376, 393]
34.371[351, 204, 109, 54, 42, 221, 386, 416]
34.394[343, 180, 92, 51, 41, 218, 364, 416]
34.416[345, 155, 76, 48, 39, 192, 367, 434]
34.43[359, 147, 73, 50, 37, 169, 321, 422]
34.454[308, 152, 94, 59, 41, 169, 293, 480]
34.476[382, 148, 103, 60, 49, 185, 268, 472]
34.491[389, 136, 111, 63, 49, 182, 311, 468]
34.514[361, 153, 118, 63, 51, 208, 318, 452]
34.536[407, 160, 118, 62, 52, 208, 294, 485]
34.55[414, 153, 99, 52, 48, 206, 299, 425]
34.574[352, 148, 92, 47, 40, 200, 350, 437]
34.596[371, 148, 87, 45, 42, 207, 313, 469]
34.61[396, 147, 85, 43, 40, 189, 332, 465]
34.634[340, 152, 84, 42, 42, 183, 350, 480]
34.656[343, 150, 86, 42, 44, 203, 354, 548]
34.671[347, 158, 79, 41, 44, 184, 316, 624]
34.694[344, 155, 88, 46, 53, 220, 403, 612]
34.716[359, 142, 90, 47, 57, 244, 383, 596]
34.739[349, 128, 93, 46, 55, 256, 389, 574]
34.754[359, 128, 93, 45, 53, 233, 375, 519]
34.776[389, 130, 105, 46, 56, 254, 403, 406]
34.799[376, 140, 101, 41, 49, 233, 323, 394]
34.814[350, 139, 98, 41, 42, 212, 347, 455]
34.836[387, 170, 102, 43, 45, 210, 321, 445]
34.859[370, 195, 114, 41, 47, 217, 323, 466]
34.874[384, 191, 105, 39, 47, 207, 313, 520]
34.896[410, 199, 105, 43, 50, 263, 325, 512]
34.919[401, 205, 106, 40, 57, 273, 307, 491]
34.934[380, 185, 106, 44, 55, 260, 322, 540]
34.956[383, 167, 91, 46, 54, 256, 326, 528]
34.979[382, 166, 88, 48, 53, 252, 328, 486]
34.994[360, 137, 81, 46, 51, 220, 394, 498]
35.016[388, 125, 87, 47, 47, 187, 393, 475]
35.038[373, 162, 83, 43, 49, 208, 398, 449]
35.054[395, 155, 92, 43, 48, 215, 399, 448]
35.075[327, 167, 96, 43, 46, 203, 413, 472]
35.098[349, 179, 101, 50, 41, 217, 362, 485]
35.115[356, 189, 95, 48, 41, 246, 375, 492]
35.135[389, 171, 116, 52, 40, 230, 400, 458]
35.158[380, 176, 111, 54, 41, 220, 422, 448]
35.174[399, 166, 110, 56, 45, 231, 393, 389]
35.195[372, 165, 112, 54, 45, 189, 388, 372]
35.218[351, 167, 109, 57, 45, 189, 426, 369]
35.234[318, 187, 98, 54, 44, 222, 421, 441]
35.255[322, 183, 103, 53, 47, 269, 416, 453]
35.278[321, 214, 106, 50, 54, 304, 451, 496]
35.301[320, 216, 105, 51, 57, 297, 446, 499]
35.315[309, 210, 108, 49, 56, 285, 390, 505]
35.338[328, 176, 95, 49, 55, 270, 349, 522]
35.354[322, 182, 90, 53, 55, 243, 336, 517]
35.375[328, 158, 94, 56, 46, 200, 291, 488]
35.398[310, 158, 87, 50, 41, 202, 319, 516]
35.414[360, 180, 89, 51, 41, 219, 302, 594]
35.435[398, 183, 88, 53, 41, 209, 312, 520]
35.458[393, 176, 90, 57, 51, 289, 440, 520]
35.474[445, 164, 96, 58, 52, 319, 441, 553]
35.495[459, 157, 102, 59, 57, 324, 413, 515]
35.518[412, 177, 114, 58, 55, 318, 437, 403]
35.534[391, 188, 113, 57, 56, 342, 467, 520]
35.555[408, 204, 112, 50, 45, 286, 362, 517]
35.578[344, 210, 104, 48, 47, 264, 365, 552]
35.594[355, 208, 123, 46, 43, 282, 365, 577]
35.615[368, 182, 121, 47, 46, 282, 355, 580]
35.638[369, 185, 118, 44, 45, 262, 354, 509]
35.655[372, 189, 115, 45, 44, 261, 395, 549]
35.676[389, 195, 110, 44, 44, 267, 423, 501]
35.698[379, 187, 104, 44, 46, 243, 416, 472]
35.721[394, 181, 89, 46, 44, 244, 415, 500]
35.735[407, 186, 96, 50, 49, 283, 412, 506]
35.765[395, 160, 97, 47, 50, 277, 354, 476]
35.782[374, 156, 105, 56, 50, 267, 309, 534]
35.795[389, 213, 84, 58, 52, 290, 335, 524]
35.818[361, 229, 83, 55, 53, 287, 322, 517]
35.841[344, 216, 80, 53, 50, 240, 296, 540]
35.857[344, 223, 86, 51, 49, 236, 318, 564]
35.878[358, 217, 81, 40, 47, 229, 306, 489]
35.9[359, 170, 78, 37, 43, 194, 281, 509]
35.916[411, 173, 90, 39, 43, 187, 303, 516]
35.938[401, 187, 101, 40, 43, 195, 339, 469]
35.961[398, 185, 96, 45, 45, 186, 306, 448]
35.975[387, 185, 99, 45, 44, 208, 313, 452]
35.998[351, 188, 101, 44, 44, 213, 308, 466]
36.02[302, 163, 90, 42, 42, 211, 341, 428]
36.036[271, 149, 82, 44, 41, 236, 293, 460]
36.058[268, 143, 92, 41, 41, 236, 321, 419]
36.08[274, 221, 90, 42, 38, 204, 328, 428]
36.096[301, 227, 93, 47, 42, 220, 329, 401]
36.118[341, 244, 94, 47, 43, 224, 280, 449]
36.14[353, 244, 87, 43, 41, 195, 282, 471]
36.156[360, 245, 80, 45, 40, 231, 304, 474]
36.186[353, 177, 110, 48, 51, 277, 363, 479]
36.201[335, 186, 109, 43, 49, 274, 372, 515]
36.216[346, 167, 119, 43, 51, 279, 373, 490]
36.24[372, 170, 125, 46, 52, 279, 389, 485]
36.261[346, 176, 126, 49, 58, 287, 366, 520]
36.275[348, 188, 94, 45, 50, 247, 302, 506]
36.298[372, 188, 92, 49, 49, 231, 303, 465]
36.32[345, 185, 79, 50, 50, 219, 300, 607]
36.335[321, 192, 97, 52, 54, 250, 302, 587]
36.366[333, 184, 93, 46, 49, 203, 302, 551]
36.381[340, 172, 102, 49, 50, 206, 300, 573]
36.395[329, 145, 103, 49, 50, 218, 296, 615]
36.418[380, 141, 102, 48, 52, 267, 324, 458]
36.449[377, 119, 82, 48, 48, 258, 300, 422]
36.456[400, 139, 91, 51, 47, 260, 285, 411]
36.478[388, 145, 79, 49, 47, 271, 341, 402]
36.501[370, 156, 80, 47, 48, 287, 358, 369]
36.516[296, 154, 77, 45, 45, 241, 325, 407]
36.538[283, 157, 78, 44, 48, 218, 342, 525]
36.561[223, 154, 66, 40, 50, 239, 365, 635]
36.576[214, 142, 73, 40, 49, 220, 307, 624]
36.598[247, 151, 72, 48, 53, 204, 316, 632]
36.62[270, 169, 85, 53, 53, 220, 325, 634]
36.643[344, 159, 77, 53, 51, 212, 296, 589]
36.658[351, 165, 84, 57, 48, 189, 321, 480]
36.68[359, 166, 89, 58, 47, 199, 331, 490]
36.703[377, 160, 89, 54, 48, 201, 359, 508]
36.719[356, 144, 82, 53, 45, 175, 352, 470]
36.74[305, 149, 84, 50, 43, 184, 398, 401]
36.764[330, 130, 81, 47, 46, 233, 350, 435]
36.778[361, 139, 77, 47, 49, 260, 344, 446]
36.8[335, 125, 72, 45, 44, 244, 298, 436]
36.823[380, 138, 66, 47, 50, 270, 308, 461]
36.838[399, 154, 66, 47, 51, 274, 252, 469]
36.861[379, 173, 64, 48, 49, 232, 258, 477]
36.891[351, 182, 61, 47, 50, 211, 351, 473]
36.898[387, 207, 64, 47, 49, 221, 349, 495]
36.921[358, 230, 70, 43, 45, 197, 351, 468]
36.944[336, 228, 96, 47, 47, 196, 349, 477]
36.958[379, 224, 102, 47, 47, 222, 386, 490]
36.981[419, 211, 104, 43, 43, 221, 308, 504]
37.003[378, 191, 103, 42, 46, 226, 298, 440]
37.018[394, 149, 120, 44, 50, 256, 300, 448]
37.041[377, 139, 105, 42, 50, 289, 318, 506]
37.063[385, 122, 107, 40, 50, 280, 273, 477]
37.078[372, 127, 109, 43, 50, 270, 269, 438]
37.101[387, 131, 115, 42, 49, 269, 276, 526]
37.123[367, 132, 111, 37, 46, 247, 281, 527]
37.138[403, 134, 112, 41, 46, 198, 288, 463]
37.161[384, 162, 106, 42, 46, 185, 366, 437]
37.183[361, 155, 103, 46, 54, 198, 396, 489]
37.198[340, 153, 99, 45, 52, 198, 414, 380]
37.221[362, 163, 103, 52, 55, 214, 418, 364]
37.244[343, 165, 104, 51, 55, 255, 428, 420]
37.258[373, 137, 108, 51, 58, 272, 389, 439]
37.281[370, 138, 109, 47, 50, 265, 367, 376]
37.303[382, 140, 107, 46, 50, 259, 343, 386]
37.32[355, 130, 96, 42, 43, 259, 317, 411]
37.341[355, 118, 90, 38, 43, 244, 294, 429]
37.371[292, 143, 86, 36, 38, 234, 266, 450]
37.379[313, 151, 87, 36, 47, 259, 278, 453]
37.401[328, 144, 87, 45, 52, 270, 287, 460]
37.423[325, 138, 85, 48, 57, 279, 301, 443]
37.438[397, 155, 91, 50, 59, 276, 324, 392]
37.461[406, 149, 83, 51, 58, 268, 356, 382]
37.483[412, 148, 81, 50, 55, 275, 338, 372]
37.499[398, 155, 83, 45, 51, 263, 334, 347]
37.521[398, 158, 96, 42, 49, 228, 357, 414]
37.543[305, 145, 93, 41, 49, 299, 380, 439]
37.558[279, 123, 94, 43, 52, 307, 415, 395]
37.581[246, 130, 98, 49, 51, 286, 426, 444]
37.603[257, 145, 99, 46, 51, 288, 418, 444]
37.627[278, 147, 82, 48, 54, 321, 414, 418]
37.641[284, 146, 86, 47, 51, 243, 396, 446]
37.663[302, 169, 96, 52, 54, 254, 338, 463]
37.687[312, 190, 94, 50, 52, 271, 331, 436]
37.701[292, 197, 96, 52, 53, 269, 368, 447]
37.724[273, 199, 95, 56, 49, 226, 354, 416]
37.746[312, 202, 90, 56, 54, 271, 402, 458]
37.761[319, 211, 84, 52, 61, 329, 435, 454]
37.783[316, 186, 82, 53, 61, 310, 432, 459]
37.806[324, 165, 79, 52, 59, 322, 413, 449]
37.821[344, 162, 75, 48, 61, 338, 437, 519]
37.843[307, 159, 72, 50, 54, 301, 361, 459]
37.866[317, 139, 72, 48, 40, 218, 299, 460]
37.881[328, 144, 79, 49, 39, 213, 302, 448]
37.903[343, 137, 83, 53, 41, 210, 310, 488]
37.926[351, 129, 83, 48, 37, 201, 314, 496]
37.941[421, 154, 96, 49, 43, 193, 317, 450]
37.963[429, 158, 97, 52, 47, 200, 334, 488]
37.986[411, 165, 93, 46, 45, 207, 335, 532]
38.001[429, 170, 88, 49, 57, 234, 427, 499]
38.023[430, 197, 87, 54, 62, 247, 400, 426]
38.047[380, 184, 76, 58, 60, 257, 401, 495]
38.061[397, 178, 85, 57, 60, 264, 447, 465]
38.083[427, 164, 84, 60, 62, 273, 486, 419]
38.108[396, 163, 81, 55, 52, 261, 392, 439]
38.121[392, 136, 85, 58, 51, 258, 448, 462]
38.143[390, 142, 87, 50, 50, 253, 442, 413]
38.166[363, 145, 83, 49, 49, 257, 432, 406]
38.181[315, 155, 80, 45, 48, 245, 381, 416]
38.203[340, 157, 79, 44, 44, 213, 379, 423]
38.227[345, 156, 81, 38, 45, 206, 347, 373]
38.241[345, 147, 117, 43, 47, 209, 345, 360]
38.263[328, 163, 117, 42, 48, 194, 285, 367]
38.287[342, 163, 130, 49, 51, 224, 311, 390]
38.301[338, 167, 135, 50, 52, 240, 311, 399]
38.323[402, 169, 133, 51, 50, 254, 240, 413]
38.346[411, 167, 101, 50, 51, 261, 310, 444]
38.361[414, 143, 92, 48, 50, 278, 307, 436]
38.383[410, 134, 76, 44, 45, 247, 278, 408]
38.407[424, 125, 67, 43, 46, 258, 295, 398]
38.421[352, 138, 66, 41, 47, 284, 326, 443]
38.443[327, 145, 61, 37, 45, 272, 263, 411]
38.466[338, 146, 80, 39, 42, 244, 277, 431]
38.481[339, 144, 80, 38, 46, 255, 332, 434]
38.503[313, 152, 97, 46, 45, 243, 345, 429]
38.527[321, 149, 99, 46, 38, 173, 334, 403]
38.556[302, 155, 107, 48, 40, 179, 423, 429]
38.563[306, 164, 95, 47, 43, 204, 445, 408]
38.587[316, 167, 96, 48, 46, 198, 435, 420]
38.609[292, 170, 85, 44, 46, 203, 421, 431]
38.623[296, 164, 81, 45, 51, 262, 445, 396]
38.647[303, 164, 85, 45, 50, 275, 377, 434]
38.669[333, 150, 87, 48, 48, 264, 340, 430]
38.684[331, 148, 81, 47, 45, 254, 289, 384]
38.707[358, 151, 89, 46, 43, 243, 277, 349]
38.729[374, 146, 89, 46, 39, 190, 238, 432]
38.744[412, 135, 83, 45, 40, 218, 265, 424]
38.766[382, 174, 94, 42, 45, 253, 262, 451]
38.789[429, 179, 99, 41, 45, 267, 275, 481]
38.804[432, 163, 91, 38, 46, 264, 273, 490]
38.826[440, 177, 94, 39, 50, 300, 288, 452]
38.85[495, 186, 86, 39, 48, 274, 298, 444]
38.864[529, 155, 70, 39, 45, 242, 326, 421]
38.887[487, 186, 76, 43, 43, 228, 327, 428]
38.909[483, 215, 90, 48, 47, 253, 337, 419]
38.925[499, 205, 85, 49, 49, 215, 328, 421]
38.946[463, 196, 86, 51, 55, 206, 295, 395]
38.969[424, 202, 93, 56, 56, 199, 254, 405]
38.984[418, 189, 96, 53, 57, 197, 246, 393]
39.007[432, 178, 91, 50, 53, 181, 258, 404]
39.029[454, 180, 98, 47, 51, 218, 336, 422]
39.043[421, 189, 100, 45, 50, 217, 326, 385]
39.067[429, 188, 97, 45, 50, 224, 341, 378]
39.089[445, 175, 94, 42, 48, 243, 353, 344]
39.112[424, 150, 89, 46, 50, 262, 377, 406]
39.128[391, 147, 87, 47, 47, 234, 311, 454]
39.149[373, 132, 81, 48, 43, 247, 307, 469]
39.163[384, 117, 83, 44, 41, 252, 312, 480]
39.187[369, 108, 115, 47, 46, 276, 358, 544]
39.209[394, 131, 119, 46, 44, 272, 316, 477]
39.223[360, 141, 121, 48, 42, 257, 299, 382]
39.247[382, 166, 126, 48, 44, 286, 334, 369]
39.27[359, 164, 124, 49, 45, 287, 335, 393]
39.283[359, 176, 90, 50, 43, 258, 296, 358]
39.307[344, 175, 86, 48, 43, 239, 299, 406]
39.329[321, 171, 82, 43, 45, 241, 336, 543]
39.344[295, 164, 109, 50, 45, 193, 342, 539]
39.367[290, 189, 128, 50, 44, 171, 362, 509]
39.389[278, 191, 128, 49, 47, 165, 347, 495]
39.403[250, 181, 124, 48, 44, 150, 340, 472]
39.427[234, 179, 122, 48, 44, 165, 350, 336]
39.449[243, 192, 94, 43, 41, 159, 320, 334]
39.472[251, 184, 67, 42, 41, 181, 277, 331]
39.487[283, 182, 86, 46, 50, 223, 308, 373]
39.509[276, 187, 88, 49, 55, 250, 327, 385]
39.532[295, 188, 91, 54, 58, 253, 314, 384]
39.547[280, 177, 96, 52, 58, 250, 307, 451]
39.569[263, 160, 95, 52, 58, 248, 333, 516]
39.591[288, 166, 79, 47, 51, 227, 327, 481]
39.607[337, 182, 77, 45, 47, 204, 321, 468]
39.629[349, 178, 76, 44, 48, 195, 293, 454]
39.652[397, 160, 67, 47, 49, 196, 308, 446]
39.667[396, 181, 71, 51, 48, 181, 292, 354]
39.689[368, 179, 63, 53, 48, 171, 288, 366]
39.712[343, 157, 61, 56, 52, 217, 331, 388]
39.727[326, 158, 68, 53, 50, 213, 325, 441]
39.75[266, 215, 84, 53, 52, 216, 309, 408]
39.772[303, 203, 83, 49, 51, 218, 349, 444]
39.787[342, 193, 82, 47, 51, 266, 370, 419]
39.809[330, 190, 83, 46, 49, 227, 339, 435]
39.832[341, 210, 85, 48, 48, 226, 343, 373]
39.847[353, 157, 74, 50, 45, 215, 347, 350]
39.869[312, 151, 92, 57, 51, 293, 318, 350]
39.892[283, 148, 99, 56, 49, 269, 311, 450]
39.907[302, 160, 102, 60, 48, 280, 293, 443]
39.929[298, 142, 98, 60, 46, 275, 286, 455]
39.952[299, 135, 96, 54, 46, 282, 307, 461]
39.966[310, 137, 79, 53, 42, 217, 298, 466]
39.989[316, 164, 73, 56, 43, 208, 306, 490]
40.012[293, 185, 75, 53, 44, 224, 319, 526]
40.026[303, 189, 75, 54, 45, 238, 319, 514]
40.05[304, 207, 72, 53, 44, 232, 299, 523]
40.072[307, 217, 78, 50, 46, 268, 330, 532]
40.093[304, 203, 82, 48, 46, 254, 291, 417]
40.11[338, 203, 78, 45, 45, 235, 298, 425]
40.139[316, 199, 80, 46, 48, 249, 339, 430]
40.154[338, 183, 84, 49, 52, 278, 376, 427]
40.17[357, 193, 78, 47, 54, 268, 390, 385]
40.191[366, 188, 74, 46, 52, 255, 379, 420]
40.208[341, 161, 76, 48, 51, 245, 354, 320]
40.23[345, 155, 71, 43, 48, 220, 334, 348]
40.251[315, 154, 70, 44, 43, 194, 304, 396]
40.268[290, 141, 68, 42, 36, 181, 247, 395]
40.29[247, 137, 67, 42, 34, 186, 257, 364]
40.311[235, 136, 59, 39, 33, 192, 290, 378]
40.327[259, 128, 61, 38, 33, 202, 263, 359]
40.35[254, 125, 59, 37, 36, 239, 254, 274]
40.371[246, 96, 57, 38, 39, 221, 238, 256]
40.387[236, 88, 56, 39, 40, 216, 229, 235]
40.41[225, 64, 70, 38, 39, 209, 176, 192]
40.431[164, 62, 66, 36, 38, 199, 172, 139]
40.454[121, 47, 62, 31, 36, 144, 135, 99]
40.47[79, 42, 62, 27, 29, 121, 132, 63]
40.498[67, 40, 69, 25, 31, 135, 133, 48]
40.513[51, 46, 72, 24, 36, 154, 150, 45]
40.53[47, 47, 71, 26, 37, 152, 147, 33]
40.551[41, 44, 72, 27, 35, 140, 146, 31]
40.573[36, 42, 70, 29, 36, 131, 131, 30]
40.596[32, 42, 60, 29, 32, 112, 116, 26]
40.611[27, 33, 32, 27, 29, 81, 80, 24]
40.634[26, 25, 33, 26, 24, 59, 65, 26]
40.65[25, 25, 29, 25, 24, 47, 55, 23]
40.671[22, 21, 29, 24, 22, 41, 51, 21]
40.694[22, 20, 26, 22, 22, 39, 49, 21]
40.71[19, 20, 25, 23, 19, 31, 39, 19]
40.731[20, 21, 25, 21, 21, 26, 33, 18]
40.754[20, 22, 29, 24, 21, 25, 28, 16]
40.769[20, 21, 28, 24, 21, 26, 26, 19]
40.791[20, 22, 29, 26, 20, 21, 23, 19]
40.814[23, 24, 27, 26, 20, 22, 21, 20]
40.829[22, 24, 27, 28, 21, 22, 18, 19]
40.851[24, 22, 22, 25, 19, 20, 17, 21]
40.874[23, 22, 22, 23, 20, 20, 17, 20]
40.888[23, 21, 21, 20, 21, 22, 17, 21]
40.911[21, 21, 22, 18, 24, 19, 19, 19]
40.933[21, 21, 22, 17, 23, 21, 18, 20]
40.956[20, 21, 22, 21, 23, 20, 21, 19]
40.971[19, 22, 23, 23, 24, 21, 22, 18]
40.994[19, 21, 25, 24, 24, 19, 22, 16]
41.009[19, 21, 25, 24, 22, 20, 22, 18]
41.031[19, 19, 22, 23, 23, 20, 21, 20]
41.053[16, 21, 23, 21, 24, 20, 18, 18]
41.068[19, 22, 24, 21, 23, 19, 20, 19]
41.091[21, 22, 24, 21, 26, 21, 20, 19]
41.113[21, 20, 23, 22, 28, 21, 21, 18]
41.128[23, 21, 27, 25, 26, 20, 21, 17]
41.159[24, 21, 27, 25, 27, 20, 21, 19]
41.173[23, 22, 27, 23, 24, 18, 19, 19]
41.188[21, 22, 25, 24, 21, 18, 18, 22]
41.211[22, 23, 26, 24, 22, 17, 17, 22]
41.234[19, 22, 24, 20, 21, 19, 18, 22]
41.248[17, 22, 21, 21, 21, 18, 19, 20]
41.271[20, 20, 20, 21, 22, 22, 17, 19]
41.294[20, 19, 21, 21, 21, 20, 21, 19]
41.309[19, 21, 22, 23, 20, 20, 21, 17]
41.331[21, 25, 20, 23, 20, 19, 21, 18]
41.354[22, 23, 22, 23, 19, 20, 20, 19]
41.376[19, 23, 22, 24, 21, 16, 24, 20]
41.391[21, 25, 21, 24, 22, 17, 23, 22]
41.414[23, 23, 18, 24, 24, 17, 24, 22]
41.436[23, 21, 19, 27, 27, 19, 24, 22]
41.451[23, 22, 17, 26, 28, 20, 25, 22]
41.473[24, 23, 19, 28, 27, 21, 22, 24]
41.496[25, 22, 21, 29, 28, 22, 21, 21]
41.511[25, 23, 23, 27, 26, 22, 21, 22]
41.535[25, 23, 23, 24, 23, 20, 20, 22]
41.556[25, 22, 26, 24, 21, 22, 18, 22]
41.572[25, 19, 24, 22, 20, 20, 19, 19]
41.594[24, 20, 24, 20, 19, 20, 20, 19]
41.616[26, 22, 23, 19, 21, 20, 19, 21]
41.632[27, 22, 22, 19, 22, 21, 21, 20]
41.654[25, 22, 21, 20, 24, 20, 22, 18]
41.685[25, 24, 19, 21, 25, 22, 21, 19]
41.693[24, 24, 21, 19, 25, 22, 20, 20]
41.714[21, 23, 20, 20, 23, 21, 20, 19]
41.736[21, 24, 22, 20, 21, 20, 20, 21]
41.751[25, 26, 22, 24, 20, 20, 20, 23]
41.774[25, 24, 23, 24, 22, 19, 20, 23]
41.812[23, 24, 23, 24, 23, 19, 21, 23]
41.814[24, 24, 23, 25, 25, 21, 22, 22]
41.834[25, 22, 21, 25, 25, 21, 21, 19]
41.856[23, 22, 20, 22, 25, 22, 21, 18]
41.871[22, 22, 20, 22, 23, 21, 21, 19]
41.894[23, 22, 19, 22, 24, 19, 20, 19]
41.916[22, 22, 18, 21, 23, 20, 18, 19]
41.931[22, 22, 18, 24, 24, 20, 18, 21]
41.954[22, 25, 20, 22, 23, 22, 19, 24]
41.976[23, 23, 18, 24, 24, 22, 18, 22]
41.991[22, 22, 18, 25, 23, 21, 22, 22]
42.014[25, 24, 20, 25, 22, 20, 23, 24]
42.036[29, 30, 20, 25, 25, 19, 23, 23]
42.051[30, 30, 24, 27, 26, 16, 22, 20]
42.073[31, 41, 29, 26, 26, 18, 23, 24]
42.096[32, 45, 29, 26, 27, 19, 21, 23]
42.111[32, 45, 29, 29, 27, 18, 21, 26]
42.134[28, 43, 31, 28, 25, 18, 22, 27]
42.156[27, 41, 28, 27, 23, 16, 22, 27]
42.171[27, 32, 27, 29, 25, 16, 21, 25]
42.194[27, 27, 26, 29, 26, 17, 21, 26]
42.216[25, 25, 26, 27, 28, 17, 20, 23]
42.231[25, 23, 25, 28, 26, 18, 21, 22]
42.254[24, 22, 26, 26, 27, 20, 19, 22]
42.276[25, 21, 25, 25, 24, 19, 20, 23]
42.291[26, 23, 25, 25, 23, 20, 21, 22]
42.314[26, 25, 24, 28, 22, 22, 23, 21]
42.336[28, 26, 23, 26, 21, 22, 21, 20]
42.359[28, 28, 23, 27, 19, 23, 21, 20]
42.375[27, 28, 22, 27, 20, 24, 21, 20]
42.396[25, 25, 22, 26, 19, 24, 21, 22]
42.419[26, 25, 22, 24, 22, 22, 19, 23]
42.434[22, 25, 21, 24, 22, 23, 19, 23]
42.456[24, 26, 23, 24, 23, 22, 21, 24]
42.479[24, 28, 22, 22, 24, 20, 22, 23]
42.494[26, 29, 21, 22, 23, 22, 23, 21]
42.516[28, 29, 22, 20, 23, 21, 23, 20]
42.539[27, 27, 24, 22, 26, 22, 24, 21]
42.554[26, 28, 22, 22, 24, 21, 23, 18]
42.576[26, 26, 23, 21, 23, 21, 23, 18]
42.6[26, 27, 25, 21, 23, 21, 22, 19]
42.614[24, 28, 25, 25, 22, 20, 21, 19]
42.636[25, 31, 24, 24, 20, 19, 23, 20]
42.659[23, 28, 23, 25, 20, 22, 23, 22]
42.674[24, 27, 22, 25, 21, 21, 22, 20]
42.696[25, 28, 21, 26, 23, 19, 20, 21]
42.72[24, 30, 20, 23, 21, 19, 21, 20]
42.734[28, 28, 19, 24, 22, 19, 21, 19]
42.756[30, 28, 19, 23, 22, 16, 19, 19]
42.779[30, 31, 21, 23, 23, 18, 18, 20]
42.794[27, 28, 21, 23, 22, 17, 20, 19]
42.816[28, 29, 21, 25, 22, 18, 21, 21]
42.84[28, 30, 22, 25, 22, 17, 19, 22]
42.854[26, 30, 21, 26, 23, 18, 22, 23]
42.876[27, 29, 20, 25, 20, 19, 23, 22]
42.899[31, 30, 21, 25, 20, 20, 24, 24]
42.922[29, 26, 21, 22, 19, 20, 22, 23]
42.937[28, 25, 21, 23, 19, 21, 24, 20]
42.959[30, 25, 23, 24, 19, 22, 22, 20]
42.974[28, 25, 24, 27, 19, 20, 21, 20]
42.996[25, 28, 23, 27, 19, 18, 21, 18]
43.019[27, 28, 25, 27, 21, 21, 22, 19]
43.034[25, 28, 23, 25, 23, 19, 20, 21]
43.056[23, 31, 25, 23, 23, 19, 21, 21]
43.079[22, 32, 26, 21, 24, 20, 19, 21]
43.094[21, 30, 27, 24, 24, 20, 19, 20]
43.116[21, 29, 25, 24, 23, 17, 19, 19]
43.139[19, 28, 27, 22, 21, 21, 20, 19]
43.154[22, 28, 24, 21, 22, 21, 20, 19]
43.176[23, 26, 24, 20, 20, 21, 22, 20]
43.2[27, 25, 22, 17, 20, 24, 21, 21]
43.214[27, 26, 23, 19, 21, 24, 21, 22]
43.236[28, 28, 22, 19, 21, 21, 19, 20]
43.259[26, 26, 24, 21, 20, 22, 20, 19]
43.282[26, 27, 24, 22, 21, 22, 19, 20]
43.296[22, 26, 23, 22, 21, 21, 21, 19]
43.319[26, 28, 23, 20, 21, 21, 20, 19]
43.342[25, 26, 23, 23, 22, 22, 20, 19]
43.356[29, 31, 23, 23, 22, 21, 20, 23]
43.379[28, 29, 21, 22, 23, 20, 20, 21]
43.402[31, 31, 21, 22, 23, 18, 17, 21]
43.416[27, 29, 20, 23, 22, 18, 19, 21]
43.44[28, 28, 21, 22, 23, 17, 21, 22]
43.462[25, 23, 21, 20, 22, 18, 21, 21]
43.476[27, 27, 23, 20, 23, 19, 23, 21]
43.499[25, 25, 24, 21, 23, 20, 23, 22]
43.522[26, 26, 24, 21, 24, 21, 24, 24]
43.536[25, 29, 24, 21, 24, 22, 23, 24]
43.559[24, 32, 23, 22, 26, 21, 23, 23]
43.582[20, 28, 22, 23, 23, 19, 20, 24]
43.596[19, 28, 21, 23, 24, 19, 21, 24]
43.619[21, 29, 21, 24, 25, 18, 19, 22]
43.642[26, 26, 21, 23, 25, 18, 16, 22]
43.656[26, 23, 20, 23, 25, 17, 16, 22]
43.68[28, 25, 21, 23, 27, 19, 18, 22]
43.702[28, 25, 21, 25, 27, 23, 16, 22]
43.716[28, 26, 22, 28, 28, 24, 18, 23]
43.739[26, 28, 21, 29, 26, 23, 20, 23]
43.762[29, 28, 21, 29, 24, 25, 23, 23]
43.776[28, 28, 21, 30, 24, 26, 22, 22]
43.799[28, 27, 21, 29, 24, 21, 23, 23]
43.83[27, 27, 21, 27, 23, 24, 22, 20]
43.836[28, 25, 21, 27, 23, 24, 21, 21]
43.86[24, 25, 23, 28, 25, 23, 18, 23]
43.882[24, 26, 22, 28, 24, 21, 18, 24]
43.896[23, 28, 21, 27, 22, 23, 18, 23]
43.919[22, 26, 22, 26, 23, 21, 26, 24]
43.942[18, 26, 21, 23, 22, 22, 29, 22]
43.957[21, 26, 19, 23, 21, 22, 30, 21]
43.979[25, 30, 20, 21, 21, 23, 31, 21]
44.002[27, 29, 22, 22, 21, 23, 31, 22]
44.016[29, 29, 21, 23, 20, 23, 26, 25]
44.039[28, 29, 20, 24, 21, 22, 23, 25]
44.062[27, 31, 22, 22, 21, 22, 21, 25]
44.076[22, 26, 23, 23, 20, 21, 20, 24]
44.099[23, 24, 21, 22, 21, 20, 32, 22]
44.122[19, 24, 22, 21, 23, 21, 32, 20]
44.136[20, 28, 22, 21, 23, 20, 32, 21]
44.16[19, 26, 23, 21, 24, 22, 32, 22]
44.182[19, 27, 22, 21, 25, 22, 33, 25]
44.198[19, 27, 23, 23, 25, 22, 22, 26]
44.22[23, 31, 24, 22, 24, 20, 19, 25]
44.242[22, 27, 24, 23, 22, 21, 20, 23]
44.265[23, 27, 22, 24, 22, 19, 21, 21]
44.28[25, 28, 22, 26, 22, 20, 21, 17]
44.302[25, 30, 22, 24, 20, 19, 20, 19]
44.325[22, 26, 18, 23, 21, 20, 21, 20]
44.34[25, 26, 20, 25, 23, 20, 21, 21]
44.362[25, 27, 21, 23, 22, 20, 27, 23]
44.384[25, 26, 21, 19, 22, 19, 27, 25]
44.4[25, 23, 23, 21, 24, 22, 29, 22]
44.422[26, 24, 23, 23, 23, 21, 29, 22]
44.445[24, 25, 23, 21, 22, 19, 29, 22]
44.46[25, 22, 24, 22, 22, 21, 23, 21]
44.482[25, 23, 25, 22, 22, 21, 24, 20]
44.504[25, 25, 23, 21, 21, 20, 22, 21]
44.519[23, 26, 25, 19, 21, 20, 23, 21]
44.542[23, 27, 24, 19, 22, 22, 23, 21]
44.565[23, 29, 23, 18, 21, 20, 23, 22]
44.58[24, 26, 23, 20, 21, 21, 25, 21]
44.602[24, 24, 24, 21, 21, 21, 33, 21]
44.625[24, 25, 22, 22, 21, 22, 33, 23]
44.64[26, 23, 23, 22, 24, 21, 33, 22]
44.663[27, 27, 24, 24, 25, 22, 32, 21]
44.685[25, 27, 22, 22, 24, 23, 31, 24]
44.7[25, 27, 23, 24, 24, 22, 23, 25]
44.722[27, 28, 24, 23, 23, 21, 22, 25]
44.745[25, 27, 25, 25, 21, 21, 21, 25]
44.759[24, 20, 23, 24, 21, 20, 22, 25]
44.782[24, 21, 24, 25, 22, 19, 22, 24]
44.805[24, 25, 24, 22, 23, 20, 22, 23]
44.819[21, 23, 24, 24, 24, 20, 21, 23]
44.842[21, 25, 22, 24, 22, 20, 20, 22]
44.865[20, 25, 23, 23, 22, 22, 21, 21]
44.879[21, 30, 23, 22, 22, 20, 19, 21]
44.902[19, 27, 22, 22, 21, 23, 19, 19]
44.925[21, 28, 22, 20, 22, 21, 20, 20]
44.94[23, 29, 22, 17, 22, 22, 20, 20]
44.962[23, 29, 23, 18, 21, 23, 18, 20]
44.984[21, 24, 21, 18, 21, 24, 19, 22]
44.999[21, 26, 21, 21, 23, 21, 19, 22]
45.023[20, 25, 22, 21, 21, 24, 17, 21]
45.044[19, 25, 23, 25, 22, 23, 20, 23]
45.066[22, 24, 23, 27, 22, 20, 22, 26]
45.083[22, 24, 24, 28, 24, 21, 23, 25]
45.104[24, 22, 24, 25, 21, 22, 23, 26]
45.126[26, 24, 25, 29, 21, 18, 23, 27]
45.143[25, 23, 24, 26, 21, 17, 22, 24]
45.164[22, 23, 23, 24, 21, 17, 20, 20]
45.187[24, 22, 23, 25, 19, 15, 18, 19]
45.203[25, 23, 22, 26, 22, 15, 19, 22]
45.224[21, 21, 19, 24, 21, 17, 18, 20]
45.247[23, 24, 19, 25, 21, 20, 20, 22]
45.263[25, 25, 20, 27, 22, 20, 20, 23]
45.284[23, 26, 20, 24, 24, 19, 21, 25]
45.307[26, 26, 20, 25, 24, 20, 19, 21]
45.323[28, 27, 22, 25, 24, 19, 19, 24]
45.344[28, 25, 22, 25, 24, 18, 16, 23]
45.367[26, 26, 21, 22, 22, 19, 17, 24]
45.383[26, 25, 21, 21, 23, 19, 17, 22]
45.404[22, 28, 22, 21, 20, 19, 18, 22]
45.427[19, 28, 22, 22, 19, 20, 18, 19]
45.443[19, 32, 24, 24, 21, 20, 19, 21]
45.465[18, 31, 24, 25, 22, 20, 19, 20]
45.487[20, 33, 23, 26, 20, 21, 20, 24]
45.503[20, 30, 23, 27, 22, 21, 19, 23]
45.524[20, 30, 23, 26, 24, 19, 19, 23]
45.547[20, 27, 22, 24, 23, 19, 17, 21]
45.57[23, 26, 22, 24, 23, 22, 23, 23]
45.584[21, 24, 22, 23, 23, 24, 21, 20]
45.607[19, 25, 22, 20, 23, 25, 21, 19]
45.624[22, 26, 21, 19, 22, 25, 24, 22]
45.644[21, 24, 19, 17, 22, 25, 25, 21]
45.667[18, 25, 19, 17, 22, 24, 20, 19]
45.683[20, 26, 19, 17, 23, 20, 20, 20]
45.704[22, 30, 20, 18, 23, 19, 22, 21]
45.727[22, 27, 19, 20, 22, 21, 21, 17]
45.743[23, 29, 19, 20, 21, 20, 19, 18]
45.764[24, 28, 20, 20, 21, 20, 20, 20]
45.788[22, 31, 22, 22, 21, 21, 21, 20]
45.803[22, 25, 20, 23, 21, 22, 21, 18]
45.824[21, 27, 22, 21, 21, 20, 20, 20]
45.847[20, 27, 22, 23, 22, 22, 21, 18]
45.863[22, 30, 22, 23, 22, 22, 20, 17]
45.884[23, 26, 22, 21, 20, 21, 19, 16]
45.906[23, 25, 23, 22, 20, 21, 20, 18]
45.923[24, 26, 25, 23, 20, 20, 22, 18]
45.944[24, 27, 26, 21, 22, 19, 22, 20]
45.967[23, 24, 25, 21, 19, 17, 22, 20]
45.983[25, 26, 25, 22, 19, 19, 22, 20]
46.004[24, 28, 24, 19, 20, 19, 21, 19]
46.027[25, 28, 21, 19, 20, 20, 21, 21]
46.051[25, 26, 20, 22, 18, 21, 20, 19]
46.064[25, 26, 23, 21, 19, 21, 20, 22]
46.087[21, 25, 22, 21, 19, 21, 22, 20]
46.109[22, 23, 23, 23, 19, 21, 20, 22]
46.124[23, 21, 21, 22, 20, 19, 20, 22]
46.147[23, 22, 22, 23, 20, 16, 21, 22]
46.169[22, 24, 19, 24, 19, 18, 21, 22]
46.184[24, 25, 18, 22, 18, 17, 23, 22]
46.207[24, 31, 22, 23, 17, 19, 23, 23]
46.229[20, 30, 25, 24, 16, 20, 24, 21]
46.244[21, 30, 25, 23, 17, 23, 22, 22]
46.267[23, 31, 25, 23, 18, 22, 22, 22]
46.289[23, 34, 26, 23, 19, 23, 19, 23]
46.304[25, 29, 26, 25, 23, 21, 19, 21]
46.327[25, 29, 26, 26, 25, 20, 18, 23]
46.349[24, 31, 26, 25, 23, 18, 19, 22]
46.364[26, 29, 29, 26, 23, 18, 20, 24]
46.387[25, 25, 29, 25, 22, 17, 20, 22]
46.409[24, 26, 27, 24, 20, 19, 18, 23]
46.424[24, 25, 27, 20, 19, 19, 17, 22]
46.455[23, 24, 26, 23, 21, 19, 17, 22]
46.469[19, 23, 24, 23, 20, 19, 17, 18]
46.484[20, 23, 23, 25, 20, 18, 17, 22]
46.507[20, 23, 23, 24, 20, 18, 18, 20]
46.529[22, 23, 20, 24, 20, 18, 18, 20]
46.545[24, 22, 22, 22, 20, 18, 19, 21]
46.567[25, 23, 21, 24, 23, 18, 18, 24]
46.589[23, 25, 23, 22, 24, 21, 19, 22]
46.604[24, 24, 22, 21, 24, 20, 18, 23]
46.627[25, 27, 22, 22, 23, 22, 20, 24]
46.649[25, 28, 24, 22, 23, 23, 19, 25]
46.664[25, 29, 23, 21, 22, 22, 20, 21]
46.686[26, 30, 21, 22, 23, 22, 20, 21]
46.709[26, 29, 21, 23, 23, 23, 22, 22]
46.724[23, 28, 22, 23, 24, 22, 22, 20]
46.747[21, 27, 23, 23, 23, 23, 22, 19]
46.769[21, 29, 23, 23, 23, 23, 25, 20]
46.792[21, 25, 24, 23, 21, 21, 24, 19]
46.807[20, 26, 24, 24, 22, 21, 22, 17]
46.829[21, 24, 24, 23, 22, 21, 22, 18]
46.844[23, 25, 21, 22, 21, 19, 21, 19]
46.867[20, 24, 21, 20, 21, 18, 20, 20]
46.889[21, 23, 20, 21, 23, 18, 20, 20]
46.904[23, 22, 22, 21, 22, 18, 19, 20]
46.926[22, 25, 22, 21, 21, 18, 20, 21]
46.95[23, 26, 22, 22, 22, 19, 19, 20]
46.964[23, 24, 21, 21, 21, 20, 19, 19]
46.987[22, 26, 25, 23, 19, 21, 20, 20]
47.018[22, 27, 23, 24, 21, 20, 21, 21]
47.024[23, 28, 23, 25, 21, 19, 21, 23]
47.047[22, 26, 24, 24, 21, 18, 22, 23]
47.069[23, 28, 26, 25, 22, 18, 21, 23]
47.092[24, 27, 25, 25, 22, 18, 22, 23]
47.107[22, 26, 26, 23, 19, 19, 21, 22]
47.13[21, 24, 25, 25, 22, 21, 20, 20]
47.152[21, 24, 24, 25, 21, 22, 20, 21]
47.175[22, 20, 23, 25, 21, 23, 22, 20]
47.189[23, 25, 22, 23, 22, 22, 20, 20]
47.211[21, 25, 19, 24, 22, 23, 20, 22]
47.227[22, 24, 22, 20, 19, 20, 22, 22]
47.249[21, 24, 22, 20, 21, 21, 21, 21]
47.272[22, 31, 22, 23, 19, 19, 19, 22]
47.288[22, 30, 21, 22, 19, 19, 19, 23]
47.309[24, 32, 23, 22, 23, 19, 22, 22]
47.332[24, 31, 21, 26, 22, 19, 19, 22]
47.347[24, 36, 22, 26, 22, 18, 18, 23]
47.37[22, 31, 23, 26, 23, 18, 20, 23]
47.392[22, 28, 23, 27, 23, 18, 19, 22]
47.408[21, 28, 20, 26, 19, 16, 17, 22]
47.437[24, 32, 21, 24, 20, 16, 18, 22]
47.452[22, 26, 19, 23, 22, 17, 19, 23]
47.467[23, 26, 19, 22, 21, 18, 20, 21]
47.489[21, 28, 20, 20, 21, 17, 19, 21]
47.512[22, 26, 20, 20, 24, 18, 19, 22]
47.527[19, 25, 24, 19, 24, 19, 19, 21]
47.549[22, 25, 26, 19, 22, 17, 19, 21]
47.572[22, 26, 25, 19, 23, 17, 15, 22]
47.587[22, 25, 25, 20, 23, 18, 16, 23]
47.609[22, 28, 25, 20, 19, 20, 17, 21]
47.632[23, 28, 23, 21, 21, 19, 17, 21]
47.647[22, 29, 22, 21, 20, 19, 17, 18]
47.669[21, 30, 24, 23, 20, 19, 17, 17]
47.692[22, 31, 23, 23, 20, 18, 19, 17]
47.707[22, 28, 25, 23, 21, 16, 20, 17]
47.729[23, 28, 23, 24, 20, 18, 19, 17]
47.752[22, 27, 23, 25, 21, 19, 22, 20]
47.767[24, 25, 23, 25, 22, 20, 22, 21]
47.789[23, 26, 24, 24, 23, 20, 21, 22]
47.812[23, 27, 24, 25, 24, 19, 19, 24]
47.827[24, 25, 25, 24, 23, 19, 21, 23]
47.849[26, 27, 25, 25, 22, 18, 18, 22]
47.872[26, 29, 24, 24, 22, 18, 18, 23]
47.887[27, 27, 25, 25, 22, 19, 17, 23]
47.909[26, 26, 23, 23, 21, 21, 21, 22]
47.932[24, 26, 22, 22, 22, 21, 19, 22]
47.947[26, 28, 22, 23, 23, 21, 20, 23]
47.969[25, 26, 21, 24, 24, 20, 20, 23]
47.992[24, 27, 22, 26, 24, 19, 20, 22]
48.015[27, 30, 25, 31, 24, 18, 21, 23]
48.029[28, 31, 26, 32, 25, 18, 22, 26]
48.052[26, 27, 25, 31, 24, 20, 21, 25]
48.075[26, 27, 26, 30, 24, 19, 23, 23]
48.089[26, 26, 27, 28, 24, 20, 22, 24]
48.112[25, 23, 24, 23, 22, 20, 18, 21]
48.135[23, 25, 25, 21, 21, 22, 16, 19]
48.15[25, 28, 26, 22, 20, 20, 20, 19]
48.172[25, 27, 24, 22, 19, 22, 18, 20]
48.195[25, 27, 23, 23, 18, 22, 20, 22]
48.209[24, 29, 23, 23, 21, 23, 21, 22]
48.232[25, 27, 22, 23, 21, 20, 22, 22]
48.255[22, 23, 21, 21, 23, 20, 20, 23]
48.269[24, 26, 24, 21, 22, 18, 21, 24]
48.292[24, 27, 24, 20, 25, 20, 21, 21]
48.315[21, 26, 25, 20, 24, 17, 18, 20]
48.329[21, 25, 25, 20, 24, 17, 18, 20]
48.353[23, 27, 25, 20, 24, 17, 17, 20]
48.375[22, 26, 23, 22, 23, 16, 16, 22]
48.389[22, 26, 24, 22, 21, 15, 17, 23]
48.412[21, 26, 23, 24, 21, 16, 17, 25]
48.436[21, 26, 23, 25, 22, 17, 18, 25]
48.449[22, 24, 24, 25, 20, 17, 20, 26]
48.472[22, 26, 24, 23, 22, 19, 20, 24]
48.495[21, 26, 23, 22, 24, 19, 21, 22]
48.509[23, 24, 22, 22, 23, 19, 21, 20]
48.533[23, 29, 22, 22, 23, 18, 20, 19]
48.555[21, 28, 24, 21, 24, 21, 19, 18]
48.569[22, 25, 26, 24, 24, 19, 19, 18]
48.593[25, 26, 28, 25, 21, 18, 19, 20]
48.615[25, 27, 29, 25, 25, 18, 20, 21]
48.638[26, 23, 27, 23, 25, 20, 20, 20]
48.653[26, 24, 25, 24, 24, 17, 21, 20]
48.675[25, 25, 26, 21, 22, 18, 21, 20]
48.698[25, 30, 25, 22, 23, 19, 20, 18]
48.712[25, 30, 26, 20, 23, 20, 20, 18]
48.735[25, 30, 26, 21, 24, 22, 20, 20]
48.75[24, 29, 27, 21, 24, 21, 19, 21]
48.773[24, 29, 22, 22, 25, 21, 19, 21]
48.795[23, 27, 20, 22, 25, 21, 19, 22]
48.809[24, 27, 20, 22, 22, 20, 20, 24]
48.832[20, 29, 20, 22, 21, 17, 18, 22]
48.855[22, 29, 19, 22, 24, 19, 19, 21]
48.869[21, 29, 19, 20, 23, 21, 20, 22]
48.892[22, 25, 19, 20, 22, 19, 19, 22]
48.915[24, 24, 18, 20, 20, 21, 18, 19]
48.929[24, 25, 19, 20, 21, 20, 20, 20]
48.952[32, 26, 19, 21, 18, 20, 19, 20]
48.975[32, 26, 22, 24, 18, 18, 17, 20]
48.998[32, 27, 22, 21, 21, 18, 17, 19]
49.012[30, 27, 21, 22, 22, 17, 17, 20]
49.035[30, 26, 22, 23, 23, 18, 18, 20]
49.057[22, 23, 23, 22, 21, 18, 18, 22]
49.073[23, 23, 23, 21, 21, 17, 18, 22]
49.102[23, 22, 25, 22, 21, 18, 19, 22]
49.118[22, 25, 24, 22, 23, 19, 21, 21]
49.132[21, 22, 23, 21, 21, 21, 21, 23]
49.155[23, 24, 22, 20, 23, 22, 22, 21]
49.178[25, 26, 20, 19, 22, 21, 21, 21]
49.193[25, 28, 22, 18, 21, 23, 22, 21]
49.215[25, 25, 23, 20, 19, 21, 21, 21]
49.238[26, 29, 23, 21, 22, 23, 21, 23]
49.253[23, 27, 24, 21, 20, 22, 21, 22]
49.275[27, 26, 24, 21, 22, 25, 22, 22]
49.306[27, 26, 21, 20, 23, 23, 21, 23]
49.313[26, 25, 20, 18, 23, 23, 22, 23]
49.335[26, 24, 24, 18, 22, 22, 20, 22]
49.358[27, 25, 23, 19, 22, 22, 20, 23]
49.373[21, 24, 23, 19, 25, 18, 20, 23]
49.395[21, 22, 23, 20, 24, 19, 21, 21]
49.418[22, 22, 24, 22, 23, 19, 19, 21]
49.432[26, 20, 21, 20, 22, 18, 21, 19]
49.455[25, 20, 21, 19, 24, 17, 19, 19]
49.478[25, 22, 22, 20, 20, 18, 18, 19]
49.492[23, 23, 21, 21, 20, 19, 19, 19]
49.515[26, 23, 20, 20, 20, 20, 21, 18]
49.538[23, 25, 22, 23, 20, 20, 19, 20]
49.552[25, 24, 23, 23, 18, 23, 18, 19]
49.575[26, 21, 22, 25, 19, 24, 19, 20]
49.598[27, 20, 23, 25, 19, 25, 19, 21]
49.612[23, 23, 24, 25, 19, 24, 17, 22]
49.635[21, 23, 24, 25, 20, 23, 18, 22]
49.657[20, 23, 23, 24, 20, 21, 19, 23]
49.672[21, 24, 22, 22, 21, 20, 19, 22]
49.695[21, 28, 24, 21, 21, 20, 17, 21]
49.717[26, 27, 22, 21, 20, 19, 19, 21]
49.732[26, 24, 22, 20, 19, 20, 18, 20]
49.763[26, 25, 23, 22, 18, 19, 19, 19]
49.778[23, 25, 25, 21, 18, 19, 21, 19]
49.792[24, 23, 23, 20, 20, 18, 22, 18]
49.815[22, 23, 24, 20, 19, 18, 22, 19]
49.838[22, 23, 23, 19, 21, 19, 22, 18]
49.852[23, 30, 22, 19, 21, 22, 22, 22]
49.875[25, 29, 21, 19, 20, 22, 20, 20]
49.897[26, 29, 21, 19, 18, 21, 21, 20]
49.92[25, 27, 22, 19, 19, 24, 20, 19]
49.935[28, 30, 22, 18, 18, 23, 21, 21]
49.958[28, 29, 22, 19, 19, 20, 21, 17]
49.98[27, 30, 21, 20, 22, 21, 21, 17]
49.995[26, 29, 22, 22, 21, 22, 23, 18]
50.018[28, 34, 20, 22, 23, 20, 22, 19]
50.04[26, 32, 21, 22, 23, 20, 22, 17]
50.056[26, 28, 20, 22, 24, 21, 22, 16]
50.077[27, 27, 23, 23, 24, 19, 22, 16]
50.1[26, 29, 24, 21, 25, 18, 21, 18]
50.116[28, 24, 26, 22, 25, 18, 22, 18]
50.137[26, 23, 26, 22, 25, 16, 21, 18]
50.159[25, 23, 26, 21, 23, 20, 22, 19]
50.176[25, 30, 23, 21, 22, 20, 21, 19]
50.197[25, 26, 21, 21, 22, 19, 21, 18]
50.219[23, 26, 21, 21, 21, 20, 20, 19]
50.236[23, 27, 21, 21, 19, 21, 21, 21]
50.257[24, 30, 20, 21, 19, 18, 19, 21]
50.279[22, 23, 22, 20, 19, 19, 20, 22]
50.296[26, 25, 24, 21, 20, 21, 20, 20]
50.317[24, 26, 22, 19, 20, 21, 19, 21]
50.339[25, 28, 21, 20, 21, 20, 19, 21]
50.356[25, 26, 24, 21, 21, 19, 20, 19]
50.377[25, 26, 23, 23, 21, 21, 20, 20]
50.399[21, 27, 21, 22, 21, 18, 19, 21]
50.416[22, 27, 22, 23, 21, 19, 19, 21]
50.437[23, 25, 23, 21, 20, 21, 19, 20]
50.459[27, 25, 21, 20, 23, 23, 18, 23]
50.491[29, 26, 23, 19, 22, 23, 19, 22]
50.497[27, 25, 24, 20, 21, 23, 19, 22]
50.519[28, 29, 25, 19, 22, 22, 19, 22]
50.536[28, 28, 25, 22, 24, 20, 19, 21]
50.557