[21, 23, 23, 20, 24, 22, 24, 41]
1.869[23, 23, 23, 21, 26, 22, 24, 21]
1.892[23, 24, 23, 22, 26, 23, 23, 18]
1.914[22, 25, 23, 25, 25, 21, 24, 20]
1.929[20, 23, 22, 24, 24, 22, 21, 19]
1.951[21, 18, 18, 23, 21, 18, 20, 20]
1.974[17, 19, 17, 23, 15, 19, 18, 21]
1.99[16, 18, 17, 21, 15, 17, 16, 21]
2.011[16, 17, 18, 22, 16, 17, 16, 18]
2.034[17, 18, 17, 22, 17, 16, 17, 21]
2.049[18, 20, 18, 21, 16, 17, 17, 21]
2.071[19, 20, 19, 21, 17, 17, 18, 21]
2.094[20, 18, 21, 22, 18, 19, 20, 21]
2.109[21, 19, 23, 22, 20, 19, 20, 22]
2.131[20, 19, 23, 20, 21, 20, 21, 19]
2.154[19, 20, 22, 21, 22, 19, 21, 19]
2.169[20, 19, 21, 20, 22, 19, 21, 20]
2.191[21, 21, 19, 22, 22, 18, 20, 19]
2.214[21, 20, 17, 19, 21, 19, 20, 19]
2.229[22, 22, 16, 20, 18, 20, 19, 19]
2.251[22, 19, 18, 19, 19, 20, 19, 18]
2.275[21, 22, 19, 19, 17, 21, 19, 18]
2.289[19, 21, 20, 18, 16, 21, 20, 20]
2.311[19, 21, 20, 20, 17, 20, 19, 19]
2.334[18, 19, 20, 19, 17, 17, 21, 20]
2.349[18, 21, 20, 21, 15, 18, 21, 19]
2.371[16, 17, 21, 23, 17, 18, 24, 19]
2.394[19, 16, 19, 21, 17, 18, 22, 21]
2.409[19, 17, 18, 22, 17, 18, 24, 22]
2.431[19, 17, 20, 23, 19, 19, 23, 25]
2.454[21, 19, 21, 22, 20, 21, 23, 25]
2.476[23, 20, 19, 22, 22, 20, 22, 27]
2.492[20, 21, 19, 24, 22, 20, 22, 25]
2.514[18, 21, 20, 25, 23, 21, 22, 25]
2.529[19, 21, 19, 26, 22, 20, 22, 23]
2.552[18, 20, 19, 26, 20, 20, 22, 24]
2.574[17, 22, 21, 25, 19, 19, 21, 21]
2.589[18, 21, 21, 23, 20, 19, 21, 21]
2.619[18, 21, 21, 21, 19, 18, 21, 23]
2.634[19, 21, 21, 18, 18, 18, 21, 24]
2.649[19, 20, 20, 20, 19, 16, 21, 23]
2.671[20, 18, 19, 18, 18, 17, 21, 22]
2.694[21, 19, 19, 18, 19, 15, 23, 23]
2.716[21, 19, 19, 21, 19, 16, 22, 21]
2.731[20, 19, 19, 21, 20, 16, 23, 18]
2.754[21, 19, 19, 22, 20, 17, 26, 21]
2.776[23, 20, 19, 22, 20, 16, 25, 21]
2.8[22, 20, 20, 23, 17, 18, 23, 21]
2.814[21, 19, 18, 21, 19, 19, 23, 19]
2.837[20, 21, 18, 21, 21, 19, 21, 20]
2.859[18, 20, 19, 19, 21, 18, 17, 18]
2.874[18, 20, 20, 19, 21, 19, 18, 19]
2.896[17, 20, 19, 21, 22, 18, 17, 19]
2.92[17, 22, 20, 20, 20, 17, 19, 20]
2.934[19, 21, 21, 21, 19, 19, 18, 20]
2.956[21, 21, 20, 21, 18, 20, 17, 20]
2.979[19, 22, 18, 23, 19, 21, 17, 20]
3.002[20, 21, 20, 21, 21, 22, 19, 24]
3.016[21, 20, 20, 24, 22, 23, 18, 24]
3.039[19, 20, 22, 24, 22, 22, 18, 23]
3.054[17, 21, 22, 23, 21, 22, 19, 22]
3.076[19, 21, 22, 22, 23, 20, 21, 22]
3.1[19, 21, 23, 22, 22, 20, 18, 19]
3.114[19, 22, 23, 21, 22, 19, 18, 20]
3.136[20, 20, 23, 20, 22, 18, 17, 21]
3.159[19, 20, 24, 20, 22, 16, 19, 21]
3.175[17, 19, 23, 21, 20, 16, 18, 21]
3.196[17, 21, 22, 21, 20, 16, 19, 20]
3.219[19, 21, 23, 20, 21, 17, 21, 18]
3.242[20, 23, 22, 20, 22, 17, 21, 16]
3.256[21, 22, 23, 21, 21, 17, 18, 17]
3.28[22, 22, 24, 21, 22, 18, 19, 19]
3.31[21, 22, 24, 21, 22, 20, 21, 20]
3.317[22, 21, 22, 20, 21, 19, 21, 20]
3.347[21, 21, 22, 21, 21, 19, 22, 20]
3.362[21, 22, 20, 19, 22, 22, 23, 21]
3.376[21, 22, 20, 21, 21, 23, 22, 22]
3.4[23, 23, 21, 21, 21, 20, 21, 21]
3.423[22, 22, 20, 22, 20, 22, 21, 21]
3.436[21, 21, 19, 21, 21, 22, 21, 21]
3.467[21, 22, 19, 22, 22, 20, 20, 20]
3.482[21, 23, 19, 22, 22, 21, 20, 19]
3.496[21, 21, 18, 21, 21, 22, 21, 18]
3.519[19, 22, 20, 22, 22, 21, 20, 18]
3.542[19, 22, 21, 23, 22, 19, 20, 20]
3.556[20, 22, 21, 22, 22, 20, 20, 19]
3.581[23, 21, 20, 19, 22, 17, 21, 18]
3.602[22, 20, 21, 19, 23, 16, 20, 19]
3.617[23, 21, 20, 19, 23, 17, 19, 18]
3.639[24, 22, 19, 21, 21, 17, 18, 18]
3.662[22, 21, 21, 21, 21, 18, 20, 19]
3.677[20, 21, 22, 21, 19, 18, 22, 21]
3.699[20, 22, 21, 20, 22, 20, 21, 20]
3.722[20, 20, 19, 21, 21, 19, 21, 20]
3.736[18, 19, 20, 19, 22, 20, 23, 20]
3.76[19, 19, 18, 18, 22, 19, 21, 19]
3.782[21, 20, 17, 20, 23, 21, 18, 18]
3.797[20, 20, 17, 19, 20, 19, 18, 19]
3.819[19, 20, 18, 19, 21, 19, 21, 19]
3.842[20, 20, 20, 22, 22, 18, 21, 18]
3.864[19, 19, 21, 22, 21, 20, 21, 20]
3.879[18, 17, 21, 23, 19, 19, 21, 21]
3.902[18, 19, 21, 24, 20, 19, 22, 20]
3.916[18, 20, 21, 24, 19, 20, 19, 18]
3.939[18, 19, 18, 20, 17, 21, 18, 20]
3.962[18, 20, 18, 21, 18, 19, 19, 19]
3.985[16, 20, 17, 21, 19, 19, 19, 18]
4.0[18, 21, 18, 24, 22, 19, 18, 21]
4.03[19, 22, 17, 25, 21, 19, 18, 22]
4.036[18, 23, 18, 28, 23, 19, 20, 21]
4.059[17, 22, 19, 26, 22, 19, 19, 21]
4.082[17, 22, 21, 28, 21, 18, 19, 23]
4.096[17, 20, 24, 23, 19, 18, 19, 22]
4.119[16, 21, 25, 23, 19, 17, 21, 22]
4.142[18, 21, 24, 22, 22, 17, 19, 22]
4.165[20, 22, 25, 21, 23, 16, 18, 23]
4.179[22, 24, 23, 19, 23, 19, 19, 21]
4.202[21, 24, 19, 19, 23, 19, 18, 19]
4.225[21, 25, 20, 22, 23, 19, 17, 18]
4.24[21, 23, 22, 19, 23, 19, 17, 19]
4.262[20, 24, 21, 20, 22, 20, 20, 17]
4.285[19, 22, 21, 20, 23, 17, 20, 17]
4.299[22, 23, 22, 23, 23, 18, 22, 19]
4.322[22, 21, 24, 22, 23, 19, 21, 19]
4.345[20, 23, 23, 23, 22, 19, 23, 19]
4.359[20, 22, 23, 22, 22, 19, 22, 20]
4.382[21, 23, 23, 22, 22, 19, 22, 19]
4.405[19, 23, 23, 18, 20, 18, 20, 18]
4.42[19, 22, 20, 17, 20, 18, 20, 20]
4.442[19, 21, 19, 16, 19, 20, 20, 18]
4.465[22, 20, 17, 18, 19, 19, 18, 19]
4.479[21, 19, 18, 20, 19, 21, 17, 20]
4.502[20, 20, 17, 20, 20, 20, 19, 20]
4.524[20, 19, 18, 20, 19, 20, 21, 20]
4.539[20, 20, 20, 21, 19, 18, 19, 22]
4.562[19, 20, 20, 20, 20, 19, 19, 23]
4.585[19, 21, 20, 19, 18, 20, 23, 22]
4.6[20, 20, 22, 20, 17, 21, 22, 22]
4.622[21, 22, 21, 24, 20, 21, 20, 21]
4.645[22, 21, 20, 24, 20, 21, 20, 19]
4.659[21, 21, 20, 25, 20, 20, 20, 19]
4.682[21, 19, 21, 25, 20, 19, 16, 20]
4.704[21, 18, 21, 24, 21, 20, 15, 20]
4.719[20, 19, 21, 21, 20, 18, 16, 21]
4.742[19, 19, 21, 23, 20, 18, 15, 22]
4.764[19, 20, 22, 22, 22, 19, 18, 20]
4.779[23, 20, 21, 22, 22, 20, 21, 19]
4.802[22, 21, 20, 22, 22, 19, 21, 19]
4.824[21, 19, 21, 23, 22, 20, 23, 20]
4.847[20, 19, 21, 19, 22, 23, 23, 20]
4.863[21, 20, 21, 19, 19, 22, 22, 22]
4.884[15, 20, 20, 18, 22, 21, 21, 22]
4.907[16, 20, 20, 19, 22, 20, 22, 22]
4.923[15, 20, 19, 19, 21, 22, 21, 19]
4.944[17, 23, 20, 20, 20, 19, 24, 21]
4.966[15, 20, 19, 18, 21, 19, 24, 19]
4.983[16, 20, 19, 18, 19, 19, 24, 19]
5.004[16, 22, 19, 18, 17, 18, 24, 19]
5.026[17, 22, 19, 20, 18, 20, 22, 20]
5.043[18, 21, 19, 19, 18, 21, 23, 19]
5.064[19, 21, 20, 19, 17, 20, 21, 20]
5.086[20, 22, 19, 21, 17, 20, 20, 22]
5.103[19, 19, 21, 21, 18, 23, 19, 22]
5.124[20, 21, 21, 20, 20, 22, 18, 20]
5.146[19, 22, 20, 21, 21, 20, 18, 22]
5.163[18, 23, 20, 22, 23, 22, 20, 21]
5.184[17, 21, 21, 20, 23, 22, 19, 19]
5.206[16, 21, 19, 21, 23, 19, 21, 17]
5.223[16, 19, 19, 21, 21, 19, 20, 19]
5.251[16, 18, 20, 22, 21, 17, 19, 18]
5.266[17, 19, 22, 22, 18, 16, 18, 16]
5.283[20, 19, 23, 22, 17, 17, 19, 19]
5.304[21, 20, 22, 23, 18, 16, 17, 20]
5.327[20, 20, 21, 22, 18, 16, 18, 21]
5.343[19, 20, 24, 22, 19, 18, 19, 22]
5.364[19, 20, 22, 20, 19, 20, 19, 22]
5.387[17, 21, 20, 21, 22, 18, 18, 20]
5.403[20, 20, 23, 21, 22, 20, 18, 20]
5.425[20, 21, 23, 20, 21, 19, 18, 17]
5.447[21, 21, 20, 19, 20, 18, 18, 19]
5.463[21, 20, 23, 20, 19, 18, 17, 18]
5.484[22, 19, 23, 19, 14, 21, 18, 19]
5.515[19, 22, 21, 17, 14, 21, 21, 20]
5.521[20, 20, 23, 18, 15, 22, 21, 21]
5.544[19, 20, 23, 20, 16, 21, 20, 21]
5.567[18, 22, 20, 20, 16, 21, 20, 22]
5.581[17, 22, 20, 21, 18, 18, 22, 22]
5.604[17, 22, 23, 22, 18, 18, 19, 20]
5.626[17, 22, 22, 22, 19, 17, 19, 18]
5.641[17, 22, 23, 20, 18, 18, 19, 16]
5.664[17, 22, 24, 19, 21, 19, 21, 17]
5.686[17, 24, 24, 17, 20, 18, 19, 16]
5.701[17, 21, 21, 16, 20, 19, 19, 18]
5.724[16, 22, 23, 20, 20, 19, 20, 20]
5.746[16, 23, 21, 20, 23, 19, 21, 21]
5.761[16, 22, 20, 21, 21, 18, 19, 21]
5.784[17, 19, 20, 22, 21, 18, 19, 20]
5.806[18, 22, 22, 22, 21, 18, 20, 18]
5.821[18, 22, 21, 19, 20, 18, 19, 20]
5.844[21, 20, 24, 18, 18, 18, 18, 18]
5.866[21, 21, 25, 17, 17, 18, 19, 18]
5.881[20, 22, 25, 18, 16, 19, 21, 19]
5.904[21, 21, 24, 22, 18, 21, 20, 20]
5.927[22, 20, 24, 21, 19, 19, 21, 16]
5.941[21, 21, 20, 22, 18, 20, 23, 19]
5.964[20, 21, 19, 23, 21, 20, 22, 18]
5.987[20, 19, 20, 23, 22, 18, 21, 22]
6.001[18, 20, 19, 20, 21, 18, 20, 22]
6.024[20, 19, 19, 20, 19, 21, 20, 22]
6.047[21, 19, 19, 20, 19, 20, 18, 21]
6.069[23, 21, 20, 19, 15, 21, 20, 23]
6.085[23, 22, 20, 20, 17, 21, 19, 22]
6.107[23, 21, 21, 19, 18, 23, 21, 22]
6.129[22, 22, 20, 19, 20, 21, 20, 22]
6.144[21, 22, 24, 21, 23, 22, 19, 22]
6.166[19, 19, 23, 24, 24, 22, 19, 19]
6.197[19, 21, 22, 24, 25, 22, 19, 19]
6.212[19, 19, 24, 24, 24, 19, 17, 20]
6.226[17, 21, 24, 23, 23, 21, 18, 19]
6.257[17, 20, 22, 22, 21, 20, 20, 20]
6.264[18, 21, 22, 18, 23, 20, 19, 19]
6.287[18, 19, 22, 19, 21, 20, 20, 18]
6.309[17, 20, 21, 19, 22, 20, 21, 20]
6.324[18, 19, 20, 20, 23, 18, 21, 19]
6.346[17, 20, 20, 19, 22, 18, 18, 19]
6.369[16, 20, 21, 20, 20, 17, 18, 22]
6.384[16, 21, 20, 19, 20, 15, 20, 20]
6.406[16, 21, 20, 18, 18, 16, 19, 18]
6.429[17, 22, 20, 17, 15, 16, 20, 20]
6.444[18, 20, 20, 20, 20, 16, 23, 20]
6.467[19, 19, 20, 20, 18, 15, 24, 16]
6.489[19, 21, 20, 20, 20, 17, 21, 19]
6.504[18, 21, 20, 19, 22, 17, 21, 19]
6.527[17, 21, 22, 20, 23, 16, 20, 18]
6.548[19, 21, 21, 18, 21, 20, 20, 20]
6.564[17, 21, 21, 18, 22, 22, 19, 21]
6.586[17, 23, 23, 20, 22, 23, 22, 21]
6.609[19, 22, 23, 20, 21, 22, 23, 20]
6.624[21, 24, 22, 20, 20, 23, 23, 22]
6.646[19, 24, 22, 19, 20, 20, 24, 20]
6.669[20, 24, 22, 19, 18, 20, 24, 22]
6.684[20, 21, 22, 18, 17, 21, 21, 20]
6.706[19, 23, 22, 21, 16, 22, 21, 21]
6.729[18, 19, 23, 22, 16, 22, 21, 18]
6.744[19, 19, 22, 22, 15, 22, 18, 19]
6.767[19, 18, 21, 21, 17, 21, 19, 16]
6.789[20, 19, 20, 22, 17, 19, 20, 18]
6.805[19, 20, 19, 21, 18, 20, 19, 18]
6.826[20, 19, 18, 20, 18, 20, 20, 17]
6.849[20, 19, 18, 20, 18, 19, 21, 17]
6.873[20, 23, 18, 21, 19, 20, 20, 20]
6.887[19, 22, 19, 21, 20, 18, 19, 19]
6.909[19, 20, 19, 22, 22, 17, 20, 20]
6.924[17, 21, 19, 22, 22, 18, 17, 19]
6.948[18, 22, 19, 24, 22, 17, 16, 20]
6.969[19, 18, 21, 22, 23, 18, 18, 19]
6.984[19, 18, 21, 22, 21, 18, 18, 18]
7.007[23, 19, 19, 21, 20, 19, 17, 19]
7.029[24, 19, 19, 21, 21, 18, 19, 22]
7.051[22, 18, 20, 19, 20, 19, 18, 20]
7.066[22, 20, 20, 20, 19, 20, 17, 20]
7.089[22, 20, 20, 20, 19, 20, 18, 20]
7.111[19, 20, 19, 19, 18, 20, 18, 19]
7.126[20, 21, 23, 18, 19, 22, 18, 18]
7.149[19, 23, 22, 21, 19, 22, 19, 18]
7.171[21, 21, 20, 21, 19, 21, 21, 19]
7.186[22, 21, 20, 22, 19, 22, 20, 20]
7.209[22, 20, 22, 23, 18, 21, 22, 20]
7.231[21, 20, 19, 22, 21, 21, 21, 19]
7.246[21, 19, 20, 22, 22, 21, 22, 23]
7.269[20, 21, 20, 23, 21, 21, 19, 22]
7.291[18, 22, 21, 24, 23, 19, 20, 20]
7.306[20, 21, 20, 23, 24, 19, 19, 19]
7.337[22, 21, 20, 23, 20, 18, 19, 19]
7.352[22, 20, 20, 22, 19, 17, 20, 17]
7.367[21, 20, 21, 22, 20, 19, 21, 18]
7.389[21, 20, 22, 20, 17, 21, 22, 18]
7.412[20, 21, 21, 18, 16, 20, 21, 19]
7.426[18, 22, 23, 18, 17, 21, 21, 19]
7.449[18, 23, 23, 18, 19, 21, 21, 18]
7.472[20, 22, 22, 18, 20, 20, 21, 17]
7.486[20, 22, 21, 17, 21, 19, 19, 19]
7.509[19, 22, 21, 18, 22, 19, 18, 19]
7.532[20, 20, 18, 18, 21, 17, 19, 20]
7.546[18, 20, 17, 18, 19, 18, 18, 21]
7.569[17, 21, 18, 17, 16, 17, 18, 22]
7.592[19, 19, 20, 18, 18, 19, 21, 21]
7.606[19, 18, 20, 20, 20, 19, 23, 20]
7.629[19, 19, 23, 22, 20, 20, 22, 19]
7.652[19, 19, 23, 22, 21, 18, 22, 19]
7.666[21, 19, 25, 21, 23, 18, 22, 20]
7.689[18, 18, 24, 24, 22, 18, 20, 20]
7.712[18, 19, 24, 23, 21, 20, 18, 20]
7.726[17, 19, 23, 22, 23, 20, 19, 20]
7.749[19, 18, 24, 22, 23, 22, 19, 20]
7.772[18, 20, 21, 24, 23, 22, 21, 15]
7.786[18, 21, 21, 20, 22, 20, 19, 16]
7.809[20, 21, 20, 20, 22, 19, 22, 17]
7.832[20, 21, 20, 21, 19, 20, 20, 18]
7.854[22, 23, 20, 20, 21, 18, 20, 19]
7.869[23, 21, 24, 22, 22, 18, 21, 22]
7.892[22, 20, 24, 23, 21, 20, 22, 21]
7.906[22, 21, 25, 23, 21, 18, 19, 21]
7.929[22, 20, 24, 22, 21, 17, 19, 20]
7.952[19, 19, 25, 24, 20, 18, 19, 19]
7.975[17, 19, 21, 22, 19, 18, 17, 15]
7.989[17, 19, 20, 21, 20, 19, 17, 17]
8.012[17, 18, 19, 22, 21, 19, 17, 18]
8.034[16, 18, 20, 21, 21, 19, 20, 18]
8.049[20, 19, 20, 18, 21, 18, 20, 17]
8.072[20, 19, 20, 17, 22, 20, 20, 18]
8.095[20, 20, 20, 16, 20, 19, 21, 18]
8.109[21, 20, 20, 21, 21, 19, 21, 17]
8.132[21, 21, 19, 21, 21, 19, 18, 17]
8.155[19, 21, 18, 22, 20, 20, 20, 18]
8.177[20, 21, 19, 23, 18, 21, 23, 18]
8.192[22, 21, 20, 23, 21, 21, 22, 17]
8.215[20, 20, 21, 19, 19, 21, 23, 18]
8.229[22, 19, 21, 19, 20, 23, 24, 21]
8.252[21, 19, 22, 20, 21, 22, 24, 21]
8.275[20, 19, 22, 19, 22, 18, 23, 22]
8.289[19, 17, 22, 19, 22, 19, 23, 25]
8.312[22, 19, 20, 19, 22, 19, 22, 23]
8.335[20, 18, 21, 19, 21, 19, 21, 24]
8.349[24, 19, 22, 18, 22, 20, 20, 26]
8.372[24, 19, 22, 18, 22, 21, 19, 24]
8.395[23, 21, 22, 19, 21, 21, 18, 20]
8.409[20, 21, 23, 17, 20, 22, 19, 22]
8.432[20, 20, 24, 20, 20, 20, 19, 18]
8.454[17, 21, 23, 21, 20, 20, 21, 15]
8.469[18, 20, 23, 20, 19, 17, 20, 17]
8.492[17, 22, 22, 23, 17, 18, 20, 18]
8.515[20, 21, 20, 23, 18, 18, 19, 20]
8.529[22, 23, 20, 20, 17, 19, 20, 20]
8.552[20, 22, 22, 20, 18, 18, 19, 21]
8.582[20, 22, 23, 21, 19, 21, 22, 20]
8.589[21, 21, 23, 18, 21, 21, 21, 21]
8.612[18, 24, 25, 22, 24, 22, 21, 18]
8.635[16, 22, 24, 22, 25, 23, 20, 18]
8.649[19, 21, 22, 23, 24, 23, 21, 21]
8.672[20, 21, 21, 23, 25, 20, 19, 23]
8.695[19, 21, 21, 22, 23, 21, 20, 22]
8.709[21, 22, 19, 20, 21, 18, 22, 21]
8.732[22, 21, 19, 20, 23, 16, 23, 21]
8.755[21, 21, 20, 20, 23, 17, 21, 20]
8.769[22, 22, 20, 19, 23, 19, 21, 18]
8.792[24, 21, 23, 21, 22, 17, 22, 19]
8.815[22, 20, 22, 20, 23, 17, 21, 20]
8.829[22, 21, 22, 20, 22, 19, 20, 19]
8.852[20, 20, 21, 22, 21, 17, 21, 19]
8.875[18, 21, 23, 21, 21, 17, 21, 19]
8.897[17, 20, 19, 22, 21, 18, 20, 20]
8.912[17, 18, 21, 22, 20, 18, 17, 18]
8.935[16, 19, 21, 22, 20, 16, 18, 19]
8.958[19, 20, 21, 21, 20, 18, 18, 18]
8.972[20, 19, 19, 22, 19, 19, 17, 19]
8.994[19, 20, 20, 23, 17, 18, 18, 19]
9.017[20, 20, 20, 24, 17, 20, 21, 20]
9.032[19, 21, 20, 23, 15, 21, 21, 21]
9.054[16, 22, 20, 23, 16, 20, 22, 20]
9.085[16, 22, 20, 23, 17, 21, 22, 19]
9.092[16, 23, 19, 22, 18, 20, 20, 18]
9.122[17, 23, 19, 23, 18, 18, 18, 17]
9.137[16, 22, 19, 23, 20, 19, 19, 16]
9.152[17, 21, 19, 23, 22, 21, 20, 15]
9.175[18, 22, 20, 23, 21, 20, 20, 16]
9.205[17, 20, 20, 22, 22, 20, 20, 18]
9.212[16, 21, 20, 21, 24, 21, 23, 18]
9.242[20, 20, 19, 21, 22, 21, 23, 20]
9.257[21, 20, 23, 20, 20, 20, 21, 19]
9.272[21, 21, 23, 21, 20, 21, 22, 19]
9.295[21, 24, 22, 22, 19, 22, 23, 19]
9.317[22, 22, 23, 22, 17, 22, 20, 18]
9.332[19, 22, 23, 20, 20, 20, 20, 20]
9.355[18, 23, 19, 20, 20, 20, 20, 21]
9.377[21, 20, 21, 20, 21, 19, 19, 22]
9.4[21, 18, 22, 19, 20, 19, 17, 21]
9.415[21, 21, 20, 19, 20, 17, 16, 22]
9.437[21, 21, 21, 20, 22, 19, 18, 20]
9.451[21, 20, 21, 20, 22, 19, 18, 19]
9.474[20, 20, 19, 20, 21, 21, 17, 16]
9.497[19, 20, 20, 23, 21, 21, 16, 17]
9.511[17, 17, 22, 22, 23, 22, 17, 17]
9.535[19, 16, 21, 22, 20, 22, 18, 16]
9.557[21, 19, 20, 22, 20, 22, 20, 20]
9.571[20, 21, 20, 23, 19, 22, 19, 20]
9.595[20, 20, 20, 20, 23, 22, 23, 19]
9.617[23, 22, 19, 21, 23, 23, 23, 21]
9.631[21, 21, 19, 21, 21, 21, 20, 21]
9.655[19, 21, 19, 21, 21, 23, 19, 21]
9.677[19, 21, 20, 18, 22, 21, 21, 20]
9.691[20, 21, 17, 18, 20, 24, 21, 22]
9.714[17, 20, 19, 18, 20, 22, 22, 21]
9.737[18, 21, 19, 18, 24, 23, 22, 21]
9.751[18, 21, 20, 19, 24, 22, 21, 19]
9.774[20, 19, 21, 18, 23, 22, 22, 19]
9.797[22, 18, 22, 20, 23, 19, 20, 20]
9.811[23, 18, 20, 20, 22, 19, 19, 21]
9.835[23, 17, 20, 19, 20, 19, 20, 19]
9.856[24, 14, 20, 18, 21, 20, 19, 20]
9.879[22, 18, 21, 18, 23, 18, 17, 20]
9.895[21, 19, 21, 17, 22, 19, 21, 19]
9.918[20, 19, 23, 17, 21, 18, 20, 18]
9.939[19, 18, 23, 22, 24, 19, 21, 19]
9.955[19, 19, 25, 77, 33, 21, 22, 18]
9.976[26, 24, 26, 90, 40, 43, 100, 49]
9.999[56, 39, 41, 112, 98, 98, 165, 147]
10.015[115, 66, 58, 131, 126, 118, 279, 261]
10.036[148, 83, 78, 153, 168, 154, 438, 473]
10.059[161, 87, 81, 139, 176, 192, 501, 625]
10.075[203, 88, 82, 135, 181, 219, 557, 666]
10.096[209, 87, 79, 122, 164, 225, 567, 699]
10.119[196, 71, 71, 111, 160, 223, 559, 671]
10.135[183, 62, 57, 83, 130, 239, 530, 560]
10.156[182, 58, 52, 77, 118, 215, 493, 431]
10.179[153, 59, 52, 77, 121, 201, 441, 408]
10.195[155, 62, 56, 75, 119, 230, 468, 343]
10.216[152, 61, 54, 64, 101, 232, 434, 351]
10.239[154, 58, 51, 63, 95, 219, 383, 344]
10.255[162, 60, 53, 65, 100, 268, 439, 336]
10.276[163, 59, 54, 63, 96, 271, 433, 361]
10.299[154, 54, 47, 62, 93, 250, 484, 361]
10.315[156, 60, 52, 66, 97, 257, 517, 434]
10.336[163, 54, 46, 62, 90, 256, 515, 455]
10.359[156, 61, 48, 60, 88, 226, 483, 459]
10.375[148, 63, 47, 58, 82, 241, 477, 430]
10.396[140, 61, 46, 58, 85, 217, 383, 430]
10.419[126, 55, 41, 55, 82, 209, 375, 351]
10.436[117, 62, 44, 54, 80, 206, 414, 332]
10.456[107, 55, 39, 51, 77, 186, 415, 291]
10.479[99, 48, 37, 50, 74, 158, 422, 285]
10.495[122, 52, 37, 46, 69, 213, 427, 332]
10.532[139, 53, 37, 43, 62, 216, 410, 379]
10.546[141, 53, 40, 50, 68, 199, 348, 368]
10.555[140, 53, 42, 51, 69, 203, 416, 396]
10.577[141, 60, 44, 51, 73, 197, 489, 387]
10.6[131, 67, 50, 79, 138, 191, 504, 371]
10.615[132, 69, 51, 81, 145, 207, 566, 379]
10.636[121, 64, 49, 82, 146, 211, 565, 387]
10.659[128, 67, 49, 82, 144, 229, 512, 381]
10.675[132, 61, 48, 86, 145, 236, 471, 411]
10.696[127, 50, 40, 61, 93, 209, 454, 413]
10.719[114, 48, 41, 59, 85, 198, 399, 384]
10.735[119, 49, 39, 52, 75, 195, 417, 402]
10.756[119, 50, 40, 51, 76, 184, 396, 382]
10.779[111, 51, 40, 47, 74, 183, 355, 348]
10.801[109, 52, 44, 51, 82, 197, 335, 322]
10.816[140, 55, 44, 54, 86, 191, 296, 389]
10.839[137, 56, 46, 56, 88, 198, 323, 384]
10.861[134, 53, 45, 58, 96, 179, 365, 383]
10.876[138, 55, 46, 61, 100, 190, 372, 383]
10.906[144, 55, 42, 57, 88, 172, 423, 395]
10.921[112, 53, 41, 53, 84, 167, 420, 298]
10.952[109, 50, 40, 53, 88, 181, 360, 263]
10.959[107, 52, 40, 54, 85, 185, 344, 251]
10.981[107, 51, 42, 52, 78, 167, 355, 261]
10.996[114, 58, 48, 59, 87, 163, 330, 277]
11.019[122, 56, 46, 59, 84, 161, 356, 324]
11.042[134, 59, 46, 58, 81, 148, 375, 346]
11.056[139, 63, 50, 62, 81, 163, 358, 390]
11.079[134, 60, 45, 61, 89, 179, 380, 392]
11.102[119, 53, 39, 55, 84, 177, 407, 399]
11.116[116, 55, 44, 65, 97, 197, 465, 456]
11.147[112, 54, 48, 70, 105, 200, 455, 517]
11.161[104, 48, 42, 65, 104, 192, 460, 533]
11.184[107, 53, 47, 64, 104, 181, 465, 533]
11.199[106, 52, 49, 64, 101, 186, 466, 507]
11.221[119, 54, 47, 61, 103, 223, 436, 499]
11.236[117, 51, 44, 57, 94, 218, 490, 431]
11.259[127, 50, 46, 60, 92, 237, 499, 449]
11.281[128, 46, 43, 62, 86, 238, 487, 461]
11.296[138, 49, 41, 62, 89, 240, 470, 456]
11.32[159, 50, 42, 65, 91, 235, 493, 408]
11.341[163, 54, 45, 70, 106, 244, 462, 401]
11.358[183, 58, 47, 77, 119, 239, 483, 396]
11.387[184, 58, 46, 78, 125, 245, 502, 362]
11.401[179, 56, 48, 79, 127, 245, 514, 405]
11.416[147, 56, 48, 73, 117, 234, 453, 395]
11.439[149, 64, 51, 69, 107, 257, 466, 414]
11.462[129, 62, 50, 57, 91, 257, 428, 402]
11.476[161, 73, 52, 53, 81, 259, 445, 427]
11.5[169, 74, 50, 52, 78, 264, 443, 436]
11.521[175, 72, 50, 59, 94, 244, 459, 452]
11.536[165, 62, 44, 62, 100, 227, 515, 449]
11.56[170, 65, 43, 65, 103, 230, 516, 421]
11.581[142, 54, 42, 66, 103, 230, 506, 391]
11.596[163, 69, 48, 71, 103, 217, 473, 427]
11.619[155, 65, 43, 62, 85, 213, 477, 413]
11.641[175, 71, 46, 61, 81, 206, 473, 473]
11.657[170, 66, 43, 59, 75, 185, 476, 472]
11.679[166, 64, 42, 58, 81, 181, 464, 477]
11.701[139, 50, 38, 55, 87, 194, 488, 406]
11.716[148, 55, 44, 62, 91, 188, 521, 393]
11.739[130, 56, 46, 61, 86, 178, 510, 309]
11.761[115, 55, 47, 59, 87, 189, 516, 306]
11.783[119, 56, 48, 62, 86, 178, 491, 349]
11.799[120, 54, 46, 59, 75, 205, 523, 365]
11.821[109, 51, 44, 59, 91, 226, 498, 380]
11.844[113, 47, 43, 63, 99, 224, 441, 468]
11.859[125, 56, 47, 66, 109, 225, 439, 456]
11.881[125, 61, 54, 71, 117, 234, 457, 481]
11.903[114, 61, 55, 73, 128, 217, 438, 476]
11.919[122, 63, 54, 71, 122, 224, 486, 460]
11.942[112, 64, 54, 71, 120, 250, 499, 348]
11.964[119, 60, 52, 69, 114, 294, 532, 351]
11.979[128, 63, 50, 67, 115, 338, 609, 291]
12.001[137, 62, 49, 69, 107, 330, 586, 291]
12.023[159, 77, 60, 73, 108, 318, 581, 352]
12.039[162, 73, 57, 71, 108, 339, 629, 369]
12.061[165, 72, 59, 70, 106, 309, 634, 479]
12.084[170, 67, 56, 73, 99, 279, 558, 507]
12.098[175, 69, 58, 69, 99, 303, 591, 510]
12.121[150, 54, 49, 63, 99, 299, 606, 465]
12.143[145, 58, 54, 65, 95, 255, 549, 458]
12.159[131, 61, 52, 64, 97, 257, 578, 356]
12.181[138, 61, 50, 59, 94, 250, 662, 429]
12.203[149, 63, 52, 64, 97, 253, 681, 429]
12.227[156, 63, 49, 65, 94, 264, 635, 492]
12.241[172, 63, 45, 64, 100, 301, 632, 525]
12.264[174, 73, 55, 73, 108, 292, 576, 549]
12.279[182, 76, 56, 73, 107, 304, 490, 507]
12.309[176, 72, 56, 77, 119, 325, 459, 526]
12.324[192, 79, 59, 86, 129, 328, 537, 505]
12.338[196, 81, 69, 94, 134, 320, 614, 506]
12.362[235, 80, 66, 92, 133, 357, 733, 597]
12.383[243, 79, 70, 95, 140, 372, 810, 630]
12.398[254, 86, 71, 93, 131, 367, 818, 685]
12.421[274, 88, 72, 90, 137, 390, 792, 733]
12.452[295, 110, 86, 99, 151, 441, 789, 768]
12.467[281, 110, 91, 101, 150, 436, 755, 743]
12.481[274, 118, 94, 100, 150, 431, 685, 735]
12.503[284, 116, 93, 99, 160, 420, 767, 755]
12.518[264, 114, 92, 96, 154, 430, 797, 757]
12.542[248, 92, 76, 84, 132, 373, 771, 766]
12.563[279, 91, 69, 78, 129, 408, 747, 763]
12.587[275, 83, 64, 75, 135, 414, 864, 763]
12.601[261, 81, 63, 74, 152, 450, 799, 750]
12.623[330, 81, 64, 71, 144, 453, 760, 841]
12.639[329, 82, 61, 70, 150, 464, 801, 801]
12.661[328, 91, 68, 86, 194, 455, 835, 876]
12.683[322, 90, 65, 86, 187, 426, 676, 877]
12.707[312, 94, 70, 87, 165, 393, 647, 809]
12.721[258, 96, 73, 89, 179, 368, 646, 726]
12.743[309, 108, 82, 92, 183, 339, 575, 829]
12.767[272, 94, 74, 79, 142, 275, 497, 698]
12.781[280, 99, 77, 83, 147, 305, 535, 677]
12.803[279, 95, 72, 81, 150, 295, 560, 700]
12.827[251, 92, 69, 82, 144, 282, 573, 639]
12.841[204, 76, 57, 74, 136, 318, 546, 568]
12.864[227, 83, 65, 80, 148, 317, 521, 573]
12.887[215, 72, 57, 71, 138, 290, 531, 574]
12.901[220, 75, 60, 72, 132, 290, 504, 606]
12.924[231, 77, 61, 73, 131, 297, 505, 642]
12.947[225, 89, 68, 82, 142, 261, 619, 620]
12.961[224, 86, 67, 79, 123, 276, 643, 662]
12.984[227, 90, 74, 97, 146, 335, 701, 643]
13.007[238, 91, 76, 101, 144, 336, 724, 616]
13.021[234, 95, 81, 100, 134, 340, 697, 606]
13.043[218, 82, 74, 93, 120, 342, 617, 614]
13.067[221, 91, 80, 96, 128, 379, 573, 638]
13.081[209, 87, 75, 84, 107, 336, 467, 636]
13.104[200, 90, 73, 89, 131, 332, 471, 648]
13.127[210, 85, 68, 90, 148, 402, 507, 651]
13.141[197, 86, 70, 92, 157, 417, 492, 600]
13.163[170, 72, 58, 87, 149, 370, 531, 519]
13.187[189, 78, 59, 88, 154, 370, 516, 628]
13.201[195, 69, 56, 74, 135, 351, 446, 620]
13.224[176, 68, 59, 78, 133, 283, 399, 570]
13.247[200, 73, 62, 87, 138, 290, 400, 587]
13.261[219, 75, 62, 89, 164, 319, 383, 647]
13.284[215, 73, 58, 85, 160, 307, 413, 573]
13.307[212, 73, 57, 86, 160, 314, 441, 606]
13.321[219, 79, 55, 81, 152, 300, 460, 595]
13.344[201, 76, 55, 73, 142, 318, 478, 582]
13.367[192, 77, 57, 69, 116, 345, 587, 530]
13.381[184, 75, 59, 70, 113, 362, 637, 512]
13.413[186, 76, 60, 69, 106, 368, 640, 466]
13.427[167, 68, 54, 67, 105, 348, 636, 461]
13.441[167, 65, 46, 60, 103, 292, 633, 451]
13.464[140, 61, 44, 63, 104, 243, 581, 429]
13.487[137, 58, 40, 60, 101, 211, 523, 397]
13.501[145, 62, 46, 64, 108, 239, 540, 405]
13.524[184, 69, 46, 57, 100, 246, 578, 469]
13.547[187, 72, 55, 67, 106, 303, 567, 486]
13.561[202, 75, 56, 65, 104, 315, 486, 469]
13.584[211, 77, 60, 72, 110, 320, 482, 519]
13.607[193, 70, 55, 68, 113, 296, 468, 481]
13.621[166, 61, 53, 73, 120, 324, 450, 426]
13.644[162, 55, 45, 66, 109, 287, 469, 393]
13.667[148, 49, 41, 63, 103, 268, 514, 398]
13.689[132, 45, 35, 54, 97, 253, 493, 330]
13.704[133, 55, 43, 61, 104, 254, 470, 342]
13.727[129, 62, 46, 57, 101, 200, 403, 325]
13.749[129, 65, 52, 61, 105, 195, 371, 371]
13.764[152, 73, 59, 68, 111, 217, 373, 428]
13.787[156, 75, 62, 69, 111, 226, 395, 428]
13.809[186, 69, 58, 63, 103, 217, 393, 441]
13.824[199, 66, 57, 64, 101, 220, 422, 516]
13.848[207, 65, 53, 62, 95, 221, 436, 507]
13.869[192, 56, 45, 58, 94, 205, 448, 476]
13.884[193, 59, 44, 60, 108, 201, 422, 476]
13.907[170, 68, 48, 59, 103, 220, 456, 475]
13.929[170, 66, 46, 57, 100, 238, 442, 434]
13.944[176, 66, 44, 52, 98, 232, 431, 432]
13.967[193, 69, 47, 53, 97, 224, 381, 450]
13.989[198, 72, 49, 54, 88, 257, 430, 459]
14.004[202, 70, 49, 61, 98, 254, 419, 439]
14.027[188, 78, 56, 71, 100, 237, 444, 422]
14.049[176, 79, 56, 71, 104, 235, 431, 406]
14.064[154, 77, 54, 69, 98, 246, 427, 349]
14.087[140, 68, 50, 65, 97, 224, 428, 324]
14.117[148, 65, 46, 63, 90, 233, 477, 383]
14.132[142, 55, 38, 52, 84, 272, 488, 375]
14.147[132, 63, 40, 57, 85, 303, 527, 391]
14.169[128, 68, 47, 64, 91, 296, 519, 388]
14.183[140, 72, 49, 67, 95, 284, 511, 415]
14.207[114, 68, 50, 63, 97, 263, 431, 356]
14.229[115, 70, 50, 64, 100, 240, 382, 338]
14.243[126, 60, 50, 71, 117, 199, 324, 409]
14.267[139, 59, 44, 65, 113, 192, 314, 417]
14.289[151, 57, 41, 62, 104, 197, 289, 433]
14.303[155, 54, 39, 61, 99, 186, 301, 445]
14.327[167, 52, 42, 70, 128, 189, 312, 490]
14.349[165, 50, 41, 60, 113, 197, 316, 413]
14.364[160, 42, 43, 61, 120, 201, 328, 435]
14.387[159, 50, 47, 63, 124, 226, 321, 449]
14.409[159, 51, 48, 65, 135, 233, 297, 430]
14.423[158, 53, 46, 56, 108, 227, 289, 452]
14.447[146, 53, 44, 54, 107, 236, 307, 486]
14.469[154, 56, 42, 58, 103, 233, 295, 476]
14.483[135, 45, 38, 55, 98, 210, 291, 426]
14.507[149, 51, 37, 59, 95, 224, 350, 429]
14.529[192, 59, 40, 66, 101, 214, 399, 467]
14.552[205, 66, 48, 75, 112, 217, 430, 448]
14.567[206, 67, 50, 73, 109, 205, 446, 438]
14.589[206, 67, 50, 76, 110, 213, 472, 426]
14.612[199, 66, 50, 71, 100, 201, 459, 482]
14.627[158, 61, 47, 62, 93, 203, 442, 379]
14.649[155, 61, 42, 52, 81, 182, 413, 367]
14.672[167, 59, 38, 52, 85, 180, 405, 374]
14.687[167, 61, 38, 51, 84, 195, 375, 396]
14.717[164, 62, 40, 55, 84, 189, 341, 349]
14.732[174, 63, 42, 64, 101, 246, 410, 364]
14.747[170, 60, 42, 65, 107, 257, 393, 348]
14.769[149, 65, 45, 64, 112, 269, 395, 380]
14.792[153, 66, 46, 66, 115, 260, 387, 364]
14.807[156, 66, 48, 73, 125, 280, 394, 366]
14.828[150, 62, 46, 65, 112, 239, 280, 402]
14.851[148, 61, 44, 62, 101, 220, 257, 460]
14.867[155, 65, 53, 65, 95, 225, 273, 432]
14.89[155, 66, 56, 65, 91, 219, 277, 449]
14.911[155, 61, 54, 57, 78, 202, 269, 446]
14.928[140, 64, 55, 61, 87, 191, 343, 417]
14.948[134, 61, 54, 60, 89, 187, 351, 359]
14.971[126, 51, 44, 58, 87, 162, 334, 349]
14.987[140, 53, 41, 52, 88, 161, 334, 374]
15.008[144, 56, 40, 48, 95, 187, 381, 408]
15.031[150, 53, 38, 41, 86, 191, 356, 420]
15.048[152, 59, 45, 51, 88, 196, 357, 426]
15.068[153, 62, 46, 49, 91, 220, 354, 463]
15.091[128, 59, 44, 49, 87, 216, 347, 427]
15.107[113, 59, 48, 51, 78, 180, 309, 387]
15.128[113, 65, 53, 55, 76, 183, 356, 383]
15.151[115, 66, 53, 58, 86, 187, 357, 374]
15.167[131, 72, 57, 68, 104, 202, 386, 392]
15.188[141, 71, 56, 68, 105, 212, 390, 408]
15.211[151, 69, 54, 70, 108, 222, 400, 407]
15.227[169, 77, 53, 72, 113, 210, 350, 458]
15.248[171, 80, 53, 67, 103, 249, 413, 475]
15.271[158, 73, 47, 61, 83, 237, 392, 427]
15.287[160, 73, 49, 62, 91, 250, 467, 406]
15.308[151, 71, 48, 58, 89, 245, 460, 393]
15.331[118, 57, 47, 56, 85, 242, 435, 276]
15.347[101, 48, 42, 55, 96, 205, 387, 229]
15.369[123, 48, 41, 50, 100, 203, 435, 263]
15.391[144, 55, 48, 56, 98, 189, 367, 323]
15.407[149, 59, 51, 61, 99, 193, 407, 335]
15.429[153, 60, 48, 57, 93, 198, 409, 341]
15.451[160, 60, 47, 53, 78, 186, 388, 348]
15.467[151, 64, 53, 62, 84, 169, 341, 351]
15.488[134, 62, 48, 57, 81, 154, 328, 347]
15.511[128, 62, 49, 60, 89, 150, 298, 328]
15.534[126, 59, 48, 62, 104, 144, 327, 325]
15.55[126, 63, 50, 63, 107, 159, 335, 304]
15.571[118, 62, 49, 57, 97, 154, 324, 259]
15.594[102, 54, 45, 53, 89, 145, 353, 189]
15.608[99, 49, 39, 44, 80, 142, 338, 207]
15.631[109, 53, 45, 52, 73, 152, 332, 269]
15.653[105, 50, 45, 55, 74, 162, 392, 287]
15.668[98, 42, 42, 54, 80, 173, 397, 283]
15.691[108, 48, 43, 56, 82, 179, 372, 288]
15.713[114, 50, 45, 60, 89, 194, 389, 327]
15.728[121, 46, 39, 51, 86, 184, 377, 311]
15.751[123, 46, 38, 48, 81, 171, 329, 310]
15.773[129, 45, 35, 48, 75, 168, 298, 307]
15.788[127, 42, 37, 49, 76, 172, 307, 310]
15.811[128, 40, 37, 48, 71, 165, 265, 285]
15.833[125, 45, 39, 47, 62, 169, 272, 274]
15.848[140, 44, 37, 48, 63, 186, 294, 263]
15.871[137, 47, 35, 45, 64, 178, 309, 258]
15.894[131, 47, 33, 46, 66, 183, 308, 238]
15.908[137, 47, 31, 44, 62, 167, 318, 226]
15.939[132, 47, 33, 46, 69, 156, 358, 193]
15.954[115, 45, 33, 47, 73, 123, 349, 196]
15.968[120, 49, 37, 52, 82, 129, 356, 190]
15.991[129, 47, 35, 52, 86, 132, 380, 193]
16.014[129, 46, 38, 57, 99, 149, 416, 213]
16.028[141, 46, 37, 56, 100, 158, 388, 292]
16.051[142, 51, 41, 55, 98, 155, 365, 296]
16.074[133, 45, 39, 55, 92, 160, 384, 319]
16.088[127, 44, 40, 56, 93, 154, 378, 334]
16.111[115, 45, 39, 52, 84, 145, 336, 321]
16.133[98, 45, 40, 54, 82, 154, 308, 262]
16.148[99, 44, 38, 54, 86, 159, 335, 275]
16.171[105, 45, 37, 51, 88, 149, 304, 263]
16.193[104, 47, 37, 51, 82, 139, 287, 245]
16.208[103, 46, 39, 47, 74, 129, 283, 229]
16.231[95, 46, 39, 46, 73, 111, 307, 228]
16.254[94, 44, 40, 45, 75, 110, 294, 212]
16.276[121, 47, 43, 47, 71, 117, 370, 313]
16.291[125, 49, 45, 46, 70, 120, 350, 325]
16.314[131, 52, 46, 59, 93, 130, 361, 332]
16.328[135, 49, 43, 59, 98, 143, 436, 393]
16.351[132, 48, 42, 59, 91, 136, 425, 403]
16.374[108, 44, 41, 58, 95, 138, 370, 356]
16.388[101, 43, 38, 61, 102, 164, 376, 371]
16.411[101, 41, 35, 52, 87, 167, 415, 389]
16.434[97, 39, 36, 51, 80, 168, 359, 336]
16.456[123, 39, 34, 50, 84, 181, 377, 434]
16.471[118, 41, 34, 50, 83, 182, 388, 429]
16.493[119, 44, 35, 44, 71, 165, 407, 427]
16.516[117, 47, 37, 48, 81, 165, 362, 450]
16.532[156, 50, 34, 47, 89, 175, 334, 487]
16.553[139, 50, 37, 46, 86, 178, 357, 400]
16.576[150, 54, 38, 51, 89, 183, 336, 416]
16.591[154, 50, 34, 50, 87, 193, 336, 402]
16.614[159, 56, 38, 46, 76, 187, 336, 364]
16.636[120, 53, 40, 46, 71, 166, 340, 291]
16.651[131, 56, 41, 50, 79, 184, 360, 280]
16.673[120, 52, 38, 48, 72, 180, 388, 262]
16.696[118, 54, 44, 51, 83, 171, 369, 255]
16.711[110, 46, 39, 52, 93, 237, 474, 247]
16.733[136, 47, 40, 52, 90, 241, 480, 310]
16.756[134, 44, 38, 50, 84, 222, 444, 341]
16.779[144, 49, 39, 45, 83, 218, 424, 344]
16.793[150, 49, 35, 44, 77, 224, 443, 366]
16.825[153, 48, 37, 44, 66, 152, 347, 432]
16.831[134, 56, 41, 50, 90, 218, 368, 401]
16.853[124, 56, 42, 50, 89, 249, 444, 375]
16.876[107, 49, 40, 49, 90, 250, 449, 351]
16.908[104, 50, 40, 48, 89, 242, 445, 339]
16.913[99, 49, 39, 47, 91, 245, 432, 265]
16.946[105, 40, 33, 39, 70, 190, 415, 301]
16.951[115, 46, 36, 45, 75, 148, 341, 306]
16.982[121, 46, 42, 61, 93, 203, 328, 360]
16.996[120, 49, 47, 70, 99, 204, 308, 367]
17.011[137, 59, 50, 69, 95, 203, 296, 402]
17.033[136, 60, 51, 70, 95, 229, 286, 435]
17.056[139, 61, 51, 70, 97, 230, 403, 499]
17.071[148, 63, 48, 60, 85, 204, 406, 465]
17.093[166, 64, 44, 50, 83, 202, 443, 488]
17.116[153, 56, 39, 49, 83, 199, 460, 455]
17.131[152, 57, 40, 48, 80, 163, 469, 423]
17.154[142, 55, 36, 41, 73, 153, 387, 332]
17.184[141, 57, 41, 46, 69, 131, 422, 358]
17.191[131, 64, 45, 49, 69, 140, 406, 346]
17.222[149, 68, 51, 62, 92, 183, 458, 394]
17.236[144, 64, 51, 64, 107, 194, 478, 401]
17.251[155, 64, 53, 67, 109, 196, 461, 473]
17.273[176, 67, 57, 71, 114, 214, 482, 511]
17.296[178, 63, 58, 74, 116, 215, 494, 502]
17.313[179, 62, 54, 69, 113, 184, 454, 495]
17.333[193, 68, 55, 70, 106, 194, 431, 569]
17.356[198, 77, 59, 73, 111, 210, 435, 559]
17.371[186, 75, 53, 67, 111, 236, 473, 549]
17.393[190, 73, 54, 65, 113, 235, 459, 555]
17.416[178, 77, 58, 68, 114, 242, 430, 523]
17.439[170, 76, 59, 69, 116, 228, 437, 430]
17.453[176, 69, 57, 67, 116, 222, 457, 434]
17.484[163, 73, 58, 70, 113, 167, 372, 387]
17.499[156, 78, 58, 74, 117, 163, 364, 390]
17.514[166, 78, 57, 72, 101, 185, 436, 409]
17.536[180, 77, 54, 69, 93, 197, 478, 483]
17.559[180, 79, 57, 76, 99, 207, 504, 495]
17.573[181, 77, 59, 73, 107, 216, 534, 515]
17.596[195, 75, 57, 70, 104, 225, 558, 536]
17.619[211, 81, 61, 74, 112, 212, 537, 543]
17.634[212, 84, 62, 83, 134, 212, 514, 558]
17.656[194, 83, 60, 86, 136, 249, 554, 518]
17.687[218, 84, 58, 87, 127, 254, 555, 518]
17.693[214, 81, 55, 84, 121, 273, 564, 516]
17.716[204, 70, 51, 82, 133, 282, 561, 525]
17.747[206, 69, 54, 77, 125, 298, 570, 522]
17.754[326, 100, 66, 80, 135, 275, 530, 627]
17.776[328, 96, 65, 78, 144, 270, 536, 634]
17.799[338, 97, 65, 81, 148, 248, 529, 728]
17.822[350, 103, 65, 81, 138, 251, 565, 743]
17.836[350, 108, 70, 88, 133, 235, 547, 705]
17.859[249, 85, 59, 81, 125, 232, 566, 663]
17.874[246, 91, 61, 85, 119, 270, 546, 756]
17.896[247, 91, 62, 84, 115, 279, 552, 676]
17.919[223, 89, 67, 86, 113, 257, 546, 653]
17.934[218, 81, 61, 79, 113, 268, 574, 662]
17.964[222, 82, 62, 75, 101, 259, 525, 634]
17.979[233, 78, 62, 73, 100, 210, 511, 577]
17.993[228, 79, 65, 74, 101, 240, 539, 567]
18.016[233, 73, 56, 69, 105, 245, 546, 605]
18.047[239, 79, 56, 65, 95, 257, 501, 611]
18.053[232, 80, 60, 70, 94, 291, 510, 584]
18.076[213, 77, 55, 66, 90, 301, 514, 581]
18.099[191, 78, 53, 63, 97, 272, 477, 554]
18.113[189, 77, 53, 63, 88, 287, 426, 518]
18.136[181, 71, 48, 59, 86, 261, 447, 515]
18.159[183, 62, 35, 49, 85, 227, 434, 533]
18.173[172, 63, 39, 51, 92, 217, 410, 517]
18.204[169, 56, 39, 51, 86, 209, 393, 526]
18.219[195, 72, 56, 72, 108, 258, 422, 592]
18.234[198, 69, 59, 77, 113, 266, 437, 666]
18.256[207, 73, 62, 78, 126, 260, 437, 710]
18.287[233, 81, 66, 85, 132, 265, 434, 713]
18.293[253, 82, 66, 85, 128, 258, 429, 738]
18.316[234, 71, 54, 71, 121, 221, 388, 697]
18.339[219, 70, 54, 72, 127, 212, 327, 583]
18.37[207, 65, 51, 71, 120, 201, 322, 545]
18.376[172, 54, 44, 60, 105, 211, 325, 462]
18.399[130, 51, 43, 57, 105, 220, 324, 387]
18.422[111, 47, 43, 55, 99, 179, 307, 333]
18.437[114, 50, 45, 55, 96, 192, 370, 332]
18.459[133, 53, 45, 65, 93, 207, 359, 308]
18.482[149, 58, 49, 63, 91, 191, 356, 350]
18.497[145, 57, 49, 64, 93, 184, 329, 442]
18.519[154, 59, 49, 63, 95, 217, 355, 482]
18.542[156, 60, 47, 58, 87, 198, 289, 527]
18.556[147, 59, 47, 52, 87, 185, 384, 524]
18.579[185, 68, 50, 56, 94, 195, 401, 618]
18.601[196, 71, 51, 56, 97, 201, 410, 578]
18.617[188, 70, 48, 51, 86, 160, 412, 538]
18.639[185, 68, 51, 59, 93, 199, 444, 504]
18.662[175, 66, 50, 57, 92, 204, 371, 480]
18.677[121, 50, 43, 58, 91, 195, 341, 331]
18.699[117, 51, 44, 60, 101, 240, 411, 307]
18.722[127, 51, 46, 66, 112, 271, 410, 356]
18.736[130, 51, 40, 58, 103, 247, 385, 361]
18.759[143, 53, 39, 62, 106, 259, 408, 352]
18.782[146, 53, 38, 63, 114, 261, 419, 370]
18.796[134, 48, 34, 60, 100, 216, 358, 379]
18.819[132, 54, 42, 65, 103, 190, 330, 402]
18.841[144, 54, 45, 68, 109, 186, 325, 407]
18.856[164, 58, 49, 68, 111, 162, 294, 510]
18.879[156, 56, 50, 67, 108, 169, 284, 490]
18.901[166, 60, 51, 70, 110, 177, 285, 474]
18.916[166, 52, 44, 63, 100, 167, 288, 424]
18.939[151, 50, 42, 61, 94, 174, 299, 399]
18.961[133, 56, 43, 60, 90, 188, 317, 320]
18.976[161, 58, 42, 57, 94, 185, 323, 347]
19.0[144, 53, 42, 53, 91, 174, 297, 340]
19.022[139, 55, 43, 57, 96, 177, 353, 331]
19.036[142, 59, 47, 57, 102, 222, 429, 332]
19.059[123, 48, 43, 55, 100, 218, 420, 299]
19.082[91, 49, 46, 61, 99, 210, 422, 296]
19.096[115, 56, 48, 62, 108, 237, 491, 380]
19.119[125, 56, 48, 60, 104, 230, 455, 394]
19.149[145, 62, 52, 70, 103, 186, 449, 409]
19.156[161, 65, 55, 74, 111, 188, 479, 409]
19.179[167, 71, 57, 71, 107, 183, 508, 409]
19.209[160, 66, 54, 71, 98, 145, 452, 337]
19.216[155, 69, 55, 75, 106, 160, 468, 352]
19.239[134, 59, 48, 66, 102, 153, 409, 338]
19.261[127, 56, 47, 64, 92, 170, 409, 483]
19.276[127, 51, 46, 63, 98, 176, 388, 493]
19.299[120, 52, 46, 64, 111, 192, 408, 502]
19.322[111, 46, 43, 55, 102, 185, 413, 479]
19.344[122, 51, 46, 57, 101, 185, 388, 504]
19.359[128, 54, 45, 56, 114, 200, 364, 385]
19.389[113, 47, 41, 56, 111, 238, 378, 329]
19.404[119, 46, 40, 57, 113, 266, 360, 378]
19.419[117, 46, 39, 56, 113, 265, 321, 379]
19.442[108, 41, 36, 56, 114, 266, 328, 337]
19.465[81, 35, 31, 48, 95, 230, 275, 277]
19.479[75, 33, 27, 64, 81, 181, 200, 275]
19.502[54, 33, 40, 109, 62, 103, 129, 157]
19.525[52, 33, 50, 144, 80, 86, 116, 136]
19.539[37, 34, 63, 167, 88, 59, 56, 100]
19.562[33, 33, 70, 172, 87, 50, 51, 87]
19.584[33, 32, 72, 165, 89, 42, 43, 67]
19.599[31, 32, 66, 138, 94, 38, 31, 48]
19.622[30, 38, 64, 117, 100, 40, 28, 36]
19.644[24, 33, 52, 84, 92, 36, 26, 31]
19.659[23, 34, 45, 75, 96, 35, 26, 28]
19.682[20, 35, 43, 74, 94, 33, 22, 25]
19.711[19, 32, 41, 73, 92, 30, 21, 20]
19.718[21, 24, 31, 43, 67, 26, 23, 20]
19.742[18, 25, 28, 27, 66, 27, 22, 21]
19.764[20, 23, 22, 26, 59, 26, 21, 20]
19.787[22, 22, 21, 28, 70, 26, 22, 21]
19.801[22, 22, 20, 24, 61, 26, 22, 22]
19.824[20, 23, 19, 24, 60, 25, 20, 20]
19.846[22, 21, 20, 29, 73, 27, 21, 21]
19.87[21, 21, 19, 28, 75, 26, 21, 22]
19.883[19, 21, 20, 26, 67, 26, 19, 20]
19.9[20, 21, 21, 26, 65, 25, 19, 20]
19.922[19, 19, 20, 26, 64, 26, 23, 22]
19.943[18, 18, 19, 22, 61, 24, 23, 20]
19.967[19, 18, 19, 23, 58, 24, 23, 18]
19.982[20, 19, 18, 21, 54, 24, 23, 22]
20.003[18, 20, 17, 25, 54, 22, 22, 21]
20.02[19, 19, 18, 24, 61, 21, 16, 20]
20.042[18, 19, 20, 26, 49, 19, 17, 18]
20.063[18, 19, 21, 25, 49, 20, 18, 21]
20.08[17, 19, 21, 26, 47, 19, 21, 20]
20.102[19, 20, 21, 22, 47, 20, 22, 19]
20.123[18, 20, 22, 22, 42, 19, 23, 20]
20.14[18, 19, 20, 19, 44, 22, 24, 21]
20.162[17, 20, 20, 18, 43, 21, 25, 21]
20.184[18, 19, 21, 18, 44, 21, 23, 18]
20.2[18, 19, 22, 18, 43, 21, 25, 19]
20.221[18, 19, 22, 20, 51, 23, 23, 20]
20.243[18, 21, 22, 20, 48, 22, 21, 21]
20.266[22, 20, 22, 19, 49, 22, 19, 18]
20.281[21, 21, 21, 20, 48, 22, 21, 20]
20.303[20, 20, 21, 20, 48, 22, 18, 19]
20.326[19, 21, 20, 19, 33, 22, 20, 17]
20.342[20, 20, 21, 20, 40, 25, 20, 17]
20.363[18, 20, 21, 19, 42, 24, 22, 18]
20.386[19, 20, 21, 21, 42, 24, 22, 18]
20.401[19, 19, 21, 21, 42, 25, 23, 19]
20.423[19, 18, 21, 20, 42, 25, 21, 21]
20.446[19, 22, 22, 20, 47, 20, 23, 21]
20.461[17, 22, 22, 20, 45, 23, 21, 23]
20.483[18, 23, 23, 19, 45, 23, 20, 22]
20.506[19, 24, 23, 22, 47, 23, 20, 22]
20.522[20, 26, 22, 22, 47, 23, 22, 21]
20.543[20, 22, 22, 21, 49, 24, 21, 20]
20.566[21, 23, 23, 21, 48, 21, 20, 20]
20.581[18, 22, 21, 21, 51, 22, 19, 20]
20.603[19, 19, 21, 20, 50, 22, 18, 18]
20.626[19, 18, 22, 20, 50, 23, 18, 20]
20.641[18, 21, 23, 22, 51, 21, 15, 18]
20.663[18, 20, 22, 22, 51, 22, 16, 17]
20.686[17, 21, 22, 22, 48, 20, 15, 18]
20.701[16, 24, 22, 23, 50, 20, 16, 51]
20.723[26, 24, 23, 24, 51, 19, 27, 88]
20.746[39, 23, 20, 22, 57, 26, 37, 118]
20.761[42, 25, 21, 24, 58, 26, 40, 128]
20.783[45, 24, 20, 26, 60, 27, 44, 137]
20.806[47, 24, 22, 25, 58, 29, 45, 133]
20.822[42, 22, 22, 25, 64, 29, 40, 114]
20.843[30, 20, 23, 25, 47, 25, 33, 84]
20.866[29, 18, 22, 22, 46, 25, 32, 93]
20.881[26, 17, 23, 21, 47, 25, 28, 81]
20.903[27, 16, 22, 20, 47, 24, 28, 76]
20.926[26, 17, 21, 20, 50, 22, 27, 76]
20.941[26, 18, 21, 23, 49, 21, 25, 78]
20.963[25, 19, 21, 23, 49, 21, 22, 57]
20.986[25, 19, 23, 23, 45, 21, 24, 69]
21.001[22, 19, 23, 23, 45, 21, 23, 67]
21.031[26, 23, 24, 23, 29, 24, 29, 94]
21.046[37, 23, 23, 23, 42, 26, 43, 154]
21.068[37, 23, 24, 23, 43, 25, 42, 155]
21.083[36, 23, 23, 24, 46, 25, 41, 153]
21.106[37, 23, 23, 25, 46, 25, 39, 156]
21.128[36, 19, 22, 26, 52, 23, 38, 150]
21.143[30, 20, 22, 24, 43, 23, 25, 125]
21.166[30, 20, 20, 24, 42, 23, 25, 121]
21.181[29, 20, 21, 26, 40, 23, 26, 120]
21.203[29, 20, 22, 23, 42, 24, 27, 117]
21.226[26, 22, 21, 25, 42, 25, 25, 106]
21.249[21, 22, 21, 23, 41, 23, 21, 55]
21.263[22, 23, 20, 23, 41, 23, 22, 80]
21.286[27, 22, 22, 21, 40, 23, 27, 88]
21.308[28, 22, 21, 26, 66, 24, 27, 92]
21.324[29, 21, 20, 24, 62, 26, 28, 91]
21.346[27, 21, 21, 26, 63, 26, 29, 90]
21.368[26, 20, 21, 25, 64, 27, 28, 65]
21.383[22, 20, 20, 26, 68, 28, 23, 53]
21.406[20, 21, 21, 20, 50, 26, 22, 50]
21.428[21, 20, 20, 23, 54, 25, 22, 55]
21.443[23, 21, 20, 21, 51, 26, 25, 60]
21.466[24, 23, 20, 22, 62, 25, 24, 61]
21.488[23, 22, 20, 23, 59, 24, 23, 55]
21.503[22, 22, 19, 24, 54, 22, 22, 50]
21.526[21, 22, 19, 22, 47, 20, 22, 42]
21.548[23, 22, 18, 26, 50, 24, 27, 71]
21.563[20, 21, 22, 25, 47, 24, 27, 71]
21.586[21, 22, 22, 25, 51, 26, 28, 76]
21.609[21, 21, 23, 23, 51, 28, 29, 78]
21.623[26, 21, 25, 24, 51, 27, 32, 81]
21.646[23, 22, 27, 22, 57, 24, 25, 51]
21.669[25, 21, 24, 24, 49, 23, 25, 54]
21.683[25, 23, 22, 23, 46, 23, 26, 65]
21.706[24, 24, 22, 25, 44, 21, 25, 64]
21.729[22, 24, 21, 23, 60, 24, 21, 63]
21.743[22, 24, 16, 23, 53, 23, 21, 64]
21.766[22, 24, 19, 22, 54, 24, 20, 66]
21.788[22, 23, 19, 22, 52, 21, 19, 49]
21.803[23, 24, 19, 21, 56, 22, 20, 47]
21.826[20, 23, 20, 23, 51, 21, 20, 45]
21.848[20, 22, 22, 22, 51, 22, 23, 65]
21.863[19, 21, 21, 23, 49, 22, 25, 61]
21.886[19, 22, 22, 21, 49, 24, 24, 65]
21.908[20, 21, 23, 23, 60, 26, 25, 67]
21.925[19, 25, 23, 21, 55, 24, 25, 65]
21.946[20, 24, 23, 20, 54, 24, 23, 42]
21.968[19, 24, 22, 21, 54, 23, 21, 40]
21.983[21, 21, 22, 22, 54, 23, 20, 37]
22.006[22, 22, 20, 23, 54, 23, 20, 38]
22.028[23, 20, 19, 23, 50, 22, 21, 37]
22.043[21, 19, 20, 25, 50, 23, 20, 40]
22.066[24, 20, 21, 26, 50, 23, 21, 42]
22.088[22, 20, 20, 26, 50, 23, 23, 35]
22.104[23, 21, 21, 25, 45, 22, 21, 36]
22.126[24, 19, 20, 25, 44, 24, 21, 39]
22.148[24, 22, 21, 24, 44, 22, 22, 40]
22.171[22, 23, 22, 25, 44, 22, 21, 38]
22.186[22, 23, 23, 24, 55, 24, 19, 40]
22.209[23, 22, 22, 25, 46, 21, 24, 52]
22.231[25, 24, 22, 24, 46, 22, 23, 54]
22.246[26, 23, 22, 24, 45, 22, 22, 52]
22.268[26, 24, 21, 21, 46, 25, 24, 54]
22.291[27, 24, 20, 22, 39, 22, 24, 53]
22.306[25, 24, 19, 22, 47, 24, 19, 37]
22.328[22, 23, 21, 26, 49, 22, 19, 30]
22.351[20, 23, 18, 24, 48, 21, 20, 29]
22.366[19, 21, 19, 26, 55, 22, 19, 30]
22.388[20, 22, 19, 25, 61, 23, 20, 36]
22.411[21, 23, 21, 24, 56, 22, 21, 35]
22.426[20, 25, 20, 21, 54, 24, 21, 35]
22.448[22, 23, 21, 22, 55, 25, 20, 40]
22.471[23, 23, 20, 21, 47, 23, 21, 37]
22.486[21, 22, 20, 21, 46, 22, 20, 30]
22.508[20, 21, 18, 22, 45, 23, 20, 31]
22.532[21, 19, 18, 25, 46, 21, 21, 29]
22.546[18, 21, 18, 24, 47, 21, 20, 23]
22.576[19, 20, 18, 23, 46, 20, 18, 26]
22.591[21, 21, 19, 25, 46, 19, 21, 25]
22.606[20, 20, 21, 25, 47, 22, 21, 24]
22.628[20, 22, 22, 23, 48, 22, 20, 25]
22.651[22, 23, 22, 24, 48, 22, 20, 24]
22.666[21, 24, 22, 24, 50, 23, 22, 20]
22.688[20, 23, 22, 23, 51, 23, 21, 19]
22.712[22, 23, 19, 23, 52, 20, 20, 21]
22.726[24, 22, 20, 22, 50, 21, 20, 23]
22.749[23, 20, 19, 27, 50, 19, 20, 21]
22.771[25, 20, 21, 27, 48, 18, 20, 22]
22.786[23, 22, 20, 25, 50, 20, 18, 22]
22.808[24, 24, 22, 24, 50, 21, 20, 21]
22.831[23, 24, 21, 24, 50, 20, 19, 22]
22.846[22, 25, 21, 18, 50, 20, 20, 24]
22.868[20, 25, 20, 18, 50, 21, 19, 24]
22.892[20, 23, 21, 19, 49, 21, 19, 24]
22.906[19, 22, 21, 22, 49, 19, 16, 22]
22.928[18, 23, 20, 21, 47, 20, 19, 21]
22.951[18, 22, 22, 21, 47, 21, 18, 20]
22.966[19, 22, 22, 23, 56, 22, 19, 19]
22.988[21, 22, 21, 23, 44, 20, 21, 17]
23.011[21, 22, 20, 22, 46, 22, 22, 17]
23.026[21, 22, 20, 23, 47, 24, 21, 16]
23.048[20, 22, 20, 26, 47, 23, 21, 17]
23.079[19, 21, 19, 23, 46, 22, 21, 17]
23.086[18, 21, 20, 23, 44, 24, 21, 19]
23.109[19, 21, 22, 24, 42, 22, 19, 19]
23.131[18, 23, 21, 24, 41, 21, 19, 20]
23.154[19, 21, 21, 21, 40, 21, 19, 19]
23.168[19, 21, 23, 20, 49, 20, 18, 20]
23.192[19, 22, 21, 21, 49, 20, 19, 20]
23.214[18, 23, 20, 19, 48, 20, 21, 21]
23.228[18, 21, 20, 19, 48, 19, 21, 20]
23.251[18, 22, 20, 21, 51, 19, 21, 19]
23.274[19, 22, 20, 22, 46, 22, 20, 19]
23.288[20, 20, 21, 23, 49, 22, 20, 17]
23.311[20, 21, 20, 22, 52, 23, 18, 19]
23.334[21, 21, 21, 22, 52, 23, 20, 20]
23.348[23, 19, 20, 22, 59, 23, 20, 21]
23.371[22, 22, 20, 22, 52, 22, 22, 22]
23.394[21, 24, 19, 22, 51, 19, 22, 24]
23.409[21, 22, 19, 23, 48, 18, 22, 23]
23.432[22, 22, 20, 22, 50, 20, 20, 23]
23.454[21, 24, 21, 23, 49, 20, 23, 24]
23.468[20, 22, 22, 23, 50, 19, 23, 24]
23.492[21, 21, 22, 22, 48, 22, 22, 23]
23.514[20, 21, 22, 24, 50, 23, 22, 24]
23.528[20, 20, 21, 26, 48, 21, 23, 23]
23.551[18, 18, 20, 24, 56, 24, 19, 21]
23.574[20, 20, 19, 25, 53, 24, 21, 22]
23.588[17, 21, 20, 26, 54, 23, 22, 22]
23.611[17, 20, 19, 24, 51, 23, 22, 21]
23.635[15, 22, 21, 22, 52, 24, 22, 21]
23.648[16, 22, 22, 23, 56, 22, 24, 21]
23.671[16, 18, 22, 25, 58, 24, 23, 19]
23.694[17, 18, 22, 23, 57, 22, 21, 18]
23.708[18, 20, 23, 23, 59, 23, 20, 19]
23.731[18, 18, 21, 24, 61, 24, 20, 19]
23.754[19, 19, 22, 22, 50, 22, 17, 19]
23.768[18, 22, 20, 20, 49, 20, 17, 20]
23.791[18, 23, 20, 20, 49, 22, 18, 21]
23.814[18, 21, 20, 19, 47, 21, 21, 22]
23.828[21, 21, 19, 19, 48, 20, 21, 21]
23.852[18, 21, 20, 19, 44, 21, 22, 23]
23.875[18, 20, 20, 19, 45, 23, 21, 21]
23.888[20, 18, 20, 19, 45, 22, 22, 22]
23.912[20, 19, 19, 19, 46, 22, 20, 19]
23.934[20, 18, 19, 18, 41, 22, 20, 19]
23.948[22, 17, 18, 23, 44, 23, 18, 18]
23.971[22, 16, 18, 24, 44, 25, 17, 19]
23.995[21, 17, 17, 24, 44, 26, 18, 17]
24.008[22, 17, 18, 25, 45, 26, 19, 17]
24.031[22, 20, 19, 25, 60, 27, 20, 17]
24.054[20, 21, 19, 24, 54, 27, 20, 18]
24.076[20, 21, 20, 24, 53, 25, 21, 18]
24.091[19, 22, 21, 23, 53, 24, 21, 20]
24.114[17, 22, 21, 23, 52, 23, 20, 20]
24.137[17, 20, 22, 25, 47, 25, 19, 21]
24.151[17, 20, 21, 23, 46, 22, 18, 21]
24.174[16, 21, 21, 21, 45, 23, 18, 20]
24.196[18, 19, 22, 23, 48, 24, 15, 18]
24.211[20, 20, 22, 23, 48, 24, 16, 18]
24.234[19, 20, 22, 22, 51, 21, 15, 18]
24.256[19, 19, 22, 23, 50, 22, 18, 18]
24.271[20, 19, 24, 25, 50, 19, 17, 18]
24.294[19, 19, 23, 25, 48, 20, 18, 17]
24.316[20, 20, 22, 25, 49, 20, 20, 20]
24.331[20, 21, 21, 26, 51, 20, 20, 19]
24.354[20, 22, 21, 24, 60, 20, 18, 19]
24.376[18, 23, 20, 24, 61, 22, 20, 20]
24.391[17, 23, 18, 23, 60, 20, 19, 20]
24.414[16, 21, 22, 21, 59, 19, 17, 20]
24.436[15, 22, 21, 21, 63, 22, 21, 20]
24.451[15, 21, 21, 23, 56, 20, 20, 21]
24.474[16, 19, 21, 21, 53, 19, 21, 21]
24.496[17, 20, 22, 22, 53, 20, 22, 23]
24.511[19, 20, 19, 22, 60, 20, 23, 21]
24.534[21, 20, 18, 22, 50, 20, 19, 20]
24.556[21, 19, 20, 19, 50, 22, 19, 20]
24.571[21, 20, 22, 20, 51, 22, 19, 20]
24.595[20, 21, 22, 19, 50, 22, 19, 19]
24.616[19, 22, 22, 22, 54, 22, 19, 19]
24.631[19, 20, 23, 20, 49, 21, 20, 21]
24.662[19, 20, 22, 21, 49, 22, 20, 21]
24.677[20, 21, 21, 23, 48, 22, 20, 20]
24.691[20, 21, 20, 23, 49, 21, 20, 19]
24.714[23, 20, 22, 21, 35, 21, 19, 20]
24.736[24, 23, 21, 24, 31, 19, 20, 19]
24.751[24, 24, 22, 24, 47, 17, 21, 18]
24.774[24, 23, 24, 21, 50, 19, 22, 19]
24.796[24, 21, 24, 20, 52, 20, 23, 19]
24.811[24, 22, 23, 21, 53, 21, 23, 21]
24.834[21, 18, 23, 19, 51, 21, 22, 21]
24.856[20, 18, 23, 19, 52, 21, 21, 19]
24.879[20, 18, 21, 21, 51, 20, 20, 19]
24.895[20, 19, 21, 24, 49, 20, 19, 19]
24.916[16, 18, 20, 22, 50, 19, 20, 16]
24.938[18, 19, 20, 23, 51, 20, 20, 16]
24.955[18, 20, 19, 24, 32, 20, 22, 19]
24.976[18, 21, 21, 23, 44, 20, 22, 19]
24.998[17, 22, 20, 21, 48, 24, 23, 19]
25.015[18, 23, 20, 22, 46, 24, 20, 19]
25.037[17, 23, 21, 20, 46, 23, 20, 20]
25.058[17, 22, 20, 18, 46, 24, 19, 18]
25.075[17, 21, 22, 21, 47, 25, 20, 19]
25.097[20, 20, 23, 22, 44, 20, 19, 22]
25.119[20, 19, 23, 21, 46, 20, 21, 23]
25.142[21, 18, 22, 24, 46, 20, 21, 23]
25.156[20, 19, 22, 23, 46, 19, 22, 22]
25.178[20, 19, 19, 22, 33, 19, 21, 21]
25.195[18, 19, 21, 24, 44, 19, 19, 18]
25.217[17, 18, 22, 25, 43, 21, 20, 20]
25.238[18, 18, 22, 23, 44, 21, 22, 20]
25.255[17, 19, 23, 25, 43, 22, 21, 21]
25.276[19, 18, 25, 24, 58, 22, 21, 22]
25.299[19, 20, 23, 23, 54, 24, 22, 23]
25.315[20, 21, 22, 24, 53, 22, 20, 22]
25.336[19, 20, 21, 24, 53, 24, 18, 22]
25.358[20, 18, 22, 22, 53, 23, 18, 21]
25.375[20, 22, 19, 21, 52, 23, 18, 21]
25.396[20, 20, 20, 21, 52, 21, 18, 20]
25.42[21, 19, 23, 17, 52, 20, 18, 18]
25.435[20, 20, 25, 17, 52, 20, 17, 17]
25.456[20, 20, 26, 19, 51, 18, 20, 18]
25.478[20, 19, 26, 19, 46, 20, 22, 19]
25.495[21, 19, 26, 19, 52, 19, 22, 18]
25.516[19, 20, 24, 20, 53, 22, 22, 19]
25.538[20, 20, 22, 22, 53, 23, 23, 18]
25.555[22, 21, 20, 21, 55, 25, 21, 19]
25.576[20, 20, 21, 25, 45, 23, 18, 17]
25.598[19, 21, 20, 26, 48, 24, 19, 19]
25.615[20, 21, 21, 26, 47, 23, 20, 19]
25.636[20, 22, 22, 24, 47, 21, 20, 19]
25.658[19, 21, 24, 24, 45, 24, 21, 19]
25.675[20, 21, 22, 20, 45, 24, 22, 18]
25.697[19, 22, 22, 18, 27, 24, 20, 16]
25.718[18, 22, 22, 19, 40, 23, 19, 18]
25.735[18, 21, 20, 20, 42, 25, 21, 19]
25.756[17, 22, 18, 21, 41, 22, 20, 19]
25.778[21, 21, 19, 21, 41, 22, 20, 20]
25.793[22, 22, 20, 22, 42, 21, 20, 21]
25.816[24, 22, 20, 20, 49, 23, 20, 19]
25.838[23, 23, 22, 23, 49, 20, 21, 18]
25.853[24, 22, 21, 23, 48, 21, 21, 18]
25.876[20, 23, 21, 27, 49, 21, 20, 18]
25.898[19, 22, 21, 26, 48, 21, 24, 17]
25.913[18, 20, 21, 27, 44, 21, 23, 18]
25.935[17, 21, 20, 24, 45, 20, 21, 18]
25.958[20, 19, 20, 24, 47, 18, 21, 18]
25.981[20, 20, 20, 20, 48, 18, 23, 18]
25.996[20, 21, 19, 21, 48, 19, 21, 18]
26.019[21, 21, 20, 22, 48, 18, 22, 18]
26.041[23, 21, 20, 22, 47, 18, 22, 19]
26.056[21, 20, 21, 23, 47, 19, 21, 22]
26.08[23, 21, 21, 22, 47, 18, 21, 21]
26.101[21, 20, 20, 21, 47, 18, 21, 21]
26.116[19, 20, 17, 19, 51, 19, 21, 21]
26.138[21, 21, 18, 20, 52, 20, 22, 20]
26.161[20, 23, 18, 20, 51, 20, 23, 17]
26.183[18, 23, 17, 20, 49, 20, 23, 18]
26.198[19, 22, 19, 21, 51, 20, 23, 19]
26.221[21, 22, 22, 20, 44, 20, 21, 20]
26.236[18, 22, 24, 20, 45, 18, 19, 20]
26.258[19, 23, 23, 20, 45, 21, 19, 21]
26.281[22, 22, 24, 19, 44, 21, 17, 20]
26.296[21, 21, 25, 20, 42, 20, 16, 21]
26.318[22, 22, 23, 21, 50, 19, 17, 23]
26.349[22, 21, 21, 21, 48, 21, 19, 24]
26.356[20, 19, 20, 21, 53, 19, 19, 24]
26.378[21, 21, 21, 22, 54, 19, 18, 24]
26.409[21, 21, 18, 21, 54, 19, 19, 22]
26.416[21, 20, 18, 21, 52, 19, 20, 20]
26.438[21, 21, 18, 21, 54, 20, 19, 19]
26.461[22, 22, 19, 20, 49, 20, 19, 17]
26.476[19, 21, 17, 21, 52, 22, 20, 19]
26.506[20, 21, 18, 22, 53, 22, 19, 20]
26.521[19, 21, 21, 22, 48, 24, 18, 20]
26.536[19, 21, 21, 22, 46, 23, 18, 19]
26.558[18, 21, 23, 21, 48, 24, 19, 21]
26.581[19, 20, 22, 22, 45, 22, 19, 20]
26.596[19, 22, 22, 20, 44, 22, 20, 20]
26.618[20, 22, 19, 20, 33, 20, 19, 19]
26.649[20, 20, 18, 20, 46, 20, 20, 20]
26.656[22, 19, 16, 23, 46, 20, 17, 21]
26.678[21, 19, 18, 20, 46, 22, 19, 21]
26.701[20, 17, 20, 21, 46, 22, 17, 22]
26.716[21, 18, 20, 21, 45, 22, 19, 21]
26.738[19, 20, 20, 23, 46, 23, 19, 22]
26.761[17, 21, 21, 20, 47, 22, 20, 22]
26.776[19, 20, 20, 22, 48, 22, 20, 21]
26.799[18, 23, 18, 24, 48, 21, 21, 20]
26.829[18, 22, 19, 25, 53, 22, 23, 19]
26.836[20, 21, 18, 23, 49, 20, 22, 19]
26.858[22, 22, 20, 24, 47, 20, 23, 17]
26.881[21, 24, 21, 23, 46, 18, 22, 21]
26.903[21, 21, 21, 20, 45, 18, 22, 20]
26.919[20, 23, 22, 19, 40, 16, 19, 22]
26.941[18, 23, 23, 19, 31, 17, 21, 20]
26.963[17, 22, 21, 20, 48, 19, 19, 21]
26.978[19, 20, 21, 20, 58, 19, 18, 17]
27.001[20, 24, 21, 21, 60, 21, 18, 18]
27.023[20, 21, 20, 21, 60, 21, 19, 18]
27.038[21, 22, 19, 22, 68, 22, 18, 18]
27.061[21, 24, 20, 21, 58, 22, 21, 18]
27.083[17, 23, 19, 20, 48, 24, 22, 21]
27.098[18, 20, 19, 19, 48, 23, 22, 21]
27.121[19, 20, 19, 22, 56, 22, 22, 21]
27.143[17, 19, 21, 21, 47, 23, 25, 22]
27.16[18, 17, 20, 21, 46, 22, 22, 21]
27.181[21, 18, 22, 21, 47, 20, 21, 20]
27.203[20, 19, 23, 22, 45, 19, 23, 21]
27.218[20, 20, 23, 23, 50, 21, 22, 22]
27.241[20, 21, 20, 23, 49, 21, 20, 20]
27.263[20, 21, 20, 24, 48, 21, 20, 19]
27.279[17, 22, 19, 26, 48, 21, 23, 18]
27.301[18, 20, 18, 24, 50, 23, 22, 16]
27.324[17, 21, 20, 23, 49, 23, 23, 16]
27.339[17, 20, 20, 24, 49, 22, 22, 16]
27.361[19, 20, 21, 24, 50, 20, 23, 20]
27.383[19, 18, 19, 22, 50, 22, 19, 20]
27.398[19, 20, 20, 23, 50, 21, 20, 21]
27.421[20, 21, 20, 22, 49, 19, 17, 20]
27.443[19, 20, 22, 21, 49, 19, 17, 21]
27.459[19, 21, 22, 20, 48, 20, 18, 18]
27.481[19, 23, 23, 21, 48, 20, 19, 19]
27.511[18, 22, 23, 21, 47, 19, 20, 20]
27.519[17, 21, 22, 19, 46, 22, 20, 19]
27.549[19, 23, 21, 19, 46, 22, 20, 18]
27.563[17, 22, 21, 20, 46, 22, 18, 20]
27.578[19, 21, 20, 20, 43, 23, 19, 19]
27.6[19, 21, 20, 19, 44, 23, 19, 18]
27.624[20, 23, 20, 20, 27, 20, 19, 19]
27.638[19, 22, 19, 22, 43, 21, 19, 18]
27.661[20, 22, 21, 21, 43, 20, 20, 20]
27.684[20, 23, 22, 22, 46, 21, 19, 20]
27.698[20, 25, 22, 23, 45, 20, 17, 19]
27.72[20, 23, 22, 23, 45, 21, 18, 20]
27.744[19, 23, 24, 21, 31, 22, 20, 23]
27.758[19, 22, 23, 21, 46, 22, 22, 20]
27.78[16, 23, 23, 20, 46, 22, 23, 20]
27.804[17, 21, 24, 21, 47, 22, 23, 20]
27.819[19, 20, 23, 20, 51, 22, 24, 19]
27.841[19, 20, 21, 20, 50, 21, 22, 21]
27.864[19, 21, 22, 20, 36, 20, 21, 20]
27.887[22, 20, 21, 21, 50, 17, 20, 21]
27.901[22, 21, 20, 20, 52, 19, 20, 21]
27.924[21, 21, 22, 22, 50, 18, 18, 22]
27.947[21, 22, 23, 24, 48, 19, 24, 19]
27.961[22, 21, 23, 24, 49, 21, 39, 20]
27.984[20, 22, 23, 21, 29, 21, 41, 20]
28.007[21, 22, 23, 24, 46, 22, 41, 20]
28.02[21, 23, 22, 24, 47, 22, 41, 19]
28.044[20, 23, 21, 22, 48, 22, 39, 17]
28.066[20, 23, 21, 22, 49, 21, 24, 17]
28.081[20, 24, 19, 23, 49, 21, 22, 17]
28.104[18, 23, 19, 20, 31, 19, 24, 16]
28.126[19, 21, 18, 20, 44, 20, 23, 16]
28.141[20, 23, 20, 20, 44, 20, 41, 20]
28.164[21, 23, 20, 22, 43, 20, 43, 19]
28.187[21, 23, 21, 24, 44, 20, 44, 20]
28.201[21, 23, 20, 25, 44, 19, 43, 21]
28.224[20, 24, 18, 23, 27, 20, 44, 21]
28.246[20, 21, 21, 24, 40, 20, 27, 20]
28.261[18, 23, 21, 23, 42, 19, 24, 20]
28.284[19, 23, 22, 23, 42, 20, 23, 18]
28.306[19, 22, 21, 24, 42, 20, 21, 20]
28.321[19, 20, 23, 23, 42, 19, 19, 20]
28.344[20, 22, 20, 22, 28, 17, 21, 19]
28.366[21, 22, 20, 22, 36, 19, 20, 18]
28.405[21, 21, 20, 18, 38, 19, 21, 19]
28.407[20, 20, 20, 16, 40, 20, 21, 18]
28.434[21, 21, 20, 17, 44, 20, 20, 20]
28.449[20, 20, 21, 18, 44, 22, 18, 21]
28.464[20, 19, 24, 17, 36, 20, 19, 22]
28.486[19, 20, 23, 19, 49, 19, 18, 22]
28.501[20, 21, 22, 23, 49, 20, 18, 20]
28.524[19, 21, 22, 24, 47, 20, 21, 19]
28.562[19, 22, 22, 24, 46, 19, 22, 18]
28.563[18, 22, 19, 24, 48, 19, 22, 18]
28.584[18, 22, 20, 24, 35, 20, 21, 20]
28.606[18, 23, 22, 22, 43, 18, 22, 20]
28.621[19, 23, 22, 23, 44, 19, 20, 21]
28.644[18, 23, 21, 24, 45, 20, 20, 21]
28.667[19, 22, 22, 24, 43, 20, 20, 20]
28.681[19, 21, 24, 26, 41, 19, 22, 18]
28.704[19, 21, 25, 25, 37, 19, 22, 17]
28.727[17, 22, 24, 23, 44, 20, 22, 15]
28.741[19, 20, 24, 22, 44, 19, 20, 16]
28.764[20, 20, 24, 21, 45, 19, 20, 17]
28.787[19, 22, 21, 20, 45, 18, 17, 18]
28.809[19, 21, 20, 19, 43, 18, 17, 19]
28.824[21, 20, 23, 20, 46, 20, 17, 19]
28.846[20, 20, 24, 22, 47, 20, 18, 19]
28.869[20, 19, 24, 22, 47, 21, 17, 22]
28.884[20, 18, 24, 21, 47, 21, 17, 24]
28.907[19, 20, 23, 22, 44, 22, 17, 23]
28.929[15, 18, 22, 23, 31, 20, 17, 23]
28.944[15, 20, 21, 21, 45, 21, 19, 22]
28.966[20, 21, 22, 22, 45, 20, 19, 19]
28.989[21, 20, 21, 23, 45, 21, 19, 17]
29.005[23, 20, 21, 23, 44, 21, 19, 18]
29.026[22, 21, 20, 22, 48, 22, 19, 18]
29.049[24, 20, 21, 20, 30, 21, 19, 17]
29.064[20, 22, 19, 22, 45, 22, 18, 20]
29.087[21, 23, 21, 20, 47, 23, 19, 19]
29.109[21, 21, 22, 20, 49, 21, 19, 18]
29.124[23, 22, 24, 19, 46, 23, 20, 20]
29.146[21, 22, 24, 21, 46, 22, 17, 23]
29.169[22, 21, 25, 21, 53, 22, 18, 20]
29.184[20, 22, 22, 24, 52, 21, 21, 22]
29.207[20, 22, 21, 22, 51, 22, 19, 23]
29.229[18, 22, 20, 23, 51, 19, 18, 22]
29.251[18, 20, 21, 25, 52, 18, 21, 19]
29.266[20, 19, 22, 26, 35, 19, 22, 20]
29.289[21, 19, 24, 23, 48, 19, 21, 17]
29.303[21, 19, 23, 24, 48, 20, 22, 18]
29.327[22, 20, 22, 24, 48, 20, 21, 17]
29.349[22, 22, 23, 22, 49, 22, 20, 17]
29.363[20, 21, 21, 21, 45, 20, 17, 18]
29.394[20, 21, 19, 19, 30, 21, 16, 19]
29.409[20, 21, 19, 20, 26, 21, 18, 19]
29.423[21, 22, 19, 22, 42, 21, 19, 19]
29.447[21, 20, 19, 21, 44, 20, 17, 21]
29.469[20, 22, 18, 20, 45, 21, 19, 21]
29.483[18, 23, 21, 21, 45, 19, 21, 23]
29.507[18, 24, 21, 20, 46, 19, 19, 21]
29.529[16, 22, 22, 18, 47, 20, 18, 20]
29.543[17, 21, 22, 20, 46, 19, 19, 18]
29.566[18, 21, 23, 21, 46, 22, 20, 19]
29.59[18, 20, 21, 23, 45, 22, 18, 18]
29.603[19, 19, 22, 22, 44, 22, 20, 18]
29.626[17, 19, 20, 21, 29, 23, 23, 20]
29.649[17, 21, 21, 21, 47, 24, 22, 20]
29.663[16, 19, 20, 21, 49, 23, 21, 22]
29.686[16, 19, 21, 20, 50, 22, 23, 21]
29.709[15, 18, 21, 23, 50, 22, 22, 22]
29.723[17, 19, 22, 23, 50, 20, 22, 19]
29.747[18, 19, 21, 21, 42, 22, 21, 20]
29.769[18, 19, 20, 22, 51, 20, 22, 17]
29.791[20, 19, 20, 23, 53, 22, 20, 18]
29.807[19, 20, 18, 21, 52, 23, 21, 19]
29.829[19, 21, 18, 23, 52, 23, 20, 21]
29.851[19, 18, 20, 25, 52, 23, 22, 20]
29.867[20, 19, 22, 24, 47, 25, 22, 20]
29.888[19, 21, 21, 23, 49, 23, 24, 20]
29.911[19, 22, 21, 23, 52, 23, 25, 19]
29.927[19, 21, 22, 24, 75, 27, 24, 21]
29.948[36, 35, 40, 65, 108, 82, 193, 65]
29.971[109, 69, 62, 111, 146, 140, 336, 147]
29.987[158, 79, 72, 136, 188, 215, 493, 362]
30.01[218, 92, 81, 149, 207, 255, 572, 516]
30.031[294, 108, 88, 160, 226, 340, 717, 629]
30.047[332, 133, 95, 159, 269, 384, 752, 708]
30.07[356, 132, 90, 142, 261, 420, 852, 799]
30.092[345, 131, 84, 133, 267, 400, 789, 780]
30.113[329, 129, 88, 134, 269, 400, 782, 791]
30.13[320, 123, 84, 124, 256, 351, 691, 813]
30.151[291, 96, 70, 112, 207, 324, 660, 788]
30.167[253, 88, 68, 103, 195, 261, 513, 700]
30.188[254, 84, 68, 87, 149, 261, 525, 680]
30.211[246, 75, 58, 68, 128, 263, 477, 638]
30.227[191, 74, 61, 70, 122, 286, 444, 567]
30.256[192, 79, 64, 72, 111, 269, 433, 544]
30.271[200, 73, 60, 69, 121, 272, 374, 607]
30.295[203, 78, 62, 68, 133, 287, 340, 615]
30.308[194, 77, 58, 63, 127, 263, 327, 572]
30.331[190, 73, 55, 61, 120, 228, 394, 562]
30.347[181, 65, 52, 61, 119, 212, 390, 544]
30.37[192, 67, 52, 62, 108, 206, 388, 531]
30.391[195, 63, 51, 76, 139, 193, 469, 541]
30.407[194, 65, 51, 83, 141, 200, 470, 516]
30.429[186, 71, 51, 84, 142, 191, 437, 485]
30.451[190, 72, 50, 80, 138, 192, 417, 509]
30.467[168, 66, 45, 77, 141, 192, 436, 469]
30.488[152, 61, 41, 63, 91, 174, 363, 409]
30.511[165, 61, 42, 58, 98, 181, 431, 399]
30.527[171, 51, 35, 50, 105, 182, 400, 404]
30.549[159, 48, 34, 53, 112, 192, 396, 378]
30.571[147, 47, 35, 58, 115, 197, 400, 341]
30.587[167, 49, 36, 61, 126, 214, 431, 411]
30.608[162, 53, 42, 61, 119, 206, 378, 446]
30.631[147, 52, 46, 65, 123, 201, 386, 465]
30.647[143, 49, 45, 66, 118, 193, 412, 465]
30.668[145, 49, 45, 62, 113, 188, 399, 472]
30.691[116, 49, 48, 71, 129, 159, 387, 421]
30.713[100, 47, 46, 69, 129, 164, 397, 435]
30.729[96, 47, 45, 63, 118, 168, 401, 380]
30.751[126, 51, 44, 59, 113, 174, 382, 392]
30.773[131, 55, 45, 59, 114, 196, 397, 374]
30.788[133, 51, 40, 42, 85, 200, 376, 363]
30.811[137, 48, 36, 49, 91, 214, 384, 348]
30.833[138, 49, 34, 52, 90, 251, 380, 351]
30.848[114, 46, 38, 59, 102, 246, 399, 306]
30.871[112, 44, 36, 57, 103, 240, 414, 327]
30.893[118, 45, 36, 55, 100, 236, 391, 323]
30.908[124, 52, 43, 50, 84, 223, 365, 348]
30.931[124, 52, 42, 55, 88, 174, 363, 362]
30.953[130, 53, 41, 50, 82, 190, 370, 364]
30.968[128, 60, 44, 53, 92, 187, 321, 348]
30.992[116, 59, 45, 56, 97, 196, 325, 355]
31.013[108, 51, 41, 58, 101, 179, 348, 294]
31.028[104, 50, 40, 51, 100, 180, 331, 293]
31.051[97, 49, 39, 54, 103, 177, 290, 302]
31.073[96, 40, 35, 54, 92, 160, 315, 308]
31.088[117, 44, 35, 54, 91, 149, 353, 312]
31.111[114, 46, 34, 53, 87, 150, 315, 298]
31.133[112, 44, 35, 50, 83, 148, 330, 266]
31.148[111, 45, 35, 46, 89, 131, 385, 277]
31.186[105, 44, 36, 45, 86, 136, 371, 263]
31.193[82, 45, 37, 49, 88, 132, 328, 245]
31.208[81, 45, 37, 51, 90, 133, 357, 246]
31.231[86, 45, 37, 52, 88, 129, 355, 247]
31.253[86, 44, 36, 52, 80, 140, 275, 234]
31.268[88, 43, 34, 51, 85, 142, 353, 246]
31.29[93, 40, 32, 45, 80, 140, 373, 243]
31.313[92, 41, 31, 43, 81, 131, 350, 252]
31.328[90, 42, 32, 48, 89, 157, 352, 252]
31.351[91, 42, 33, 48, 91, 144, 416, 231]
31.381[105, 46, 36, 49, 84, 150, 367, 346]
31.388[109, 51, 39, 52, 89, 176, 370, 346]
31.41[103, 48, 38, 51, 89, 177, 376, 332]
31.433[103, 49, 39, 49, 87, 166, 379, 326]
31.448[102, 50, 38, 47, 85, 176, 341, 333]
31.479[92, 45, 36, 47, 85, 170, 323, 201]
31.493[79, 40, 36, 46, 79, 145, 303, 198]
31.51[74, 37, 35, 47, 78, 158, 321, 186]
31.531[72, 35, 34, 45, 72, 151, 312, 208]
31.553[81, 36, 37, 43, 68, 147, 316, 257]
31.568[83, 43, 40, 42, 66, 140, 311, 248]
31.599[111, 52, 42, 45, 68, 171, 330, 288]
31.613[113, 52, 42, 46, 67, 161, 328, 301]
31.635[126, 54, 42, 51, 86, 164, 339, 307]
31.651[123, 53, 40, 52, 82, 171, 318, 295]
31.673[118, 48, 37, 51, 83, 170, 318, 291]
31.695[111, 45, 37, 55, 83, 141, 297, 276]
31.711[121, 53, 42, 56, 89, 150, 256, 289]
31.733[129, 56, 43, 55, 76, 154, 244, 282]
31.756[133, 55, 45, 56, 83, 144, 280, 269]
31.771[139, 60, 46, 64, 84, 150, 290, 280]
31.793[126, 53, 40, 57, 80, 156, 292, 247]
31.816[115, 44, 34, 54, 76, 145, 348, 257]
31.83[98, 40, 33, 54, 82, 139, 361, 275]
31.853[89, 40, 30, 50, 76, 152, 335, 253]
31.876[91, 39, 28, 42, 74, 155, 357, 255]
31.891[98, 40, 31, 41, 78, 147, 369, 289]
31.913[112, 43, 32, 44, 75, 147, 324, 279]
31.936[110, 49, 31, 44, 74, 172, 366, 252]
31.951[111, 50, 36, 47, 78, 152, 363, 272]
31.973[98, 46, 34, 43, 75, 150, 331, 280]
31.996[91, 46, 34, 44, 74, 159, 330, 248]
32.011[76, 45, 34, 42, 78, 165, 379, 237]
32.033[77, 47, 37, 42, 72, 169, 312, 255]
32.056[99, 46, 34, 38, 64, 183, 324, 270]
32.071[102, 48, 37, 41, 70, 197, 387, 263]
32.093[107, 51, 41, 48, 97, 195, 385, 292]
32.115[107, 49, 42, 49, 97, 214, 343, 281]
32.131[109, 44, 40, 45, 93, 196, 391, 272]
32.153[95, 43, 38, 47, 92, 188, 421, 284]
32.176[92, 44, 37, 45, 94, 167, 362, 272]
32.191[88, 41, 33, 42, 80, 177, 363, 244]
32.213[91, 44, 34, 41, 80, 159, 382, 251]
32.236[80, 47, 36, 44, 84, 170, 348, 261]
32.251[72, 47, 38, 45, 85, 167, 293, 211]
32.273[73, 43, 37, 49, 83, 163, 334, 223]
32.296[82, 41, 37, 46, 70, 151, 355, 227]
32.311[79, 40, 35, 44, 66, 138, 334, 222]
32.333[90, 37, 34, 45, 67, 125, 343, 220]
32.364[98, 37, 32, 41, 64, 118, 376, 216]
32.371[103, 38, 33, 37, 70, 145, 373, 198]
32.393[93, 38, 33, 35, 69, 158, 345, 185]
32.416[96, 39, 34, 37, 71, 169, 360, 191]
32.431[92, 38, 33, 40, 68, 180, 386, 185]
32.453[83, 38, 32, 44, 75, 187, 368, 223]
32.492[76, 39, 36, 48, 76, 170, 330, 262]
32.5[79, 42, 37, 48, 73, 169, 363, 268]
32.513[75, 45, 39, 51, 72, 188, 394, 268]
32.536[72, 44, 42, 51, 75, 171, 372, 278]
32.551[89, 48, 45, 50, 92, 175, 363, 277]
32.573[114, 47, 42, 49, 89, 197, 450, 278]
32.604[120, 43, 40, 48, 90, 186, 425, 287]
32.619[119, 39, 40, 45, 89, 156, 390, 285]
32.633[139, 38, 37, 45, 98, 168, 364, 291]
32.656[131, 35, 34, 44, 92, 176, 390, 272]
32.679[117, 41, 37, 46, 92, 157, 301, 242]
32.693[141, 48, 41, 51, 95, 188, 292, 267]
32.716[149, 50, 41, 58, 108, 215, 284, 286]
32.739[131, 60, 46, 60, 103, 221, 326, 295]
32.754[152, 65, 49, 60, 91, 218, 295, 323]
32.776[152, 61, 45, 57, 88, 243, 305, 337]
32.799[119, 57, 43, 61, 100, 239, 312, 329]
32.813[115, 57, 45, 53, 85, 220, 306, 326]
32.835[124, 50, 39, 50, 84, 206, 266, 320]
32.859[116, 46, 37, 53, 89, 207, 323, 332]
32.873[121, 48, 39, 58, 95, 190, 349, 333]
32.895[125, 49, 39, 53, 93, 186, 362, 313]
32.919[128, 50, 40, 62, 115, 188, 381, 304]
32.933[131, 50, 41, 66, 122, 191, 408, 332]
32.955[121, 47, 40, 65, 126, 187, 394, 299]
32.979[112, 46, 40, 62, 124, 193, 422, 308]
32.993[114, 44, 37, 59, 115, 185, 439, 321]
33.016[113, 42, 35, 57, 106, 196, 458, 323]
33.039[111, 43, 41, 54, 103, 199, 454, 310]
33.053[108, 42, 40, 53, 91, 199, 461, 292]
33.075[115, 45, 43, 56, 90, 177, 401, 309]
33.099[131, 51, 45, 55, 90, 165, 389, 319]
33.113[128, 52, 45, 50, 78, 161, 395, 320]
33.136[125, 49, 40, 49, 78, 166, 421, 332]
33.159[129, 53, 44, 54, 86, 191, 421, 341]
33.173[127, 56, 47, 59, 91, 198, 430, 312]
33.204[110, 52, 46, 64, 99, 219, 451, 307]
33.219[128, 55, 46, 65, 96, 223, 426, 364]
33.233[121, 53, 46, 64, 90, 218, 390, 353]
33.264[126, 50, 42, 58, 83, 212, 376, 356]
33.279[133, 49, 45, 57, 80, 220, 382, 417]
33.293[149, 52, 46, 53, 71, 224, 344, 407]
33.316[140, 47, 45, 49, 68, 208, 325, 351]
33.339[143, 49, 45, 50, 79, 196, 351, 325]
33.361[139, 51, 46, 51, 88, 191, 410, 324]
33.376[134, 47, 36, 46, 84, 185, 427, 240]
33.399[126, 47, 37, 50, 91, 174, 438, 265]
33.413[142, 49, 39, 54, 98, 207, 465, 289]
33.436[149, 49, 40, 58, 97, 215, 441, 312]
33.459[143, 50, 39, 61, 107, 209, 377, 307]
33.482[146, 50, 39, 59, 106, 200, 409, 360]
33.496[151, 55, 40, 55, 101, 183, 415, 388]
33.519[131, 52, 36, 53, 103, 177, 394, 367]
33.541[122, 51, 36, 51, 100, 180, 435, 348]
33.556[138, 53, 38, 48, 95, 168, 443, 365]
33.579[139, 52, 39, 48, 98, 171, 380, 321]
33.602[140, 46, 35, 48, 96, 170, 389, 310]
33.616[135, 47, 37, 48, 89, 145, 397, 363]
33.639[128, 44, 35, 47, 84, 148, 365, 359]
33.661[109, 39, 34, 44, 64, 152, 351, 350]
33.676[96, 37, 35, 43, 57, 172, 464, 340]
33.699[81, 37, 36, 51, 79, 175, 425, 320]
33.722[93, 40, 38, 58, 95, 179, 432, 265]
33.736[112, 43, 38, 56, 99, 194, 440, 279]
33.759[113, 48, 40, 58, 101, 186, 438, 267]
33.781[117, 52, 39, 61, 103, 168, 324, 253]
33.796[135, 55, 42, 56, 88, 160, 372, 276]
33.819[128, 52, 41, 50, 73, 157, 357, 265]
33.842[118, 50, 41, 53, 72, 122, 324, 248]
33.856[120, 48, 39, 53, 84, 140, 361, 304]
33.879[132, 45, 38, 51, 90, 177, 405, 387]
33.901[107, 39, 32, 49, 87, 181, 389, 344]
33.916[110, 39, 30, 46, 87, 187, 375, 348]
33.939[113, 42, 30, 45, 83, 195, 382, 357]
33.961[116, 42, 33, 47, 74, 205, 378, 327]
33.984[99, 39, 34, 47, 64, 169, 335, 242]
33.999[121, 51, 39, 51, 76, 199, 343, 272]
34.021[125, 53, 38, 50, 75, 199, 380, 275]
34.035[121, 52, 38, 50, 74, 192, 385, 269]
34.059[125, 53, 40, 50, 74, 188, 373, 268]
34.081[137, 54, 42, 53, 74, 194, 359, 283]
34.095[121, 43, 42, 53, 73, 174, 355, 257]
34.119[118, 44, 46, 56, 72, 160, 333, 284]
34.141[124, 45, 46, 54, 72, 163, 386, 333]
34.156[120, 40, 41, 50, 69, 155, 395, 339]
34.179[107, 38, 39, 50, 75, 162, 431, 331]
34.202[106, 37, 34, 47, 70, 165, 423, 334]
34.215[107, 34, 29, 47, 75, 170, 411, 363]
34.239[101, 31, 28, 46, 75, 190, 361, 325]
34.261[100, 35, 29, 47, 79, 183, 319, 299]
34.276[98, 37, 30, 43, 72, 170, 278, 298]
34.299[115, 39, 32, 43, 68, 157, 287, 373]
34.321[110, 36, 31, 40, 67, 142, 287, 318]
34.335[101, 39, 32, 43, 72, 118, 285, 302]
34.359[101, 38, 33, 50, 79, 126, 313, 359]
34.381[107, 44, 38, 56, 85, 152, 384, 356]
34.395[83, 45, 38, 55, 83, 145, 367, 275]
34.426[89, 48, 39, 55, 79, 177, 379, 297]
34.441[95, 49, 43, 55, 79, 203, 449, 313]
34.455[101, 51, 43, 48, 71, 208, 448, 267]
34.479[97, 45, 39, 40, 66, 196, 388, 255]
34.501[98, 43, 38, 41, 69, 203, 380, 247]
34.532[96, 41, 38, 44, 70, 183, 372, 235]
34.539[113, 40, 34, 43, 74, 142, 327, 253]
34.561[102, 38, 33, 44, 79, 136, 299, 250]
34.584[107, 42, 34, 47, 86, 137, 340, 306]
34.599[112, 42, 34, 50, 91, 140, 363, 325]
34.622[107, 43, 35, 50, 98, 149, 370, 329]
34.644[95, 41, 34, 49, 93, 162, 326, 302]
34.659[131, 46, 38, 51, 93, 171, 347, 431]
34.681[134, 43, 37, 52, 89, 191, 387, 410]
34.704[137, 46, 40, 53, 94, 200, 381, 415]
34.719[164, 48, 38, 51, 89, 190, 374, 409]
34.741[162, 48, 39, 51, 85, 179, 373, 409]
34.764[137, 48, 38, 49, 82, 162, 365, 242]
34.779[158, 49, 40, 46, 79, 132, 274, 248]
34.801[161, 46, 34, 42, 72, 106, 240, 221]
34.824[146, 46, 36, 42, 82, 119, 276, 229]
34.839[151, 45, 34, 41, 82, 150, 325, 279]
34.862[148, 40, 31, 40, 79, 151, 318, 293]
34.89[116, 37, 28, 43, 82, 153, 309, 284]
34.899[124, 41, 33, 47, 85, 204, 361, 302]
34.922[115, 40, 32, 49, 77, 207, 354, 312]
34.95[106, 41, 36, 51, 87, 185, 332, 279]
34.959[105, 42, 38, 51, 88, 193, 330, 270]
34.982[112, 42, 41, 51, 86, 196, 360, 247]
35.003[86, 40, 39, 47, 86, 161, 379, 212]
35.019[84, 39, 38, 46, 81, 145, 404, 189]
35.04[86, 40, 37, 42, 72, 155, 403, 203]
35.063[90, 44, 37, 44, 73, 154, 412, 206]
35.08[78, 43, 32, 43, 75, 156, 424, 214]
35.1[90, 42, 31, 45, 67, 139, 366, 245]
35.123[101, 41, 31, 42, 64, 154, 313, 293]
35.139[95, 39, 29, 41, 59, 168, 326, 271]
35.16[102, 34, 29, 39, 59, 167, 307, 271]
35.183[103, 32, 30, 37, 55, 178, 319, 274]
35.2[96, 35, 32, 32, 68, 198, 343, 264]
35.222[83, 35, 34, 39, 72, 203, 397, 215]
35.243[96, 37, 36, 43, 77, 203, 392, 263]
35.259[96, 46, 40, 51, 80, 224, 444, 273]
35.28[99, 46, 39, 49, 79, 206, 405, 265]
35.303[100, 44, 37, 52, 72, 210, 419, 260]
35.319[111, 43, 35, 50, 75, 210, 364, 261]
35.34[104, 43, 35, 50, 81, 206, 348, 216]
35.363[104, 34, 28, 41, 78, 177, 296, 218]
35.379[110, 40, 33, 47, 83, 198, 335, 239]
35.4[108, 43, 33, 50, 84, 170, 304, 241]
35.423[113, 44, 35, 51, 84, 162, 323, 245]
35.446[110, 41, 32, 49, 75, 145, 314, 235]
35.46[104, 46, 35, 53, 73, 170, 361, 261]
35.483[113, 46, 31, 50, 72, 158, 341, 244]
35.505[129, 49, 37, 52, 75, 164, 338, 267]
35.52[119, 47, 35, 47, 72, 169, 336, 251]
35.543[119, 47, 37, 48, 80, 185, 346, 254]
35.565[124, 47, 36, 47, 85, 161, 271, 219]
35.581[115, 46, 38, 47, 84, 157, 251, 221]
35.603[100, 40, 33, 38, 72, 164, 268, 200]
35.626[103, 42, 34, 44, 82, 218, 272, 199]
35.648[105, 44, 33, 44, 75, 238, 255, 214]
35.663[94, 38, 31, 40, 70, 248, 266, 197]
35.685[98, 32, 28, 38, 65, 244, 275, 186]
35.7[108, 37, 30, 42, 74, 238, 265, 233]
35.723[102, 38, 31, 40, 75, 188, 251, 239]
35.746[105, 41, 31, 39, 72, 144, 240, 229]
35.762[107, 41, 30, 42, 71, 124, 233, 239]
35.783[98, 42, 33, 42, 74, 186, 343, 241]
35.814[86, 41, 32, 41, 77, 181, 339, 197]
35.82[82, 39, 31, 36, 65, 179, 334, 196]
35.843[103, 36, 32, 37, 66, 179, 339, 215]
35.866[107, 39, 34, 37, 67, 181, 343, 211]
35.881[106, 38, 31, 37, 65, 122, 290, 212]
35.903[108, 36, 31, 42, 60, 142, 295, 201]
35.935[105, 36, 32, 48, 64, 140, 298, 187]
35.941[80, 34, 31, 48, 74, 156, 322, 166]
35.963[72, 33, 30, 48, 73, 157, 327, 166]
35.985[73, 33, 29, 48, 73, 154, 284, 165]
36.0[74, 38, 33, 50, 82, 150, 289, 159]
36.023[85, 37, 32, 46, 77, 137, 279, 163]
36.046[89, 38, 36, 52, 87, 126, 274, 192]
36.06[89, 40, 40, 55, 92, 134, 285, 199]
36.083[100, 45, 43, 60, 101, 151, 269, 242]
36.105[100, 44, 41, 55, 91, 138, 257, 248]
36.12[95, 46, 41, 56, 93, 146, 265, 254]
36.143[108, 45, 37, 49, 75, 156, 263, 230]
36.165[110, 46, 35, 48, 72, 151, 260, 217]
36.18[99, 42, 31, 40, 56, 125, 267, 166]
36.203[96, 40, 30, 41, 70, 121, 270, 226]
36.226[119, 40, 31, 42, 72, 133, 273, 231]
36.24[107, 46, 37, 54, 92, 137, 285, 231]
36.263[104, 43, 34, 50, 92, 134, 270, 229]
36.285[104, 45, 41, 56, 95, 139, 257, 232]
36.3[97, 42, 42, 54, 86, 166, 292, 164]
36.323[69, 42, 43, 53, 81, 176, 327, 142]
36.346[77, 39, 41, 42, 60, 177, 336, 191]
36.369[86, 38, 41, 49, 64, 185, 340, 202]
36.383[97, 37, 36, 45, 64, 206, 348, 217]
36.405[95, 35, 36, 50, 68, 196, 354, 208]
36.428[95, 39, 35, 51, 69, 185, 334, 211]
36.443[107, 39, 36, 51, 65, 178, 336, 191]
36.465[98, 39, 36, 48, 78, 178, 334, 201]
36.488[92, 38, 35, 52, 82, 161, 358, 193]
36.503[93, 40, 33, 48, 82, 157, 313, 197]
36.526[95, 36, 33, 46, 82, 157, 298, 203]
36.548[78, 33, 30, 46, 82, 154, 330, 181]
36.563[88, 35, 29, 42, 75, 178, 368, 162]
36.586[93, 39, 30, 37, 70, 175, 341, 160]
36.608[97, 40, 31, 39, 76, 176, 351, 158]
36.623[98, 40, 32, 39, 78, 169, 368, 157]
36.646[112, 41, 34, 44, 99, 179, 358, 186]
36.668[109, 39, 33, 47, 98, 152, 317, 192]
36.683[103, 35, 33, 49, 102, 154, 321, 184]
36.706[107, 34, 32, 47, 99, 151, 354, 225]
36.728[102, 34, 29, 48, 97, 146, 350, 216]
36.743[79, 33, 29, 41, 78, 127, 289, 203]
36.766[73, 34, 33, 42, 74, 120, 290, 211]
36.788[92, 34, 31, 37, 66, 131, 307, 245]
36.803[93, 35, 31, 35, 57, 122, 255, 236]
36.826[95, 32, 29, 35, 61, 128, 259, 241]
36.848[97, 34, 30, 38, 57, 122, 290, 242]
36.863[101, 34, 27, 39, 55, 144, 293, 241]
36.885[90, 33, 29, 39, 66, 136, 281, 207]
36.908[84, 35, 32, 46, 72, 150, 297, 179]
36.923[88, 35, 34, 49, 70, 171, 269, 198]
36.945[87, 34, 31, 47, 72, 170, 236, 189]
36.968[81, 37, 32, 45, 70, 155, 220, 174]
36.983[76, 38, 32, 47, 68, 157, 256, 182]
37.005[77, 34, 32, 43, 71, 164, 250, 206]
37.028[81, 38, 33, 46, 78, 141, 276, 176]
37.043[83, 37, 33, 47, 76, 139, 272, 167]
37.066[86, 33, 33, 47, 75, 142, 284, 175]
37.088[85, 34, 35, 48, 73, 160, 253, 175]
37.103[81, 33, 31, 48, 67, 147, 272, 189]
37.125[73, 30, 31, 45, 76, 152, 254, 191]
37.157[73, 32, 36, 50, 89, 172, 350, 198]
37.164[73, 36, 35, 52, 91, 166, 400, 226]
37.201[73, 35, 33, 50, 89, 138, 401, 241]
37.208[79, 38, 35, 47, 91, 128, 385, 232]
37.223[75, 37, 35, 45, 75, 125, 416, 233]
37.246[89, 37, 30, 40, 60, 102, 358, 243]
37.268[85, 32, 27, 34, 60, 109, 316, 212]
37.283[85, 34, 28, 34, 63, 123, 321, 185]
37.305[80, 32, 24, 32, 60, 134, 322, 160]
37.328[80, 34, 27, 38, 66, 131, 298, 172]
37.351[60, 35, 33, 43, 67, 135, 291, 162]
37.366[61, 37, 33, 42, 64, 146, 282, 153]
37.388[59, 34, 35, 42, 59, 159, 308, 147]
37.411[57, 34, 35, 44, 65, 166, 339, 141]
37.426[63, 34, 35, 41, 66, 184, 356, 131]
37.448[64, 37, 33, 34, 68, 181, 354, 117]
37.471[64, 34, 33, 36, 76, 175, 373, 118]
37.485[66, 35, 32, 38, 82, 177, 395, 121]
37.508[69, 36, 34, 44, 85, 172, 375, 127]
37.531[69, 41, 34, 44, 86, 154, 366, 124]
37.546[80, 37, 31, 45, 85, 152, 366, 133]
37.568[91, 41, 35, 48, 82, 158, 352, 147]
37.591[93, 44, 36, 49, 76, 134, 309, 186]
37.605[93, 43, 35, 45, 70, 148, 306, 183]
37.628[99, 41, 34, 46, 73, 165, 307, 191]
37.651[95, 41, 36, 48, 78, 174, 365, 192]
37.665[92, 42, 36, 50, 76, 166, 349, 191]
37.688[87, 38, 33, 47, 81, 187, 397, 155]
37.711[82, 37, 33, 46, 84, 177, 421, 147]
37.725[86, 41, 36, 45, 79, 175, 467, 156]
37.749[83, 39, 36, 45, 73, 192, 433, 157]
37.771[76, 39, 35, 42, 72, 189, 436, 148]
37.786[83, 41, 37, 43, 65, 167, 369, 156]
37.808[89, 43, 36, 42, 66, 162, 339, 179]
37.831[75, 37, 34, 42, 72, 138, 276, 178]
37.845[69, 37, 33, 40, 74, 115, 277, 169]
37.868[73, 35, 31, 43, 80, 126, 312, 170]
37.891[65, 33, 32, 48, 93, 125, 323, 161]
37.906[60, 32, 33, 50, 90, 153, 309, 133]
37.928[60, 33, 32, 53, 107, 185, 310, 106]
37.951[69, 37, 35, 54, 108, 197, 306, 122]
37.965[74, 40, 38, 51, 106, 208, 336, 128]
37.988[75, 38, 37, 51, 95, 211, 359, 128]
38.019[75, 37, 36, 48, 93, 192, 364, 126]
38.025[80, 38, 36, 46, 78, 167, 366, 163]
38.048[92, 36, 34, 42, 71, 152, 382, 217]
38.071[84, 36, 32, 44, 72, 135, 339, 215]
38.085[91, 39, 33, 42, 77, 193, 353, 217]
38.108[93, 41, 33, 45, 79, 195, 351, 220]
38.131[89, 41, 32, 41, 71, 202, 325, 192]
38.154[79, 40, 36, 48, 78, 196, 328, 138]
38.168[78, 39, 38, 48, 75, 208, 332, 141]
38.193[73, 38, 38, 51, 80, 158, 291, 176]
38.206[77, 41, 40, 59, 92, 170, 329, 179]
38.228[84, 42, 44, 68, 103, 186, 348, 198]
38.251[75, 40, 40, 66, 99, 194, 333, 191]
38.274[80, 41, 39, 66, 104, 218, 393, 212]
38.288[102, 49, 44, 64, 115, 232, 447, 251]
38.311[107, 45, 42, 62, 136, 225, 466, 272]
38.341[104, 43, 40, 54, 126, 208, 467, 258]
38.348[111, 43, 39, 55, 134, 233, 502, 261]
38.372[110, 42, 37, 55, 133, 219, 466, 249]
38.394[87, 34, 32, 53, 123, 222, 438, 218]
38.408[84, 38, 36, 49, 97, 239, 413, 192]
38.431[90, 40, 34, 50, 108, 251, 404, 220]
38.454[94, 48, 38, 52, 106, 223, 348, 222]
38.468[94, 47, 37, 50, 100, 216, 316, 220]
38.499[104, 47, 39, 52, 99, 211, 319, 206]
38.513[122, 53, 42, 58, 99, 206, 309, 220]
38.528[119, 51, 44, 59, 94, 204, 334, 209]
38.552[116, 52, 45, 59, 96, 233, 344, 207]
38.574[120, 55, 47, 60, 106, 226, 379, 221]
38.588[127, 53, 46, 59, 103, 209, 345, 209]
38.611[109, 49, 42, 53, 101, 195, 357, 208]
38.634[118, 52, 41, 55, 99, 177, 354, 242]
38.648[112, 45, 37, 50, 90, 128, 335, 249]
38.673[110, 43, 39, 57, 88, 121, 294, 243]
38.694[111, 46, 36, 56, 84, 144, 294, 311]
38.708[112, 44, 35, 53, 78, 142, 296, 315]
38.731[111, 43, 37, 52, 73, 150, 238, 309]
38.754[109, 43, 36, 53, 88, 161, 256, 306]
38.768[109, 41, 33, 43, 83, 159, 255, 311]
38.791[100, 41, 36, 48, 97, 162, 282, 255]
38.814[94, 39, 41, 54, 110, 184, 266, 256]
38.828[89, 39, 42, 59, 111, 190, 310, 239]
38.851[102, 41, 44, 59, 100, 188, 296, 270]
38.874[109, 47, 46, 64, 104, 186, 300, 270]
38.896[101, 47, 45, 61, 90, 170, 272, 252]
38.911[99, 49, 41, 59, 80, 141, 277, 270]
38.933[95, 48, 41, 55, 81, 134, 241, 256]
38.948[87, 48, 39, 57, 103, 127, 233, 225]
38.971[75, 42, 40, 56, 105, 146, 238, 215]
38.994[79, 41, 38, 58, 114, 188, 352, 225]
39.008[90, 38, 37, 54, 111, 197, 343, 189]
39.031[93, 37, 35, 58, 118, 195, 350, 242]
39.054[92, 38, 37, 56, 102, 200, 369, 237]
39.068[94, 39, 35, 54, 94, 200, 408, 247]
39.099[102, 43, 37, 56, 92, 169, 314, 247]
39.114[92, 44, 38, 57, 105, 159, 297, 239]
39.129[88, 44, 36, 52, 94, 148, 281, 196]
39.151[96, 43, 35, 56, 93, 185, 299, 192]
39.173[97, 43, 35, 58, 103, 177, 260, 193]
39.188[86, 38, 33, 54, 102, 159, 263, 177]
39.219[91, 40, 34, 56, 94, 169, 281, 195]
39.234[89, 40, 34, 55, 94, 170, 287, 185]
39.256[82, 38, 35, 50, 92, 146, 318, 218]
39.271[96, 39, 32, 46, 83, 141, 318, 193]
39.294[94, 39, 33, 45, 75, 146, 318, 206]
39.316[85, 35, 28, 39, 64, 139, 318, 194]
39.331[92, 34, 32, 39, 62, 138, 309, 189]
39.354[106, 35, 31, 35, 74, 159, 312, 237]
39.376[100, 37, 31, 38, 75, 155, 296, 284]
39.391[102, 36, 32, 37, 74, 158, 284, 282]
39.414[103, 34, 33, 36, 73, 150, 270, 291]
39.436[102, 38, 31, 41, 93, 182, 331, 294]
39.451[95, 41, 34, 46, 94, 159, 267, 256]
39.474[89, 41, 38, 51, 100, 159, 285, 213]
39.496[101, 44, 38, 53, 102, 167, 305, 221]
39.511[105, 47, 40, 58, 115, 205, 342, 213]
39.534[100, 44, 38, 57, 108, 196, 301, 238]
39.556[93, 42, 35, 56, 101, 199, 295, 224]
39.571[90, 39, 33, 50, 94, 228, 322, 224]
39.594[75, 36, 32, 51, 101, 231, 325, 212]
39.616[96, 42, 35, 51, 96, 216, 307, 285]
39.631[96, 42, 37, 49, 86, 216, 349, 273]
39.653[97, 43, 36, 45, 83, 210, 366, 259]
39.676[94, 45, 36, 47, 86, 173, 349, 249]
39.691[95, 45, 36, 44, 78, 161, 366, 257]
39.714[75, 40, 34, 44, 78, 166, 380, 207]
39.736[74, 41, 34, 44, 87, 159, 336, 222]
39.75[72, 40, 33, 45, 89, 153, 319, 226]
39.774[70, 37, 32, 42, 89, 157, 286, 236]
39.796[66, 37, 31, 42, 88, 162, 273, 223]
39.81[64, 36, 28, 40, 89, 142, 243, 194]
39.834[69, 35, 28, 43, 95, 130, 245, 183]
39.863[68, 36, 29, 44, 94, 124, 254, 179]
39.878[71, 36, 29, 44, 89, 118, 249, 166]
39.894[70, 34, 28, 43, 89, 105, 204, 161]
39.915[61, 31, 28, 37, 78, 81, 173, 142]
39.938[52, 31, 44, 91, 82, 71, 137, 94]
39.954[43, 29, 45, 102, 80, 60, 87, 68]
39.975[38, 34, 55, 153, 81, 52, 62, 57]
39.998[38, 38, 71, 168, 82, 38, 52, 48]
40.014[39, 40, 75, 172, 92, 40, 42, 38]
40.035[38, 40, 72, 207, 76, 35, 37, 34]
40.058[39, 46, 82, 220, 94, 43, 38, 34]
40.074[36, 44, 77, 193, 92, 43, 37, 33]
40.103[35, 41, 63, 181, 86, 41, 35, 29]
40.118[33, 39, 58, 181, 76, 38, 33, 27]
40.14[31, 37, 55, 115, 69, 35, 29, 29]
40.171[27, 27, 36, 73, 52, 25, 24, 24]
40.185[26, 24, 31, 60, 55, 24, 22, 20]
40.194[24, 22, 31, 57, 61, 26, 22, 21]
40.215[25, 22, 29, 46, 71, 26, 26, 23]
40.238[24, 20, 24, 37, 70, 26, 26, 19]
40.254[21, 20, 22, 35, 64, 25, 24, 19]
40.275[22, 20, 25, 34, 68, 27, 27, 19]
40.298[22, 21, 25, 38, 88, 32, 28, 19]
40.314[18, 23, 25, 36, 82, 32, 25, 16]
40.337[20, 22, 23, 35, 82, 31, 22, 17]
40.358[18, 21, 24, 33, 77, 31, 22, 18]
40.374[17, 21, 22, 30, 72, 27, 20, 17]
40.396[17, 21, 22, 22, 48, 19, 18, 17]
40.425[19, 18, 22, 20, 49, 18, 19, 21]
40.434[18, 20, 23, 20, 50, 21, 21, 24]
40.463[19, 22, 23, 19, 50, 20, 22, 26]
40.478[22, 21, 23, 20, 49, 21, 21, 29]
40.495[22, 20, 23, 19, 39, 20, 23, 30]
40.515[24, 21, 22, 20, 45, 21, 23, 33]
40.538[22, 21, 21, 21, 43, 18, 23, 38]
40.553[24, 18, 19, 21, 44, 19, 23, 39]
40.575[21, 19, 21, 20, 44, 19, 24, 40]
40.598[20, 21, 19, 21, 52, 21, 21, 39]
40.613[19, 20, 18, 19, 48, 20, 21, 35]
40.637[20, 20, 19, 18, 48, 20, 22, 27]
40.658[18, 21, 22, 18, 50, 21, 19, 23]
40.673[20, 20, 21, 23, 52, 21, 19, 21]
40.695[22, 18, 24, 24, 62, 20, 20, 19]
40.718[22, 21, 24, 25, 59, 21, 20, 17]
40.733[23, 21, 22, 26, 57, 21, 18, 18]
40.755[21, 19, 20, 26, 55, 19, 18, 19]
40.778[21, 21, 20, 21, 53, 21, 16, 19]
40.793[20, 23, 19, 21, 54, 21, 16, 21]
40.815[22, 21, 21, 21, 53, 19, 17, 20]
40.838[21, 22, 22, 21, 52, 20, 19, 19]
40.853[23, 23, 22, 20, 52, 19, 20, 19]
40.883[22, 21, 21, 24, 52, 19, 20, 17]
40.898[24, 19, 21, 26, 48, 19, 29, 24]
40.913[23, 20, 20, 25, 51, 21, 49, 32]
40.935[23, 20, 19, 25, 53, 23, 52, 36]
40.958[23, 21, 20, 25, 52, 24, 52, 35]
40.973[22, 23, 20, 23, 68, 24, 53, 36]
40.995[20, 21, 21, 19, 59, 23, 49, 34]
41.018[18, 25, 21, 20, 57, 22, 30, 27]
41.034[17, 22, 22, 22, 56, 21, 23, 23]
41.055[17, 22, 20, 23, 56, 20, 23, 23]
41.086[16, 21, 21, 23, 50, 17, 24, 23]
41.093[17, 24, 20, 24, 48, 19, 21, 20]
41.116[17, 21, 19, 24, 51, 20, 20, 19]
41.138[19, 21, 20, 22, 50, 19, 21, 18]
41.16[20, 23, 21, 22, 49, 20, 21, 18]
41.175[21, 23, 20, 23, 53, 22, 19, 22]
41.198[21, 22, 20, 23, 53, 20, 21, 23]
41.221[21, 23, 21, 23, 48, 19, 22, 22]
41.235[20, 23, 22, 22, 50, 25, 21, 22]
41.258[20, 22, 20, 21, 60, 26, 20, 22]
41.289[19, 19, 22, 20, 47, 25, 21, 19]
41.296[18, 20, 21, 20, 47, 25, 19, 17]
41.319[18, 19, 20, 18, 49, 25, 19, 16]
41.34[18, 19, 18, 18, 49, 20, 21, 17]
41.355[17, 18, 19, 21, 51, 18, 21, 17]
41.394[18, 20, 17, 19, 50, 18, 20, 18]
41.401[18, 20, 16, 19, 50, 18, 20, 20]
41.415[18, 20, 17, 20, 49, 22, 18, 20]
41.446[19, 20, 19, 22, 47, 22, 18, 20]
41.46[19, 20, 21, 22, 50, 21, 18, 19]
41.475[19, 18, 22, 23, 50, 22, 19, 21]
41.498[21, 18, 23, 22, 49, 21, 21, 19]
41.52[20, 18, 23, 26, 49, 20, 23, 20]
41.537[18, 17, 23, 25, 50, 20, 21, 21]
41.558[18, 18, 21, 21, 35, 22, 23, 21]
41.58[18, 22, 20, 22, 48, 23, 23, 21]
41.595[15, 22, 20, 22, 49, 26, 22, 21]
41.618[16, 20, 21, 19, 50, 24, 21, 20]
41.64[15, 21, 20, 19, 56, 25, 20, 20]
41.655[15, 23, 21, 20, 62, 24, 18, 21]
41.678[17, 19, 22, 18, 52, 23, 19, 20]
41.7[19, 19, 21, 23, 51, 22, 19, 20]
41.715[18, 20, 22, 22, 49, 23, 19, 20]
41.738[19, 20, 22, 21, 46, 24, 22, 21]
41.76[22, 20, 21, 22, 45, 24, 23, 19]
41.775[21, 22, 22, 24, 44, 25, 21, 21]
41.798[21, 21, 24, 19, 44, 23, 21, 21]
41.82[21, 22, 22, 21, 50, 23, 20, 22]
41.835[21, 21, 22, 21, 64, 23, 19, 21]
41.866[20, 19, 23, 23, 62, 24, 19, 22]
41.88[21, 21, 23, 22, 64, 23, 19, 21]
41.895[21, 23, 22, 24, 63, 23, 21, 21]
41.918[21, 23, 21, 23, 58, 23, 22, 19]
41.94[21, 23, 21, 24, 59, 24, 20, 19]
41.955[19, 24, 21, 22, 57, 24, 20, 20]
41.978[18, 21, 21, 22, 56, 24, 20, 22]
42.002[18, 20, 19, 20, 55, 23, 19, 20]
42.015[17, 22, 22, 21, 56, 24, 17, 20]
42.038[18, 21, 21, 21, 53, 21, 17, 21]
42.06[18, 22, 21, 19, 52, 19, 18, 20]
42.083[20, 21, 19, 20, 53, 20, 21, 17]
42.098[22, 20, 22, 20, 54, 21, 20, 17]
42.12[24, 19, 21, 18, 54, 18, 21, 17]
42.143[23, 19, 21, 18, 51, 18, 23, 16]
42.159[24, 18, 22, 18, 52, 20, 22, 18]
42.18[23, 19, 22, 20, 52, 20, 20, 19]
42.203[20, 20, 21, 21, 51, 20, 21, 20]
42.218[17, 20, 21, 22, 50, 21, 20, 20]
42.24[18, 20, 21, 21, 34, 21, 20, 20]
42.263[18, 21, 19, 23, 46, 18, 20, 18]
42.286[21, 20, 20, 21, 47, 20, 21, 19]
42.3[22, 20, 18, 20, 47, 18, 20, 19]
42.323[23, 17, 20, 19, 48, 18, 24, 19]
42.338[21, 19, 19, 21, 63, 18, 21, 18]
42.36[22, 20, 20, 20, 59, 21, 22, 17]
42.383[19, 21, 20, 22, 59, 21, 22, 20]
42.398[18, 21, 21, 22, 58, 22, 22, 20]
42.421[18, 22, 20, 22, 59, 21, 17, 20]
42.443[21, 21, 20, 21, 44, 20, 19, 21]
42.466[19, 22, 19, 20, 48, 16, 19, 21]
42.48[20, 22, 21, 20, 48, 18, 19, 19]
42.503[19, 20, 21, 19, 48, 18, 19, 19]
42.518[22, 21, 21, 23, 49, 19, 19, 19]
42.54[20, 21, 22, 23, 62, 20, 19, 20]
42.564[21, 19, 24, 23, 53, 22, 19, 21]
42.578[20, 18, 22, 23, 51, 23, 17, 19]
42.6[22, 22, 21, 23, 53, 22, 17, 20]
42.624[19, 20, 21, 19, 53, 21, 18, 20]
42.638[21, 20, 19, 21, 49, 22, 17, 18]
42.66[21, 20, 18, 22, 51, 22, 17, 20]
42.684[21, 21, 19, 22, 52, 20, 18, 21]
42.698[20, 18, 19, 21, 50, 21, 19, 20]
42.72[20, 18, 22, 21, 50, 21, 18, 21]
42.743[19, 20, 23, 19, 49, 21, 18, 21]
42.758[20, 20, 22, 20, 51, 21, 21, 21]
42.78[19, 20, 21, 20, 51, 20, 23, 22]
42.804[19, 20, 23, 21, 51, 21, 23, 21]
42.818[19, 22, 20, 21, 48, 20, 25, 20]
42.84[20, 21, 19, 23, 51, 20, 26, 21]
42.864[19, 22, 20, 21, 50, 22, 23, 19]
42.878[20, 22, 20, 21, 49, 23, 20, 17]
42.9[20, 21, 18, 21, 50, 22, 21, 17]
42.923[21, 20, 17, 23, 53, 22, 22, 18]
42.947[20, 21, 18, 21, 52, 21, 22, 18]
42.961[20, 22, 18, 22, 51, 19, 22, 18]
42.984[22, 21, 20, 21, 51, 17, 25, 19]
43.006[22, 22, 20, 23, 50, 18, 23, 21]
43.02[20, 21, 26, 22, 49, 17, 21, 20]
43.044[21, 20, 24, 23, 50, 17, 19, 21]
43.066[22, 19, 26, 24, 54, 19, 20, 21]
43.08[19, 20, 24, 25, 56, 21, 16, 20]
43.104[19, 19, 24, 23, 56, 20, 16, 19]
43.134[19, 20, 19, 27, 64, 21, 17, 19]
43.14[19, 20, 20, 27, 53, 22, 17, 17]
43.163[21, 19, 18, 26, 46, 21, 18, 17]
43.186[22, 18, 17, 24, 52, 21, 20, 16]
43.2[23, 18, 19, 24, 52, 21, 19, 17]
43.227[25, 20, 19, 20, 41, 21, 19, 19]
43.249[24, 19, 21, 19, 52, 21, 18, 19]
43.269[22, 20, 22, 20, 52, 20, 18, 20]
43.31[22, 20, 22, 21, 46, 20, 17, 22]
43.312[23, 20, 21, 21, 46, 20, 18, 22]
43.32[22, 18, 21, 21, 46, 19, 18, 20]
43.344[22, 20, 20, 23, 42, 20, 17, 22]
43.366[21, 21, 20, 21, 46, 20, 17, 22]
43.38[21, 21, 19, 22, 45, 22, 16, 20]
43.403[19, 20, 18, 23, 46, 24, 16, 20]
43.426[19, 21, 20, 23, 48, 24, 18, 20]
43.44[20, 18, 20, 21, 55, 23, 18, 19]
43.464[21, 18, 19, 23, 54, 23, 18, 18]
43.486[20, 18, 19, 21, 57, 21, 18, 18]
43.5[22, 19, 20, 22, 57, 22, 19, 18]
43.523[20, 19, 19, 24, 71, 23, 17, 18]
43.546[20, 20, 18, 24, 59, 23, 18, 20]
43.56[19, 21, 18, 24, 58, 22, 21, 19]
43.583[19, 22, 18, 26, 56, 22, 22, 20]
43.606[17, 21, 22, 24, 56, 19, 20, 20]
43.62[18, 20, 21, 25, 53, 21, 23, 20]
43.643[17, 19, 23, 25, 53, 21, 24, 18]
43.666[18, 18, 23, 25, 52, 21, 22, 18]
43.681[19, 17, 23, 24, 50, 21, 22, 20]
43.704[20, 19, 20, 23, 49, 22, 23, 19]
43.726[19, 21, 21, 21, 47, 19, 23, 19]
43.74[19, 21, 21, 21, 48, 20, 22, 21]
43.764[20, 22, 21, 20, 48, 20, 22, 21]
43.786[19, 22, 20, 23, 47, 19, 21, 19]
43.8[18, 20, 19, 23, 46, 19, 19, 21]
43.823[19, 21, 21, 22, 51, 21, 19, 21]
43.846[19, 21, 21, 23, 50, 21, 19, 19]
43.86[18, 20, 21, 22, 52, 21, 20, 19]
43.883[19, 20, 22, 20, 54, 22, 20, 21]
43.906[18, 22, 23, 20, 57, 21, 25, 22]
43.92[17, 20, 22, 21, 50, 19, 22, 21]
43.943[17, 21, 21, 20, 50, 20, 24, 21]
43.966[20, 21, 21, 22, 48, 20, 23, 21]
43.988[20, 21, 22, 21, 48, 20, 23, 19]
44.003[24, 21, 21, 22, 44, 20, 19, 18]
44.026[23, 21, 19, 23, 46, 20, 21, 19]
44.048[24, 20, 19, 23, 45, 19, 20, 19]
44.063[21, 20, 21, 25, 44, 20, 20, 18]
44.086[21, 21, 19, 25, 44, 19, 20, 18]
44.108[18, 19, 20, 25, 47, 21, 20, 16]
44.123[21, 19, 21, 24, 55, 21, 17, 16]
44.146[19, 19, 22, 23, 55, 21, 17, 17]
44.168[21, 20, 21, 23, 56, 20, 15, 17]
44.183[22, 20, 22, 22, 57, 21, 15, 17]
44.206[21, 21, 22, 26, 72, 20, 15, 17]
44.228[18, 22, 21, 25, 60, 20, 18, 19]
44.243[18, 21, 21, 26, 61, 18, 18, 18]
44.266[17, 23, 21, 25, 62, 19, 18, 21]
44.289[15, 22, 19, 27, 62, 18, 18, 21]
44.303[18, 21, 18, 22, 38, 18, 20, 22]
44.326[20, 20, 17, 21, 54, 20, 18, 20]
44.348[19, 20, 17, 21, 53, 21, 18, 21]
44.364[20, 17, 17, 20, 53, 23, 17, 19]
44.386[21, 18, 17, 19, 55, 23, 20, 21]
44.408[18, 19, 17, 20, 55, 22, 20, 21]
44.423[17, 22, 19, 21, 52, 21, 20, 22]
44.446[17, 21, 19, 20, 53, 20, 20, 21]
44.469[17, 21, 19, 20, 53, 19, 22, 23]
44.483[16, 21, 19, 20, 49, 21, 20, 21]
44.507[16, 20, 21, 22, 50, 22, 19, 21]
44.528[17, 16, 19, 22, 50, 20, 21, 19]
44.543[18, 17, 21, 22, 50, 19, 21, 18]
44.566[18, 18, 21, 20, 50, 19, 19, 19]
44.589[19, 19, 23, 19, 53, 19, 19, 19]
44.603[21, 19, 21, 16, 52, 18, 19, 23]
44.626[20, 20, 22, 18, 51, 19, 19, 23]
44.648[21, 20, 21, 17, 50, 19, 22, 23]
44.663[23, 21, 23, 19, 50, 18, 23, 22]
44.686[22, 20, 21, 22, 47, 19, 23, 22]
44.708[21, 21, 21, 21, 50, 20, 22, 18]
44.724[21, 20, 20, 22, 48, 21, 21, 19]
44.746[19, 20, 22, 23, 48, 22, 20, 19]
44.769[16, 20, 22, 22, 50, 22, 18, 19]
44.783[17, 19, 23, 20, 51, 20, 19, 20]
44.806[19, 18, 21, 20, 49, 21, 19, 20]
44.828[19, 19, 22, 21, 53, 21, 19, 20]
44.843[21, 19, 20, 23, 52, 21, 20, 21]
44.867[20, 18, 19, 23, 49, 25, 21, 21]
44.888[21, 18, 20, 24, 49, 25, 25, 22]
44.91[18, 20, 20, 25, 54, 24, 24, 23]
44.933[18, 20, 20, 23, 51, 24, 25, 22]
44.948[16, 20, 19, 22, 52, 24, 23, 21]
44.97[18, 20, 19, 22, 52, 21, 23, 21]
44.987[19, 21, 18, 21, 53, 21, 23, 20]
45.008[20, 23, 18, 23, 59, 19, 24, 19]
45.038[20, 23, 19, 22, 48, 21, 24, 20]
45.047[20, 23, 22, 22, 50, 21, 25, 20]
45.068[19, 23, 21, 22, 50, 21, 24, 19]
45.09[16, 23, 22, 22, 48, 23, 21, 18]
45.107[16, 21, 22, 19, 43, 23, 20, 18]
45.128[17, 20, 20, 21, 51, 21, 19, 18]
45.15[19, 21, 18, 21, 50, 20, 17, 17]
45.167[18, 23, 18, 21, 51, 19, 17, 17]
45.188[21, 21, 19, 23, 51, 18, 15, 18]
45.211[19, 20, 18, 23, 43, 22, 18, 18]
45.227[18, 21, 21, 24, 31, 22, 19, 17]
45.248[17, 19, 22, 24, 47, 22, 20, 17]
45.27[19, 17, 21, 24, 47, 22, 21, 17]
45.287[17, 19, 20, 23, 48, 25, 22, 16]
45.308[20, 20, 21, 23, 49, 24, 21, 16]
45.33[20, 18, 21, 22, 49, 23, 20, 17]
45.347[22, 19, 22, 24, 45, 23, 20, 16]
45.368[21, 19, 23, 24, 47, 22, 21, 18]
45.39[20, 17, 22, 23, 47, 20, 19, 18]
45.407[20, 18, 21, 25, 45, 19, 18, 18]
45.428[21, 19, 21, 24, 45, 19, 19, 18]
45.45[20, 18, 20, 21, 31, 21, 18, 18]
45.467[21, 20, 21, 22, 40, 22, 18, 19]
45.488[21, 20, 22, 23, 41, 22, 18, 20]
45.51[20, 19, 24, 22, 44, 21, 18, 20]
45.527[22, 21, 22, 21, 44, 22, 21, 22]
45.548[22, 21, 22, 21, 45, 20, 21, 22]
45.57[20, 20, 21, 23, 43, 21, 20, 23]
45.587[21, 23, 20, 25, 42, 19, 21, 22]
45.608[21, 22, 20, 24, 40, 19, 22, 21]
45.63[20, 21, 20, 24, 42, 20, 21, 20]
45.655[20, 22, 20, 26, 43, 20, 20, 18]
45.668[21, 22, 21, 25, 47, 20, 20, 15]
45.691[18, 20, 22, 21, 48, 21, 20, 18]
45.707[19, 20, 20, 23, 48, 22, 21, 18]
45.728[22, 19, 22, 23, 47, 21, 19, 17]
45.75[22, 19, 23, 23, 46, 21, 21, 19]
45.767[23, 20, 22, 22, 40, 20, 21, 20]
45.788[23, 20, 23, 24, 40, 19, 21, 18]
45.827[22, 20, 25, 22, 39, 20, 19, 19]
45.828[19, 22, 24, 23, 40, 22, 20, 19]
45.848[20, 22, 23, 21, 41, 21, 18, 19]
45.87[20, 23, 23, 21, 55, 23, 21, 20]
45.893[20, 21, 20, 21, 56, 23, 21, 19]
45.908[22, 21, 20, 21, 55, 21, 21, 20]
45.93[22, 19, 18, 21, 55, 19, 21, 20]
45.953[21, 19, 17, 22, 54, 19, 20, 20]
45.968[19, 18, 19, 24, 44, 18, 17, 20]
45.99[20, 18, 19, 24, 45, 17, 17, 20]
46.013[18, 19, 19, 25, 46, 16, 19, 20]
46.028[18, 21, 21, 24, 45, 19, 19, 21]
46.051[17, 23, 22, 22, 44, 21, 20, 19]
46.073[17, 22, 22, 20, 31, 22, 21, 21]
46.088[16, 22, 24, 22, 43, 23, 20, 23]
46.11[17, 23, 24, 20, 46, 24, 21, 23]
46.133[17, 21, 24, 20, 47, 22, 20, 25]
46.155[18, 19, 25, 21, 47, 22, 20, 25]
46.17[19, 18, 24, 21, 49, 21, 19, 23]
46.193[20, 20, 24, 19, 49, 21, 18, 24]
46.209[19, 19, 23, 22, 47, 19, 19, 23]
46.23[21, 20, 21, 23, 48, 19, 18, 19]
46.253[19, 20, 22, 21, 48, 19, 19, 18]
46.269[19, 20, 21, 22, 47, 20, 19, 21]
46.29[19, 19, 21, 22, 50, 21, 20, 19]
46.313[18, 19, 21, 20, 51, 23, 18, 19]
46.328[18, 18, 22, 19, 50, 26, 19, 20]
46.35[19, 21, 21, 22, 51, 25, 19, 20]
46.373[20, 21, 21, 23, 50, 26, 18, 17]
46.388[20, 20, 21, 22, 47, 25, 19, 18]
46.41[22, 20, 20, 21, 45, 23, 19, 17]
46.441[21, 19, 18, 22, 45, 23, 18, 16]
46.448[21, 16, 20, 22, 46, 22, 17, 17]
46.47[20, 19, 21, 22, 52, 22, 17, 17]
46.493[21, 20, 23, 21, 51, 21, 17, 19]
46.508[18, 23, 23, 21, 52, 22, 15, 20]
46.53[19, 23, 24, 21, 53, 21, 16, 21]
46.553[18, 23, 22, 23, 53, 23, 21, 20]
46.568[19, 22, 20, 21, 48, 21, 21, 20]
46.598[20, 19, 21, 20, 53, 23, 22, 18]
46.613[20, 19, 24, 22, 53, 22, 23, 17]
46.628[20, 19, 24, 25, 54, 22, 24, 15]
46.65[21, 22, 24, 20, 53, 20, 20, 17]
46.673[18, 20, 24, 22, 55, 19, 22, 17]
46.688[17, 24, 23, 22, 50, 18, 21, 17]
46.71[17, 23, 22, 20, 50, 20, 21, 18]
46.733[17, 25, 22, 19, 47, 19, 20, 19]
46.748[17, 23, 24, 21, 48, 23, 20, 19]
46.772[19, 23, 23, 21, 46, 24, 20, 20]
46.793[20, 21, 23, 22, 50, 25, 18, 23]
46.815[20, 20, 24, 22, 49, 23, 17, 23]
46.83[22, 21, 25, 19, 50, 25, 16, 22]
46.853[21, 21, 24, 20, 50, 22, 16, 21]
46.875[19, 22, 25, 21, 50, 21, 16, 20]
46.891[18, 22, 25, 22, 54, 22, 16, 17]
46.913[19, 22, 22, 24, 55, 23, 18, 16]
46.935[17, 22, 21, 26, 55, 22, 18, 17]
46.95[18, 21, 23, 23, 55, 21, 18, 20]
46.973[18, 21, 22, 25, 55, 23, 17, 21]
46.995[18, 20, 22, 23, 40, 21, 18, 20]
47.01[17, 20, 24, 21, 50, 18, 16, 21]
47.033[17, 20, 23, 19, 50, 18, 17, 21]
47.055[17, 21, 21, 21, 50, 17, 17, 20]
47.07[18, 20, 21, 20, 51, 18, 18, 19]
47.093[17, 21, 22, 21, 45, 18, 17, 19]
47.115[18, 21, 20, 22, 50, 19, 20, 18]
47.13[17, 22, 21, 22, 50, 21, 22, 17]
47.153[18, 22, 21, 23, 49, 22, 21, 18]
47.176[17, 24, 22, 22, 49, 21, 22, 19]
47.19[19, 23, 22, 22, 50, 20, 22, 19]
47.221[17, 23, 23, 22, 47, 21, 24, 20]
47.235[18, 21, 22, 23, 46, 23, 22, 20]
47.25[20, 21, 22, 22, 48, 24, 25, 18]
47.281[24, 21, 22, 23, 50, 24, 24, 18]
47.295[24, 24, 21, 24, 48, 26, 23, 21]
47.31[24, 23, 21, 26, 34, 26, 20, 20]
47.333[23, 24, 21, 23, 45, 23, 21, 20]
47.355[21, 22, 21, 23, 45, 22, 19, 20]
47.37[19, 23, 21, 22, 43, 23, 21, 20]
47.393[19, 22, 22, 21, 44, 22, 22, 17]
47.415[19, 22, 23, 17, 42, 23, 21, 17]
47.43[20, 22, 23, 19, 44, 23, 19, 18]
47.453[20, 24, 23, 18, 45, 21, 19, 18]
47.475[22, 23, 23, 21, 44, 22, 21, 18]
47.498[20, 23, 22, 22, 45, 22, 19, 18]
47.513[22, 22, 20, 23, 45, 20, 21, 17]
47.536[22, 23, 21, 22, 30, 20, 22, 16]
47.55[24, 22, 22, 23, 32, 22, 23, 17]
47.573[20, 22, 22, 20, 43, 21, 20, 17]
47.595[21, 20, 22, 20, 46, 21, 21, 19]
47.61[20, 21, 24, 20, 47, 21, 20, 20]
47.642[20, 19, 22, 19, 49, 24, 20, 20]
47.655[17, 18, 22, 23, 58, 22, 18, 20]
47.67[18, 20, 22, 24, 52, 22, 22, 19]
47.701[19, 19, 22, 23, 50, 21, 22, 19]
47.715[18, 19, 20, 24, 48, 20, 22, 16]
47.739[22, 20, 23, 24, 49, 16, 22, 17]
47.753[21, 20, 23, 24, 49, 18, 22, 16]
47.775[21, 22, 24, 25, 48, 18, 19, 18]
47.798[20, 22, 23, 27, 49, 19, 19, 17]
47.813[21, 22, 26, 27, 51, 19, 18, 17]
47.835[19, 22, 25, 27, 47, 20, 20, 17]
47.859[19, 22, 23, 26, 32, 19, 21, 17]
47.873[19, 21, 21, 25, 48, 19, 21, 16]
47.911[19, 24, 22, 22, 47, 19, 21, 19]
47.919[18, 24, 19, 21, 47, 18, 23, 21]
47.933[17, 24, 20, 20, 48, 19, 22, 21]
47.956[19, 25, 21, 20, 46, 18, 22, 21]
47.979[20, 22, 23, 20, 50, 19, 23, 25]
47.993[20, 22, 22, 21, 51, 19, 23, 22]
48.017[21, 21, 23, 23, 52, 20, 21, 20]
48.039[21, 23, 22, 24, 53, 21, 21, 19]
48.053[21, 22, 22, 22, 54, 21, 21, 21]
48.076[19, 25, 22, 20, 38, 21, 20, 18]
48.098[18, 22, 21, 20, 43, 21, 21, 17]
48.113[18, 23, 21, 20, 44, 20, 21, 19]
48.136[17, 22, 21, 19, 42, 18, 21, 21]
48.158[17, 22, 21, 22, 42, 19, 20, 18]
48.173[16, 20, 20, 21, 37, 19, 23, 18]
48.196[17, 21, 21, 22, 27, 19, 21, 19]
48.219[17, 20, 20, 20, 27, 20, 22, 18]
48.233[18, 18, 20, 23, 43, 23, 23, 17]
48.256[20, 19, 22, 21, 47, 24, 22, 18]
48.278[21, 18, 21, 23, 48, 25, 19, 19]
48.293[20, 19, 20, 21, 49, 25, 21, 20]
48.317[18, 22, 20, 24, 47, 25, 21, 21]
48.338[20, 22, 22, 23, 52, 23, 19, 22]
48.353[19, 22, 20, 23, 51, 21, 20, 22]
48.376[20, 23, 21, 22, 50, 19, 20, 20]
48.407[22, 24, 22, 21, 50, 22, 18, 19]
48.413[21, 21, 20, 21, 51, 21, 17, 19]
48.436[21, 21, 20, 21, 61, 22, 18, 18]
48.458[21, 21, 23, 21, 61, 24, 18, 18]
48.473[19, 20, 25, 22, 63, 24, 19, 19]
48.496[18, 19, 24, 24, 63, 22, 18, 18]
48.519[20, 20, 26, 24, 63, 23, 20, 19]
48.533[21, 21, 26, 21, 35, 22, 18, 20]
48.556[21, 21, 23, 19, 33, 18, 17, 18]
48.579[20, 21, 22, 21, 45, 21, 16, 18]
48.592[21, 24, 22, 24, 45, 20, 19, 18]
48.616[19, 24, 21, 25, 47, 21, 18, 18]
48.639[19, 24, 20, 26, 46, 21, 18, 18]
48.653[22, 25, 20, 29, 45, 22, 23, 20]
48.676[23, 24, 19, 29, 44, 20, 23, 20]
48.698[22, 21, 19, 26, 46, 23, 22, 19]
48.722[24, 19, 21, 25, 46, 23, 22, 18]
48.736[23, 20, 22, 25, 46, 22, 22, 18]
48.766[22, 19, 22, 24, 46, 23, 17, 18]
48.781[21, 19, 22, 21, 32, 23, 16, 19]
48.796[22, 20, 20, 23, 47, 20, 18, 19]
48.819[22, 21, 19, 23, 48, 19, 19, 17]
48.848[22, 19, 21, 22, 49, 18, 19, 18]
48.856[20, 18, 21, 23, 49, 19, 20, 16]
48.878[20, 18, 20, 21, 49, 18, 20, 15]
48.901[21, 18, 21, 20, 31, 20, 18, 16]
48.916[19, 16, 21, 21, 27, 19, 19, 18]
48.938[22, 18, 20, 20, 29, 20, 19, 18]
48.961[21, 21, 21, 21, 43, 19, 16, 20]
48.976[21, 23, 20, 23, 44, 20, 16, 20]
48.998[20, 21, 19, 24, 45, 19, 19, 21]
49.021[21, 22, 20, 22, 46, 21, 18, 20]
49.036[20, 21, 18, 23, 59, 21, 20, 19]
49.066[21, 21, 19, 21, 53, 24, 21, 20]
49.081[20, 19, 19, 24, 55, 25, 24, 21]
49.096[20, 19, 19, 21, 55, 27, 22, 21]
49.118[18, 21, 20, 24, 54, 26, 21, 23]
49.141[17, 20, 20, 25, 38, 26, 21, 26]
49.156[15, 20, 20, 25, 46, 22, 21, 27]
49.178[16, 20, 19, 21, 45, 22, 20, 27]
49.201[19, 21, 20, 22, 45, 19, 21, 26]
49.215[20, 18, 20, 22, 45, 19, 22, 25]
49.238[22, 21, 23, 21, 45, 19, 21, 23]
49.261[22, 20, 22, 23, 35, 20, 20, 20]
49.275[21, 21, 22, 24, 44, 19, 19, 21]
49.299[20, 20, 20, 25, 47, 21, 19, 21]
49.321[21, 21, 20, 24, 47, 20, 19, 21]
49.335[17, 21, 19, 25, 47, 22, 18, 20]
49.358[19, 20, 19, 22, 45, 23, 19, 22]
49.381[18, 21, 20, 24, 51, 23, 20, 21]
49.396[20, 23, 20, 26, 50, 22, 18, 19]
49.419[21, 22, 21, 24, 50, 22, 18, 20]
49.441[21, 20, 19, 21, 48, 21, 20, 22]
49.456[22, 20, 20, 24, 48, 21, 19, 20]
49.479[22, 20, 22, 22, 48, 23, 21, 21]
49.501[22, 20, 22, 21, 48, 23, 22, 21]
49.515[19, 20, 22, 24, 48, 22, 23, 19]
49.538[20, 20, 24, 24, 50, 24, 21, 16]
49.561[19, 19, 23, 22, 54, 23, 19, 15]
49.575[19, 21, 20, 23, 50, 22, 18, 13]
49.598[17, 21, 20, 22, 50, 23, 17, 17]
49.621[18, 21, 21, 20, 51, 24, 17, 17]
49.644[17, 23, 19, 21, 48, 22, 18, 18]
49.658[19, 22, 20, 22, 44, 22, 19, 19]
49.681[20, 20, 23, 23, 44, 22, 20, 21]
49.703[24, 20, 21, 23, 45, 20, 20, 20]
49.719[23, 20, 21, 24, 45, 17, 20, 20]
49.748[24, 22, 21, 23, 46, 18, 21, 21]
49.764[25, 23, 21, 22, 46, 17, 21, 19]
49.779[25, 24, 19, 23, 55, 18, 22, 20]
49.801[22, 21, 20, 22, 56, 18, 22, 19]
49.823[23, 22, 21, 21, 57, 20, 22, 19]
49.846[22, 21, 22, 20, 57, 19, 24, 19]
49.861[19, 19, 20, 20, 57, 22, 23, 21]
49.883[18, 18, 21, 19, 53, 24, 23, 19]
49.9[19, 19, 22, 19, 53, 26, 23, 21]
49.928[19, 19, 21, 17, 51, 26, 22, 19]
49.943[20, 21, 21, 22, 51, 26, 20, 20]
49.959[20, 22, 21, 23, 51, 24, 19, 19]
49.98[21, 23, 21, 21, 32, 21, 19, 19]
50.01[20, 23, 20, 23, 44, 18, 20, 18]
50.019[19, 24, 20, 24, 46, 20, 19, 18]
50.04[19, 22, 20, 21, 47, 19, 18, 17]
50.063[21, 21, 21, 21, 46, 21, 20, 17]
50.079[19, 20, 20, 21, 48, 21, 19, 16]
50.1[19, 22, 22, 20, 46, 22, 17, 17]
50.123[18, 21, 24, 21, 44, 21, 20, 17]
50.139[19, 20, 22, 21, 47, 21, 20, 17]
50.16[17, 21, 23, 20, 48, 19, 20, 19]
50.183[18, 21, 24, 20, 46, 20, 19, 19]
50.207[18, 19, 22, 20, 33, 19, 22, 16]
50.22[18, 21, 21, 20, 48, 19, 19, 17]
50.243[16, 20, 20, 21, 48, 19, 19, 18]
50.259[15, 20, 21, 20, 50, 21, 19, 19]
50.28[15, 21, 21, 21, 50, 20, 22, 20]
50.303[16, 20, 20, 20, 51, 22, 20, 22]
50.319[18, 20, 20, 19, 52, 19, 21, 23]
50.34[22, 20, 20, 19, 50, 18, 21, 22]
50.363[22, 21, 18, 19, 49, 19, 20, 20]
50.379[22, 20, 18, 19, 53, 22, 18, 22]
50.4[22, 22, 19, 20, 54, 22, 17, 24]
50.423[21, 19, 19, 20, 46, 24, 16, 22]
50.439[21, 20, 19, 21, 53, 25, 18, 21]
50.46[21, 20, 20, 21, 52, 24, 20, 23]
50.484[21, 19, 20, 21, 48, 22, 20, 21]
50.499[21, 21, 21, 20, 46, 21, 19, 19]
50.52[21, 20, 21, 19, 38, 20, 20, 18]
50.543[18, 22, 21, 18, 34, 20, 20, 21]
50.559[18, 21, 20, 18, 35, 21, 20, 20]
50.58