[21, 20, 20, 17, 21, 21, 20, 19]
1.98[22, 21, 21, 17, 23, 19, 19, 18]
2.005[21, 22, 22, 19, 22, 20, 19, 18]
2.025[20, 22, 21, 18, 22, 18, 20, 20]
2.04[18, 21, 20, 20, 21, 17, 19, 19]
2.063[17, 20, 19, 20, 18, 15, 18, 19]
2.085[15, 19, 17, 21, 17, 16, 19, 18]
2.108[16, 18, 18, 19, 17, 18, 21, 18]
2.123[16, 17, 18, 20, 18, 20, 22, 20]
2.145[15, 17, 17, 20, 18, 20, 21, 20]
2.16[17, 16, 18, 20, 17, 20, 23, 22]
2.183[17, 15, 18, 20, 18, 20, 23, 23]
2.205[17, 15, 18, 21, 19, 17, 23, 24]
2.22[19, 17, 19, 22, 18, 18, 21, 21]
2.243[19, 17, 18, 21, 20, 20, 20, 22]
2.265[18, 17, 17, 21, 20, 19, 19, 21]
2.28[18, 18, 17, 20, 21, 20, 20, 22]
2.303[18, 19, 17, 20, 20, 22, 18, 22]
2.325[17, 18, 18, 17, 20, 19, 21, 22]
2.34[19, 18, 18, 16, 18, 19, 22, 21]
2.363[19, 19, 18, 16, 20, 19, 20, 22]
2.386[19, 20, 19, 17, 18, 19, 20, 20]
2.4[19, 18, 19, 17, 18, 20, 23, 21]
2.423[20, 20, 18, 19, 17, 20, 21, 21]
2.445[19, 19, 21, 19, 18, 20, 22, 22]
2.46[19, 20, 21, 19, 17, 19, 23, 21]
2.483[18, 18, 22, 18, 17, 19, 22, 20]
2.507[20, 18, 21, 22, 19, 19, 20, 20]
2.52[18, 18, 22, 22, 19, 20, 19, 21]
2.543[18, 18, 22, 21, 20, 19, 20, 20]
2.565[19, 18, 22, 21, 19, 19, 20, 20]
2.58[19, 19, 21, 22, 21, 19, 20, 23]
2.603[18, 19, 21, 20, 20, 21, 21, 19]
2.625[19, 17, 21, 18, 20, 19, 22, 21]
2.64[19, 18, 18, 19, 19, 20, 20, 21]
2.663[20, 18, 18, 19, 21, 20, 21, 21]
2.685[18, 18, 19, 19, 23, 20, 22, 20]
2.7[19, 19, 19, 19, 23, 17, 21, 21]
2.723[17, 18, 17, 18, 23, 17, 20, 20]
2.745[18, 19, 19, 19, 23, 17, 20, 21]
2.76[17, 19, 19, 20, 22, 17, 20, 20]
2.783[19, 18, 18, 19, 19, 19, 18, 21]
2.805[18, 18, 20, 19, 18, 19, 18, 22]
2.828[18, 19, 20, 20, 18, 20, 18, 21]
2.843[19, 18, 19, 20, 18, 20, 19, 20]
2.865[20, 18, 19, 19, 18, 20, 17, 22]
2.888[20, 20, 19, 19, 17, 20, 17, 22]
2.911[20, 21, 18, 20, 23, 22, 19, 22]
2.925[20, 20, 18, 21, 23, 21, 19, 21]
2.948[18, 21, 21, 20, 22, 22, 19, 21]
2.971[17, 20, 23, 20, 24, 21, 20, 20]
2.985[16, 20, 24, 20, 24, 20, 20, 19]
3.008[20, 21, 24, 18, 19, 18, 19, 17]
3.032[20, 21, 24, 21, 21, 20, 18, 18]
3.045[21, 20, 23, 21, 22, 17, 17, 18]
3.068[23, 22, 22, 20, 20, 17, 17, 18]
3.091[23, 20, 20, 20, 19, 19, 17, 18]
3.105[20, 19, 20, 21, 19, 19, 17, 21]
3.128[19, 19, 20, 18, 18, 18, 18, 20]
3.151[19, 18, 19, 17, 20, 19, 18, 20]
3.165[17, 17, 19, 19, 21, 19, 19, 19]
3.188[19, 20, 20, 19, 21, 19, 19, 18]
3.211[20, 21, 21, 18, 22, 19, 19, 18]
3.234[21, 22, 22, 19, 23, 19, 18, 19]
3.249[21, 22, 24, 19, 22, 21, 18, 20]
3.271[21, 22, 22, 18, 23, 21, 18, 20]
3.285[20, 21, 22, 21, 23, 20, 19, 18]
3.308[18, 21, 22, 21, 23, 19, 19, 17]
3.331[19, 20, 22, 22, 22, 21, 22, 19]
3.354[17, 21, 21, 21, 23, 19, 23, 19]
3.368[18, 20, 23, 21, 21, 20, 22, 19]
3.391[19, 19, 23, 19, 21, 20, 21, 22]
3.413[18, 21, 22, 19, 21, 20, 21, 22]
3.428[18, 20, 20, 21, 21, 19, 20, 22]
3.451[20, 20, 20, 23, 20, 19, 16, 21]
3.473[21, 22, 20, 24, 20, 16, 17, 24]
3.488[20, 24, 19, 22, 22, 18, 17, 22]
3.512[21, 22, 19, 21, 21, 18, 18, 22]
3.534[21, 24, 23, 19, 20, 18, 17, 22]
3.549[22, 24, 22, 17, 19, 20, 18, 22]
3.571[20, 23, 22, 16, 19, 21, 17, 18]
3.594[21, 20, 23, 18, 18, 21, 19, 20]
3.608[20, 21, 23, 20, 18, 21, 18, 20]
3.631[21, 19, 21, 21, 19, 20, 22, 20]
3.653[17, 19, 21, 22, 20, 19, 22, 21]
3.669[17, 18, 20, 23, 21, 20, 23, 21]
3.691[15, 18, 18, 22, 22, 20, 22, 21]
3.714[17, 17, 19, 21, 23, 19, 22, 20]
3.729[16, 17, 17, 21, 22, 18, 16, 19]
3.751[18, 16, 19, 19, 21, 18, 17, 18]
3.774[17, 16, 19, 19, 19, 16, 18, 19]
3.789[19, 18, 18, 21, 18, 20, 17, 18]
3.811[18, 17, 19, 21, 15, 19, 19, 21]
3.834[18, 17, 19, 22, 17, 22, 21, 22]
3.857[18, 17, 19, 25, 16, 22, 20, 23]
3.871[19, 19, 18, 24, 17, 22, 19, 22]
3.893[20, 18, 18, 23, 17, 19, 21, 23]
3.908[19, 19, 18, 24, 18, 20, 20, 22]
3.931[20, 18, 18, 22, 18, 18, 18, 21]
3.954[22, 20, 19, 20, 20, 21, 19, 18]
3.968[22, 19, 20, 21, 19, 21, 19, 20]
3.991[22, 19, 19, 21, 19, 22, 18, 19]
4.013[22, 20, 19, 21, 19, 22, 17, 18]
4.028[22, 20, 19, 19, 18, 23, 18, 17]
4.052[20, 20, 19, 19, 17, 21, 21, 19]
4.074[20, 20, 20, 18, 18, 21, 20, 19]
4.088[19, 20, 23, 18, 17, 23, 22, 21]
4.111[18, 22, 23, 18, 19, 27, 22, 20]
4.133[18, 23, 25, 20, 20, 26, 23, 22]
4.156[18, 21, 24, 20, 20, 27, 20, 22]
4.171[18, 22, 24, 22, 19, 27, 20, 21]
4.194[19, 22, 23, 21, 22, 26, 19, 20]
4.208[20, 18, 23, 21, 22, 21, 19, 19]
4.231[21, 19, 22, 20, 23, 20, 18, 19]
4.253[20, 20, 23, 23, 21, 20, 19, 17]
4.276[19, 20, 21, 20, 22, 20, 18, 16]
4.291[20, 19, 21, 21, 20, 18, 18, 17]
4.313[19, 21, 21, 20, 18, 18, 18, 18]
4.336[18, 21, 19, 19, 17, 17, 19, 16]
4.351[17, 21, 19, 17, 17, 18, 19, 18]
4.374[20, 20, 19, 18, 17, 18, 20, 18]
4.396[19, 20, 18, 19, 17, 19, 19, 17]
4.411[19, 19, 18, 19, 18, 18, 18, 17]
4.434[18, 19, 19, 19, 18, 19, 16, 17]
4.457[19, 20, 18, 19, 19, 21, 16, 15]
4.472[18, 20, 17, 19, 18, 22, 16, 16]
4.501[18, 20, 17, 19, 20, 20, 16, 18]
4.516[19, 20, 17, 19, 19, 21, 17, 20]
4.532[20, 20, 16, 23, 18, 21, 19, 21]
4.553[21, 18, 17, 22, 19, 17, 19, 22]
4.576[19, 18, 16, 22, 20, 16, 19, 22]
4.591[19, 18, 19, 22, 19, 17, 18, 21]
4.614[21, 18, 20, 24, 20, 16, 19, 20]
4.636[19, 17, 21, 21, 21, 16, 18, 19]
4.651[21, 18, 24, 21, 20, 17, 18, 19]
4.674[21, 17, 25, 21, 19, 17, 19, 19]
4.696[22, 20, 24, 21, 18, 20, 18, 18]
4.712[21, 18, 24, 18, 18, 20, 21, 17]
4.733[21, 18, 24, 20, 20, 20, 21, 19]
4.755[20, 19, 21, 19, 21, 19, 23, 20]
4.779[21, 20, 20, 19, 22, 20, 22, 21]
4.794[21, 20, 20, 19, 23, 19, 23, 21]
4.815[20, 22, 20, 18, 24, 18, 19, 23]
4.832[21, 21, 20, 18, 20, 19, 22, 23]
4.854[21, 22, 19, 18, 20, 20, 21, 21]
4.883[20, 21, 20, 19, 18, 19, 21, 20]
4.9[19, 19, 20, 18, 16, 18, 22, 20]
4.914[19, 18, 21, 20, 17, 19, 24, 20]
4.935[19, 18, 21, 19, 21, 20, 20, 19]
4.952[17, 17, 22, 20, 20, 19, 24, 19]
4.974[19, 19, 22, 21, 22, 20, 24, 18]
4.995[20, 18, 22, 23, 24, 20, 25, 19]
5.012[20, 18, 22, 22, 23, 20, 24, 17]
5.034[19, 18, 23, 22, 21, 21, 24, 18]
5.055[19, 18, 21, 21, 21, 20, 21, 19]
5.08[18, 16, 21, 21, 21, 20, 20, 21]
5.093[17, 17, 21, 20, 20, 20, 19, 20]
5.123[16, 18, 20, 21, 20, 21, 17, 21]
5.132[16, 19, 19, 22, 19, 19, 16, 21]
5.153[16, 20, 22, 21, 19, 19, 17, 20]
5.176[19, 20, 21, 20, 16, 18, 18, 19]
5.192[20, 21, 22, 18, 18, 19, 18, 19]
5.213[21, 20, 21, 16, 17, 18, 19, 18]
5.235[20, 20, 21, 15, 18, 18, 21, 18]
5.258[20, 20, 19, 16, 20, 18, 20, 18]
5.273[19, 21, 20, 17, 20, 18, 19, 19]
5.295[19, 20, 21, 18, 18, 17, 18, 19]
5.318[20, 21, 22, 19, 21, 18, 18, 19]
5.333[20, 22, 21, 19, 20, 17, 15, 19]
5.356[21, 20, 20, 19, 19, 19, 15, 19]
5.378[21, 20, 20, 21, 21, 19, 18, 18]
5.393[20, 20, 20, 21, 20, 20, 18, 18]
5.416[18, 18, 20, 20, 20, 20, 17, 19]
5.438[20, 18, 21, 21, 21, 20, 19, 19]
5.453[20, 19, 21, 21, 22, 18, 19, 18]
5.475[20, 18, 20, 19, 21, 19, 19, 19]
5.498[21, 18, 20, 19, 24, 18, 18, 19]
5.513[20, 20, 18, 19, 22, 19, 20, 19]
5.535[21, 20, 18, 20, 21, 19, 18, 20]
5.558[20, 21, 21, 21, 20, 20, 18, 21]
5.573[20, 21, 21, 22, 20, 19, 17, 19]
5.595[21, 22, 21, 22, 17, 19, 18, 21]
5.619[22, 20, 21, 22, 20, 19, 16, 20]
5.633[21, 20, 24, 21, 22, 19, 18, 20]
5.655[21, 20, 22, 18, 20, 18, 17, 20]
5.678[19, 21, 22, 19, 21, 19, 17, 21]
5.693[18, 20, 21, 18, 20, 19, 16, 22]
5.715[19, 21, 23, 19, 18, 18, 18, 22]
5.738[18, 23, 21, 21, 18, 19, 16, 22]
5.753[18, 23, 21, 23, 18, 19, 19, 20]
5.775[19, 24, 22, 22, 17, 18, 18, 19]
5.799[19, 25, 23, 22, 20, 18, 17, 16]
5.821[18, 24, 21, 22, 20, 19, 17, 17]
5.835[17, 23, 20, 19, 20, 19, 20, 16]
5.859[17, 23, 21, 19, 25, 19, 18, 15]
5.873[16, 22, 21, 19, 25, 19, 20, 17]
5.895[16, 21, 21, 19, 23, 19, 22, 18]
5.918[17, 21, 22, 19, 22, 18, 21, 19]
5.94[18, 20, 22, 20, 22, 17, 21, 21]
5.955[19, 18, 23, 18, 18, 21, 21, 21]
5.978[18, 20, 22, 18, 20, 20, 19, 20]
5.993[18, 19, 21, 19, 20, 21, 20, 21]
6.017[19, 19, 22, 17, 21, 23, 21, 20]
6.038[18, 19, 21, 19, 21, 22, 21, 17]
6.053[16, 21, 19, 19, 20, 18, 21, 20]
6.075[17, 20, 20, 18, 18, 19, 22, 20]
6.098[19, 22, 22, 19, 21, 20, 20, 21]
6.113[19, 23, 19, 19, 21, 20, 20, 22]
6.143[21, 24, 21, 18, 20, 21, 18, 22]
6.158[23, 23, 21, 19, 21, 21, 19, 23]
6.18[22, 23, 22, 20, 21, 22, 20, 24]
6.195[22, 21, 21, 22, 20, 20, 21, 22]
6.218[21, 22, 23, 21, 20, 20, 20, 22]
6.24[21, 22, 24, 20, 20, 19, 21, 23]
6.255[18, 21, 25, 20, 22, 18, 21, 20]
6.278[19, 22, 23, 19, 23, 18, 19, 18]
6.3[18, 21, 23, 16, 22, 18, 18, 19]
6.316[18, 20, 23, 18, 22, 17, 18, 17]
6.338[16, 20, 21, 18, 23, 19, 18, 16]
6.36[17, 19, 20, 17, 20, 18, 17, 18]
6.376[18, 22, 19, 17, 19, 17, 16, 18]
6.398[17, 22, 19, 19, 19, 18, 18, 17]
6.42[16, 21, 17, 17, 18, 20, 18, 21]
6.435[16, 20, 18, 18, 18, 18, 18, 21]
6.459[17, 22, 18, 18, 18, 19, 17, 21]
6.48[17, 22, 19, 20, 20, 21, 19, 21]
6.503[18, 22, 21, 19, 21, 21, 19, 21]
6.518[20, 22, 21, 18, 22, 20, 18, 19]
6.548[20, 21, 21, 18, 24, 19, 20, 19]
6.555[19, 21, 22, 20, 24, 22, 20, 20]
6.578[18, 21, 22, 19, 22, 20, 18, 20]
6.6[20, 20, 20, 18, 20, 19, 17, 21]
6.615[19, 20, 20, 18, 20, 20, 17, 21]
6.64[19, 21, 20, 20, 18, 20, 17, 20]
6.66[21, 22, 21, 18, 18, 17, 17, 20]
6.677[22, 21, 22, 17, 19, 17, 17, 21]
6.698[20, 21, 21, 20, 19, 18, 18, 21]
6.72[21, 24, 23, 20, 18, 17, 20, 19]
6.735[22, 24, 22, 19, 18, 18, 20, 19]
6.758[21, 22, 22, 20, 19, 18, 20, 19]
6.781[20, 23, 21, 21, 16, 19, 21, 18]
6.795[20, 22, 22, 21, 20, 20, 21, 19]
6.818[19, 21, 22, 21, 19, 20, 21, 19]
6.84[19, 22, 21, 20, 20, 20, 21, 19]
6.855[17, 22, 19, 20, 19, 20, 23, 20]
6.878[19, 21, 19, 23, 19, 19, 22, 20]
6.9[17, 22, 20, 21, 15, 19, 21, 18]
6.915[17, 21, 19, 22, 16, 20, 22, 20]
6.938[16, 20, 19, 22, 16, 18, 21, 20]
6.961[19, 20, 20, 20, 18, 19, 19, 18]
6.975[18, 20, 20, 20, 19, 19, 20, 19]
6.998[18, 21, 20, 22, 19, 19, 20, 19]
7.028[18, 20, 19, 21, 19, 18, 18, 19]
7.035[21, 21, 20, 20, 18, 19, 19, 19]
7.066[19, 21, 20, 21, 17, 21, 17, 21]
7.081[20, 22, 19, 17, 19, 20, 19, 20]
7.095[21, 21, 20, 15, 20, 20, 19, 21]
7.118[21, 21, 21, 20, 20, 18, 20, 19]
7.141[19, 20, 22, 19, 23, 18, 21, 18]
7.164[19, 20, 22, 20, 23, 18, 23, 17]
7.178[17, 19, 20, 21, 21, 19, 22, 15]
7.2[15, 22, 20, 22, 20, 20, 22, 13]
7.224[16, 22, 20, 18, 19, 21, 22, 14]
7.238[20, 22, 19, 21, 20, 21, 20, 16]
7.26[22, 21, 19, 21, 20, 20, 17, 16]
7.283[23, 21, 21, 21, 20, 19, 17, 16]
7.298[24, 18, 20, 23, 20, 20, 18, 16]
7.328[25, 19, 21, 22, 23, 19, 17, 17]
7.344[23, 20, 21, 20, 20, 18, 17, 18]
7.358[23, 20, 21, 19, 20, 19, 19, 18]
7.38[22, 20, 19, 20, 21, 18, 19, 18]
7.404[22, 20, 21, 19, 21, 18, 19, 18]
7.418[20, 18, 20, 20, 20, 17, 20, 18]
7.44[19, 20, 20, 20, 20, 17, 20, 17]
7.464[17, 21, 18, 21, 21, 17, 19, 19]
7.478[16, 20, 19, 19, 19, 17, 18, 20]
7.5[17, 21, 18, 18, 19, 17, 19, 20]
7.523[17, 21, 19, 21, 19, 19, 18, 19]
7.538[18, 19, 19, 21, 20, 20, 18, 20]
7.569[18, 19, 21, 21, 21, 19, 17, 19]
7.584[19, 20, 20, 19, 21, 19, 17, 18]
7.606[18, 20, 20, 20, 22, 19, 14, 19]
7.62[18, 20, 19, 16, 21, 18, 15, 19]
7.644[18, 20, 20, 13, 21, 18, 19, 18]
7.658[18, 20, 19, 13, 19, 19, 21, 18]
7.68[19, 22, 18, 16, 20, 20, 21, 19]
7.703[19, 22, 18, 17, 19, 19, 23, 19]
7.718[19, 21, 19, 18, 21, 18, 22, 18]
7.741[20, 21, 21, 18, 20, 16, 20, 18]
7.764[20, 21, 21, 20, 21, 16, 19, 18]
7.778[20, 21, 21, 19, 20, 16, 19, 18]
7.8[20, 20, 22, 19, 20, 17, 18, 17]
7.823[22, 21, 21, 19, 19, 18, 17, 18]
7.838[21, 22, 17, 20, 19, 20, 18, 18]
7.86[21, 22, 16, 20, 18, 19, 18, 18]
7.884[19, 20, 18, 21, 19, 18, 16, 17]
7.897[20, 22, 18, 20, 19, 17, 16, 16]
7.92[20, 20, 20, 20, 19, 16, 17, 17]
7.951[19, 20, 21, 21, 20, 16, 16, 17]
7.957[19, 20, 21, 19, 19, 16, 17, 19]
7.98[20, 20, 20, 18, 19, 16, 17, 21]
8.004[21, 20, 21, 18, 20, 17, 18, 22]
8.019[19, 21, 19, 19, 21, 18, 18, 22]
8.04[20, 21, 18, 18, 18, 19, 18, 22]
8.064[20, 21, 19, 17, 19, 20, 18, 21]
8.093[20, 20, 20, 18, 20, 20, 19, 20]
8.1[19, 20, 20, 17, 18, 20, 19, 19]
8.124[20, 21, 20, 17, 18, 20, 20, 20]
8.146[20, 21, 20, 20, 20, 18, 20, 19]
8.161[20, 21, 21, 23, 19, 17, 20, 19]
8.183[20, 21, 19, 23, 19, 18, 19, 22]
8.206[19, 20, 18, 24, 21, 21, 19, 22]
8.22[18, 19, 19, 24, 20, 21, 18, 21]
8.251[18, 18, 20, 23, 20, 22, 17, 20]
8.266[17, 18, 19, 21, 21, 23, 17, 19]
8.28[18, 18, 20, 21, 20, 22, 16, 16]
8.304[19, 18, 20, 20, 23, 20, 17, 17]
8.326[20, 19, 20, 19, 23, 22, 18, 18]
8.34[26, 22, 20, 17, 22, 22, 18, 20]
8.364[30, 21, 20, 17, 23, 20, 17, 19]
8.386[34, 21, 20, 17, 23, 20, 20, 18]
8.4[33, 22, 19, 17, 20, 20, 19, 18]
8.423[33, 20, 21, 21, 20, 19, 17, 19]
8.454[29, 17, 22, 23, 20, 19, 17, 18]
8.46[25, 20, 21, 23, 20, 20, 18, 19]
8.484[19, 23, 22, 22, 20, 20, 17, 19]
8.506[22, 24, 22, 22, 19, 20, 18, 19]
8.52[21, 24, 22, 19, 18, 20, 19, 18]
8.544[23, 24, 22, 20, 19, 19, 19, 18]
8.566[23, 22, 22, 18, 18, 20, 21, 18]
8.58[24, 20, 25, 17, 17, 20, 22, 18]
8.604[21, 18, 25, 18, 18, 20, 21, 19]
8.626[23, 17, 23, 21, 19, 18, 20, 18]
8.64[21, 18, 22, 20, 19, 18, 22, 19]
8.663[20, 18, 23, 21, 18, 16, 20, 20]
8.686[19, 20, 20, 22, 17, 18, 19, 19]
8.7[23, 20, 21, 23, 21, 19, 20, 19]
8.724[21, 20, 24, 22, 20, 19, 21, 18]
8.746[23, 21, 23, 21, 19, 19, 21, 19]
8.761[23, 21, 22, 21, 21, 19, 21, 17]
8.783[23, 19, 21, 20, 23, 18, 20, 18]
8.806[21, 20, 22, 21, 20, 18, 20, 16]
8.821[23, 22, 21, 20, 20, 17, 19, 16]
8.844[21, 22, 21, 19, 19, 17, 19, 14]
8.866[22, 21, 20, 20, 17, 17, 19, 16]
8.88[21, 23, 20, 19, 17, 18, 19, 20]
8.904[22, 23, 19, 18, 18, 17, 18, 20]
8.926[20, 21, 19, 18, 18, 18, 18, 21]
8.94[20, 21, 18, 20, 20, 18, 19, 22]
8.964[20, 22, 18, 19, 21, 20, 21, 23]
8.986[20, 21, 18, 19, 20, 19, 21, 20]
9.009[20, 20, 18, 17, 21, 19, 21, 21]
9.024[22, 22, 18, 18, 21, 20, 22, 20]
9.046[20, 20, 19, 15, 22, 20, 23, 22]
9.069[19, 19, 20, 16, 20, 18, 20, 21]
9.084[17, 19, 21, 17, 19, 19, 22, 21]
9.106[16, 20, 20, 19, 20, 20, 22, 22]
9.137[14, 18, 20, 20, 20, 20, 21, 22]
9.144[16, 18, 20, 22, 18, 20, 18, 22]
9.166[17, 19, 21, 23, 19, 21, 18, 21]
9.188[21, 19, 19, 22, 20, 21, 16, 22]
9.204[21, 19, 21, 22, 17, 20, 17, 20]
9.226[20, 19, 21, 21, 18, 21, 17, 20]
9.248[20, 21, 19, 22, 19, 21, 18, 17]
9.264[20, 22, 18, 22, 20, 19, 18, 19]
9.286[17, 20, 19, 23, 21, 20, 20, 19]
9.308[19, 20, 19, 21, 21, 20, 19, 19]
9.324[20, 22, 17, 24, 22, 20, 20, 19]
9.346[19, 20, 20, 22, 23, 22, 19, 18]
9.376[20, 19, 20, 25, 45, 26, 21, 17]
9.383[23, 23, 24, 41, 73, 31, 24, 18]
9.406[22, 28, 38, 78, 133, 60, 34, 19]
9.428[29, 44, 46, 89, 199, 114, 57, 31]
9.443[32, 51, 58, 109, 206, 138, 63, 36]
9.466[42, 52, 60, 136, 227, 178, 93, 114]
9.488[77, 62, 70, 231, 255, 268, 182, 177]
9.503[117, 89, 99, 275, 294, 487, 301, 222]
9.526[159, 114, 148, 330, 381, 750, 387, 310]
9.548[184, 122, 158, 365, 420, 793, 410, 360]
9.563[196, 129, 160, 376, 447, 882, 440, 394]
9.586[187, 126, 161, 333, 448, 904, 439, 407]
9.608[176, 114, 176, 326, 442, 842, 445, 419]
9.623[152, 89, 141, 282, 392, 623, 381, 371]
9.653[133, 104, 168, 264, 353, 568, 375, 331]
9.668[133, 100, 169, 263, 317, 462, 374, 309]
9.691[148, 101, 167, 262, 300, 418, 375, 287]
9.706[145, 101, 140, 240, 256, 347, 319, 274]
9.728[141, 95, 140, 241, 168, 339, 309, 267]
9.743[132, 63, 90, 207, 161, 338, 294, 274]
9.766[117, 58, 92, 181, 137, 284, 269, 248]
9.788[97, 66, 115, 200, 148, 232, 231, 221]
9.81[84, 56, 112, 189, 159, 234, 192, 179]
9.827[72, 57, 120, 202, 186, 230, 192, 180]
9.848[75, 62, 126, 217, 184, 230, 183, 161]
9.87[76, 75, 133, 242, 191, 201, 154, 169]
9.886[89, 80, 141, 278, 196, 245, 220, 247]
9.908[94, 86, 138, 274, 191, 243, 227, 255]
9.932[104, 101, 152, 273, 176, 256, 260, 261]
9.947[105, 101, 154, 287, 183, 270, 261, 262]
9.969[100, 93, 157, 278, 194, 308, 260, 242]
9.99[91, 83, 143, 229, 173, 265, 199, 167]
10.007[89, 77, 140, 222, 177, 266, 204, 161]
10.028[80, 65, 120, 204, 187, 264, 205, 143]
10.05[78, 59, 108, 161, 195, 259, 221, 146]
10.067[83, 74, 135, 168, 185, 212, 223, 138]
10.088[78, 77, 130, 167, 192, 230, 224, 128]
10.11[76, 92, 156, 202, 207, 248, 199, 103]
10.142[71, 90, 156, 210, 210, 233, 149, 94]
10.148[64, 95, 164, 235, 225, 221, 122, 76]
10.17[58, 91, 158, 227, 248, 220, 138, 108]
10.187[56, 96, 161, 252, 245, 189, 137, 106]
10.209[50, 82, 143, 225, 223, 175, 130, 105]
10.23[50, 92, 163, 223, 208, 209, 155, 133]
10.247[50, 89, 159, 196, 188, 213, 157, 138]
10.268[52, 90, 141, 177, 157, 212, 151, 130]
10.29[58, 83, 140, 132, 156, 212, 156, 152]
10.313[61, 83, 146, 192, 175, 207, 163, 167]
10.328[58, 67, 123, 185, 167, 181, 151, 144]
10.35[58, 63, 119, 201, 170, 186, 148, 138]
10.366[55, 51, 120, 210, 173, 174, 128, 127]
10.388[48, 52, 115, 220, 177, 211, 124, 103]
10.41[46, 49, 102, 169, 167, 197, 114, 84]
10.434[47, 54, 111, 169, 174, 211, 118, 90]
10.448[48, 58, 117, 150, 162, 196, 113, 93]
10.47[50, 63, 114, 155, 153, 222, 103, 89]
10.487[53, 56, 109, 136, 141, 196, 117, 95]
10.508[51, 59, 117, 140, 130, 194, 127, 93]
10.53[49, 56, 103, 141, 127, 177, 115, 99]
10.554[48, 59, 106, 145, 126, 181, 115, 98]
10.568[44, 53, 97, 128, 125, 144, 122, 113]
10.59[40, 58, 112, 120, 132, 135, 110, 107]
10.607[47, 56, 105, 116, 137, 130, 105, 117]
10.628[48, 55, 120, 102, 131, 121, 106, 110]
10.651[49, 52, 109, 105, 129, 116, 109, 113]
10.665[53, 53, 113, 96, 136, 140, 102, 102]
10.688[50, 55, 112, 98, 116, 152, 91, 99]
10.71[46, 59, 122, 106, 121, 168, 96, 96]
10.726[49, 61, 114, 101, 123, 171, 99, 100]
10.748[47, 59, 115, 90, 119, 166, 98, 100]
10.77[47, 60, 116, 103, 112, 154, 99, 102]
10.785[51, 60, 106, 132, 154, 151, 106, 101]
10.808[48, 56, 94, 126, 147, 137, 93, 86]
10.83[46, 53, 83, 129, 160, 133, 79, 80]
10.845[48, 52, 87, 132, 158, 137, 92, 80]
10.868[49, 50, 87, 136, 154, 148, 93, 83]
10.898[49, 41, 82, 111, 128, 131, 84, 86]
10.913[49, 46, 82, 111, 132, 123, 87, 87]
10.929[45, 45, 88, 107, 108, 145, 94, 84]
10.95[45, 43, 86, 101, 125, 142, 83, 74]
10.972[36, 42, 80, 88, 148, 164, 78, 65]
10.988[29, 43, 78, 84, 147, 171, 85, 58]
11.011[30, 33, 81, 74, 148, 186, 86, 56]
11.033[35, 38, 80, 91, 153, 175, 81, 58]
11.047[37, 39, 77, 90, 141, 171, 87, 69]
11.07[40, 40, 80, 88, 111, 131, 96, 66]
11.092[42, 49, 89, 119, 97, 130, 95, 66]
11.108[42, 57, 106, 121, 99, 121, 91, 69]
11.13[39, 55, 111, 109, 97, 116, 93, 71]
11.152[37, 65, 128, 127, 117, 174, 96, 63]
11.168[38, 64, 127, 132, 134, 180, 86, 62]
11.19[38, 62, 139, 106, 164, 183, 103, 63]
11.213[37, 54, 120, 100, 163, 174, 107, 65]
11.228[36, 55, 122, 106, 161, 168, 104, 66]
11.25[33, 44, 102, 91, 146, 112, 91, 62]
11.272[30, 52, 110, 84, 132, 109, 94, 64]
11.287[31, 47, 89, 80, 88, 96, 74, 60]
11.31[38, 51, 100, 106, 101, 98, 65, 61]
11.332[38, 53, 98, 95, 122, 88, 62, 56]
11.347[38, 51, 98, 88, 126, 82, 80, 68]
11.37[42, 44, 87, 99, 138, 116, 88, 70]
11.392[41, 46, 87, 105, 137, 115, 91, 75]
11.408[37, 43, 70, 86, 116, 131, 94, 74]
11.43[39, 48, 91, 120, 121, 174, 103, 75]
11.452[45, 53, 104, 139, 126, 193, 90, 85]
11.468[42, 54, 102, 136, 112, 177, 83, 93]
11.491[46, 55, 101, 149, 114, 181, 83, 95]
11.512[49, 60, 118, 165, 133, 195, 104, 105]
11.528[49, 52, 97, 150, 113, 171, 95, 111]
11.55[47, 53, 93, 141, 123, 164, 100, 103]
11.572[46, 54, 96, 151, 138, 180, 101, 88]
11.588[40, 57, 104, 150, 164, 224, 126, 90]
11.61[38, 59, 100, 152, 179, 214, 117, 79]
11.632[37, 64, 103, 148, 174, 207, 116, 69]
11.648[34, 65, 103, 144, 176, 202, 117, 63]
11.671[37, 62, 97, 131, 199, 196, 118, 75]
11.692[39, 59, 93, 118, 179, 143, 90, 65]
11.707[37, 54, 82, 124, 165, 137, 110, 64]
11.73[37, 54, 94, 124, 168, 150, 122, 71]
11.752[40, 47, 94, 139, 167, 162, 133, 75]
11.768[40, 47, 96, 140, 151, 150, 129, 70]
11.79[41, 47, 95, 142, 163, 161, 127, 70]
11.812[43, 50, 104, 109, 174, 167, 134, 83]
11.835[44, 48, 96, 110, 184, 155, 130, 83]
11.85[42, 48, 92, 88, 181, 145, 113, 80]
11.872[43, 57, 98, 105, 178, 145, 127, 81]
11.904[39, 56, 96, 105, 182, 150, 144, 91]
11.91[38, 51, 87, 106, 176, 136, 115, 79]
11.933[41, 59, 84, 111, 170, 144, 113, 76]
11.955[42, 61, 80, 109, 166, 154, 129, 83]
11.97[41, 56, 74, 94, 153, 153, 138, 97]
11.992[42, 56, 77, 103, 143, 147, 122, 92]
12.015[39, 55, 71, 106, 130, 154, 126, 96]
12.03[36, 48, 76, 103, 132, 151, 122, 102]
12.052[40, 46, 75, 130, 125, 139, 115, 101]
12.075[43, 46, 80, 126, 121, 146, 99, 94]
12.09[43, 50, 79, 125, 120, 140, 101, 95]
12.112[43, 51, 81, 131, 120, 135, 98, 92]
12.135[42, 47, 72, 125, 109, 132, 117, 106]
12.151[37, 47, 83, 111, 121, 132, 113, 104]
12.173[33, 45, 78, 126, 122, 123, 106, 95]
12.195[32, 46, 84, 124, 112, 161, 103, 90]
12.21[33, 46, 90, 116, 110, 182, 125, 93]
12.232[33, 46, 93, 122, 119, 185, 111, 69]
12.255[32, 47, 90, 124, 126, 189, 106, 72]
12.27[34, 49, 92, 107, 131, 210, 108, 72]
12.292[35, 48, 92, 105, 135, 202, 111, 78]
12.323[36, 46, 83, 101, 127, 187, 89, 74]
12.33[37, 46, 79, 94, 133, 184, 81, 70]
12.352[38, 43, 67, 94, 114, 173, 78, 64]
12.375[38, 38, 58, 96, 104, 156, 75, 63]
12.399[37, 39, 59, 90, 105, 118, 75, 59]
12.413[36, 40, 59, 89, 118, 109, 70, 53]
12.435[36, 43, 82, 115, 103, 123, 73, 52]
12.45[35, 48, 87, 101, 135, 132, 86, 57]
12.481[30, 49, 88, 99, 141, 114, 98, 52]
12.503[29, 45, 92, 100, 133, 130, 99, 53]
12.51[30, 43, 92, 107, 129, 149, 99, 52]
12.532[33, 41, 78, 86, 124, 142, 103, 57]
12.556[35, 35, 73, 92, 89, 132, 112, 63]
12.57[36, 40, 75, 98, 86, 148, 106, 68]
12.592[36, 47, 78, 97, 93, 136, 107, 70]
12.616[36, 47, 78, 101, 96, 129, 108, 72]
12.63[31, 46, 77, 96, 105, 130, 112, 76]
12.653[30, 55, 105, 92, 141, 211, 98, 69]
12.676[34, 51, 106, 95, 139, 213, 97, 68]
12.69[37, 44, 95, 93, 139, 224, 88, 68]
12.712[37, 48, 106, 111, 137, 215, 85, 69]
12.736[39, 51, 111, 119, 132, 211, 78, 67]
12.75[38, 42, 89, 116, 111, 144, 80, 71]
12.781[34, 41, 92, 110, 112, 128, 71, 70]
12.796[31, 42, 92, 124, 109, 142, 87, 75]
12.818[33, 39, 82, 104, 106, 174, 90, 76]
12.832[32, 35, 76, 103, 106, 183, 84, 68]
12.863[32, 36, 74, 113, 83, 182, 102, 63]
12.878[33, 37, 74, 109, 76, 193, 105, 70]
12.892[32, 36, 72, 106, 83, 193, 97, 58]
12.916[31, 34, 67, 99, 72, 162, 94, 55]
12.938[31, 36, 67, 94, 68, 146, 104, 60]
12.952[31, 36, 59, 94, 68, 140, 95, 59]
12.976[31, 38, 67, 100, 67, 137, 94, 54]
12.998[40, 37, 69, 89, 58, 124, 92, 56]
13.012[42, 39, 69, 95, 59, 124, 92, 58]
13.036[40, 41, 81, 91, 73, 140, 85, 54]
13.058[40, 40, 86, 82, 76, 141, 74, 53]
13.072[41, 40, 76, 79, 81, 130, 68, 54]
13.103[34, 40, 82, 83, 77, 116, 75, 59]
13.118[36, 42, 99, 88, 77, 163, 92, 74]
13.132[36, 39, 89, 93, 69, 169, 95, 74]
13.156[37, 40, 91, 106, 82, 166, 95, 82]
13.178[36, 40, 90, 112, 76, 182, 104, 92]
13.192[37, 40, 87, 116, 83, 181, 106, 95]
13.216[37, 40, 78, 110, 83, 138, 93, 86]
13.238[40, 39, 78, 112, 88, 118, 90, 89]
13.253[44, 40, 72, 106, 72, 125, 86, 84]
13.276[43, 39, 80, 106, 83, 95, 83, 75]
13.299[42, 44, 78, 104, 111, 99, 105, 73]
13.312[42, 40, 71, 110, 110, 129, 104, 79]
13.336[39, 41, 72, 110, 111, 130, 104, 75]
13.358[33, 39, 81, 111, 115, 126, 109, 75]
13.373[32, 38, 85, 114, 121, 139, 105, 72]
13.396[32, 42, 91, 116, 97, 144, 84, 70]
13.418[29, 44, 88, 114, 100, 125, 91, 61]
13.432[32, 49, 89, 109, 99, 130, 88, 59]
13.456[35, 54, 80, 104, 99, 127, 82, 60]
13.478[35, 55, 67, 98, 90, 122, 79, 54]
13.492[34, 48, 59, 92, 82, 114, 72, 48]
13.516[33, 56, 77, 93, 84, 125, 62, 47]
13.538[31, 52, 74, 95, 79, 125, 65, 52]
13.552[30, 49, 74, 93, 102, 134, 65, 46]
13.576[30, 50, 75, 93, 96, 126, 71, 53]
13.598[33, 50, 86, 87, 99, 128, 89, 69]
13.621[33, 38, 68, 82, 101, 107, 85, 68]
13.643[35, 38, 69, 79, 100, 126, 90, 68]
13.658[37, 39, 68, 82, 73, 114, 91, 81]
13.681[37, 39, 68, 74, 70, 113, 86, 76]
13.696[34, 34, 49, 76, 65, 113, 75, 61]
13.718[35, 39, 64, 74, 55, 118, 76, 64]
13.732[33, 39, 67, 83, 55, 118, 69, 61]
13.756[30, 38, 73, 89, 74, 136, 98, 55]
13.778[31, 40, 87, 88, 79, 136, 106, 57]
13.801[31, 40, 85, 84, 80, 128, 97, 57]
13.816[31, 40, 85, 97, 79, 141, 109, 61]
13.838[32, 39, 80, 90, 83, 126, 112, 65]
13.868[31, 36, 72, 76, 65, 108, 95, 64]
13.876[31, 33, 60, 109, 74, 137, 97, 65]
13.906[33, 37, 66, 114, 85, 151, 99, 65]
13.921[35, 32, 59, 109, 97, 150, 85, 66]
13.936[33, 32, 65, 127, 93, 156, 82, 64]
13.958[35, 34, 66, 131, 109, 180, 75, 60]
13.981[38, 35, 61, 109, 108, 163, 63, 64]
13.996[39, 37, 61, 108, 97, 170, 73, 72]
14.019[35, 40, 65, 105, 86, 172, 76, 79]
14.041[36, 43, 59, 89, 94, 168, 92, 85]
14.063[36, 44, 62, 95, 79, 150, 92, 83]
14.078[36, 49, 65, 100, 67, 174, 98, 81]
14.101[37, 48, 72, 98, 72, 168, 98, 74]
14.116[39, 44, 70, 106, 73, 172, 114, 70]
14.138[39, 44, 79, 111, 64, 188, 104, 61]
14.161[37, 43, 81, 106, 71, 188, 102, 58]
14.176[33, 39, 84, 113, 80, 166, 99, 59]
14.198[34, 37, 87, 127, 97, 158, 99, 57]
14.228[34, 38, 81, 115, 98, 148, 80, 51]
14.236[35, 42, 80, 105, 110, 138, 73, 51]
14.258[39, 46, 82, 125, 120, 150, 76, 54]
14.281[38, 45, 77, 117, 122, 148, 74, 49]
14.295[34, 45, 76, 110, 111, 143, 65, 51]
14.318[34, 48, 82, 117, 113, 132, 60, 47]
14.341[30, 44, 83, 120, 104, 112, 63, 51]
14.355[26, 45, 90, 104, 84, 96, 59, 61]
14.378[28, 45, 89, 105, 90, 91, 77, 76]
14.401[28, 46, 84, 101, 90, 112, 76, 79]
14.415[27, 44, 79, 102, 88, 120, 80, 80]
14.438[32, 43, 80, 99, 86, 122, 78, 79]
14.461[34, 42, 89, 96, 90, 113, 78, 76]
14.475[35, 42, 92, 96, 80, 136, 92, 79]
14.498[36, 39, 87, 95, 74, 128, 94, 81]
14.52[36, 41, 91, 104, 84, 128, 100, 85]
14.535[35, 40, 84, 106, 91, 131, 102, 95]
14.558[31, 35, 68, 102, 84, 131, 101, 93]
14.581[32, 35, 64, 94, 86, 117, 98, 96]
14.595[32, 39, 72, 129, 86, 107, 98, 92]
14.618[32, 36, 68, 116, 81, 105, 89, 90]
14.64[33, 43, 74, 112, 89, 105, 88, 82]
14.655[34, 44, 82, 126, 104, 110, 93, 84]
14.678[35, 45, 91, 129, 102, 102, 74, 69]
14.701[35, 44, 89, 94, 100, 104, 71, 67]
14.723[35, 44, 98, 101, 94, 110, 72, 64]
14.738[32, 42, 95, 119, 83, 121, 70, 71]
14.768[32, 40, 85, 103, 63, 120, 66, 73]
14.784[31, 39, 75, 102, 56, 114, 68, 72]
14.799[28, 36, 71, 105, 62, 111, 76, 76]
14.82[29, 34, 58, 96, 69, 97, 74, 74]
14.85[28, 31, 57, 71, 67, 74, 78, 66]
14.859[28, 30, 60, 70, 70, 91, 85, 65]
14.88[27, 30, 61, 71, 80, 98, 84, 68]
14.902[29, 34, 62, 60, 79, 103, 82, 66]
14.919[30, 35, 68, 74, 78, 124, 82, 75]
14.94[29, 32, 65, 76, 79, 125, 81, 72]
14.962[30, 32, 66, 81, 78, 114, 73, 66]
14.979[30, 36, 66, 80, 83, 115, 61, 59]
15.0[29, 36, 68, 81, 80, 119, 54, 60]
15.022[28, 38, 63, 78, 76, 97, 53, 51]
15.045[30, 37, 66, 76, 73, 110, 58, 51]
15.06[31, 38, 63, 73, 80, 122, 74, 64]
15.082[28, 36, 62, 84, 69, 127, 78, 67]
15.099[29, 34, 58, 83, 83, 126, 84, 70]
15.12[29, 32, 57, 74, 89, 132, 87, 71]
15.142[29, 35, 54, 77, 95, 161, 84, 72]
15.159[28, 34, 47, 84, 88, 150, 82, 65]
15.18[30, 40, 63, 75, 87, 155, 83, 66]
15.203[27, 36, 59, 76, 73, 150, 77, 61]
15.219[29, 37, 66, 89, 71, 161, 74, 62]
15.24[28, 36, 62, 85, 62, 120, 71, 61]
15.263[30, 35, 68, 79, 67, 128, 67, 54]
15.28[30, 30, 63, 76, 71, 143, 78, 47]
15.3[32, 31, 65, 82, 72, 150, 79, 44]
15.322[30, 32, 74, 84, 67, 139, 87, 50]
15.339[30, 34, 75, 85, 67, 155, 87, 50]
15.36[30, 33, 72, 83, 67, 155, 81, 56]
15.382[28, 33, 66, 114, 64, 132, 76, 60]
15.399[28, 34, 62, 110, 67, 151, 79, 64]
15.42[29, 33, 51, 99, 73, 158, 74, 59]
15.442[30, 38, 61, 110, 83, 146, 77, 60]
15.459[29, 37, 63, 113, 88, 157, 76, 57]
15.48[27, 38, 63, 81, 99, 170, 69, 61]
15.503[32, 38, 63, 82, 107, 155, 63, 61]
15.519[33, 43, 69, 87, 107, 153, 63, 67]
15.54[31, 39, 68, 78, 99, 153, 62, 70]
15.563[33, 43, 78, 74, 90, 141, 76, 70]
15.579[34, 40, 76, 77, 82, 117, 71, 65]
15.6[31, 41, 81, 87, 72, 116, 79, 72]
15.622[32, 34, 71, 87, 67, 113, 80, 65]
15.645[33, 32, 65, 85, 67, 120, 85, 60]
15.66[32, 30, 55, 94, 74, 123, 80, 62]
15.682[31, 32, 59, 92, 78, 126, 78, 59]
15.705[29, 29, 58, 99, 72, 120, 82, 53]
15.72[27, 33, 67, 103, 75, 120, 80, 55]
15.742[28, 36, 65, 100, 79, 139, 78, 63]
15.765[32, 38, 66, 96, 79, 135, 68, 61]
15.78[34, 38, 65, 101, 70, 139, 75, 61]
15.803[34, 39, 67, 105, 78, 138, 74, 62]
15.825[35, 36, 62, 98, 72, 131, 76, 67]
15.84[33, 35, 66, 124, 66, 133, 82, 71]
15.862[30, 35, 66, 132, 62, 135, 83, 71]
15.885[29, 36, 65, 135, 67, 135, 78, 70]
15.9[30, 39, 71, 121, 59, 154, 66, 66]
15.922[31, 40, 71, 121, 67, 178, 69, 58]
15.945[31, 39, 68, 104, 75, 162, 66, 44]
15.96[32, 39, 72, 91, 78, 161, 69, 48]
15.982[34, 38, 72, 81, 82, 164, 83, 51]
16.005[34, 34, 59, 81, 85, 155, 87, 53]
16.02[34, 41, 70, 87, 95, 130, 82, 54]
16.042[36, 43, 68, 79, 88, 130, 96, 74]
16.065[34, 40, 59, 78, 84, 144, 110, 74]
16.081[31, 42, 77, 80, 95, 139, 99, 74]
16.102[33, 43, 76, 80, 96, 138, 101, 77]
16.125[31, 35, 70, 72, 80, 150, 101, 76]
16.14[33, 34, 71, 79, 83, 147, 93, 62]
16.178[33, 35, 74, 83, 84, 129, 76, 64]
16.185[35, 37, 68, 80, 68, 130, 80, 65]
16.2[33, 35, 69, 85, 66, 125, 73, 63]
16.222[33, 37, 63, 84, 70, 116, 84, 69]
16.245[32, 37, 63, 74, 74, 111, 81, 71]
16.26[33, 37, 60, 65, 76, 115, 80, 70]
16.282[32, 33, 56, 77, 69, 110, 79, 76]
16.305[31, 37, 62, 69, 69, 103, 80, 74]
16.32[33, 33, 61, 72, 71, 102, 72, 70]
16.342[32, 34, 57, 73, 63, 103, 56, 65]
16.365[31, 34, 59, 88, 59, 96, 56, 64]
16.38[32, 33, 52, 79, 67, 97, 57, 53]
16.403[31, 31, 55, 86, 69, 107, 76, 54]
16.425[29, 32, 60, 90, 66, 111, 76, 50]
16.448[30, 32, 65, 93, 65, 118, 83, 55]
16.462[29, 31, 68, 93, 70, 131, 90, 57]
16.485[29, 30, 63, 96, 65, 137, 93, 71]
16.5[28, 30, 54, 87, 66, 125, 79, 72]
16.522[30, 31, 53, 88, 73, 125, 82, 72]
16.545[27, 30, 60, 112, 93, 143, 92, 83]
16.56[31, 32, 61, 112, 94, 140, 96, 89]
16.583[30, 34, 64, 111, 98, 145, 93, 81]
16.606[33, 34, 66, 116, 103, 148, 98, 86]
16.628[31, 37, 64, 119, 97, 144, 95, 85]
16.642[31, 45, 72, 94, 79, 121, 78, 73]
16.665[27, 44, 68, 79, 72, 108, 60, 57]
16.688[31, 44, 71, 83, 75, 99, 68, 66]
16.702[31, 42, 69, 76, 61, 104, 71, 63]
16.725[33, 40, 78, 86, 59, 109, 72, 62]
16.748[32, 30, 62, 93, 61, 119, 75, 61]
16.77[34, 32, 61, 107, 70, 127, 86, 64]
16.785[32, 31, 59, 102, 66, 124, 83, 58]
16.808[31, 34, 64, 100, 68, 132, 82, 60]
16.822[29, 33, 57, 92, 72, 143, 86, 64]
16.845[30, 38, 66, 81, 71, 143, 99, 68]
16.867[26, 37, 67, 73, 72, 166, 102, 69]
16.883[27, 36, 65, 82, 67, 186, 102, 64]
16.905[29, 36, 71, 94, 67, 179, 95, 63]
16.928[29, 35, 67, 90, 72, 168, 92, 62]
16.945[35, 30, 58, 108, 77, 161, 99, 82]
16.965[38, 29, 57, 101, 72, 132, 89, 88]
16.987[40, 35, 56, 102, 76, 105, 92, 96]
17.002[40, 36, 52, 95, 75, 100, 92, 102]
17.025[39, 36, 53, 90, 66, 96, 93, 101]
17.056[34, 38, 55, 68, 61, 103, 71, 84]
17.062[32, 37, 58, 69, 66, 117, 104, 88]
17.085[29, 33, 62, 66, 62, 125, 99, 79]
17.107[30, 30, 59, 66, 63, 165, 104, 72]
17.13[31, 30, 62, 72, 74, 181, 111, 70]
17.145[31, 31, 60, 73, 80, 180, 117, 68]
17.167[32, 34, 57, 77, 76, 185, 96, 53]
17.182[34, 33, 58, 72, 78, 197, 94, 54]
17.205[29, 34, 54, 78, 76, 172, 92, 48]
17.227[37, 36, 50, 69, 71, 167, 89, 78]
17.243[37, 36, 49, 68, 66, 178, 79, 79]
17.265[36, 37, 51, 91, 71, 167, 80, 77]
17.288[35, 40, 44, 101, 69, 151, 85, 79]
17.302[41, 40, 45, 98, 81, 179, 80, 84]
17.325[38, 41, 48, 101, 80, 170, 72, 60]
17.347[39, 40, 51, 102, 80, 163, 75, 58]
17.362[39, 39, 64, 102, 77, 171, 73, 58]
17.385[39, 34, 65, 94, 84, 178, 65, 54]
17.407[35, 33, 69, 104, 77, 145, 73, 59]
17.431[32, 31, 67, 102, 77, 140, 71, 58]
17.445[31, 27, 72, 109, 82, 155, 81, 62]
17.468[30, 25, 61, 94, 78, 146, 75, 62]
17.482[31, 29, 65, 95, 71, 150, 84, 71]
17.505[30, 29, 60, 81, 67, 153, 87, 76]
17.528[32, 30, 69, 86, 68, 164, 95, 75]
17.551[32, 34, 67, 83, 66, 145, 90, 71]
17.565[31, 34, 66, 82, 73, 159, 97, 74]
17.587[32, 32, 61, 73, 72, 156, 95, 68]
17.611[32, 32, 61, 76, 79, 145, 90, 54]
17.625[29, 31, 56, 73, 82, 142, 84, 53]
17.647[32, 29, 54, 69, 82, 137, 83, 53]
17.67[32, 30, 57, 64, 82, 151, 77, 48]
17.685[33, 32, 56, 74, 83, 143, 88, 48]
17.707[32, 35, 61, 76, 79, 150, 85, 48]
17.731[32, 35, 60, 70, 70, 138, 81, 50]
17.745[30, 32, 56, 74, 67, 185, 82, 55]
17.767[33, 33, 57, 72, 61, 168, 81, 57]
17.791[30, 32, 60, 71, 70, 165, 63, 53]
17.805[33, 30, 58, 64, 74, 163, 68, 60]
17.828[33, 29, 55, 69, 77, 169, 86, 68]
17.851[31, 29, 57, 64, 76, 115, 84, 70]
17.865[32, 28, 55, 74, 80, 124, 91, 92]
17.887[32, 33, 60, 75, 78, 128, 98, 93]
17.911[30, 33, 61, 79, 70, 141, 100, 90]
17.925[31, 36, 65, 83, 68, 143, 91, 88]
17.947[34, 38, 68, 88, 82, 149, 88, 86]
17.97[31, 38, 69, 85, 77, 140, 87, 69]
17.985[31, 34, 65, 90, 68, 131, 94, 83]
18.008[29, 34, 63, 88, 72, 151, 91, 84]
18.031[30, 35, 56, 86, 78, 162, 88, 84]
18.045[26, 38, 62, 87, 70, 174, 93, 82]
18.068[27, 39, 61, 83, 73, 167, 113, 95]
18.091[30, 39, 59, 70, 73, 181, 107, 83]
18.105[32, 38, 59, 75, 81, 158, 108, 82]
18.128[30, 35, 61, 72, 78, 139, 120, 82]
18.15[31, 30, 58, 71, 76, 130, 120, 86]
18.165[30, 27, 54, 70, 77, 138, 95, 71]
18.188[28, 28, 57, 106, 85, 130, 92, 68]
18.21[29, 29, 60, 103, 79, 118, 94, 70]
18.225[32, 29, 58, 104, 82, 128, 79, 65]
18.248[32, 31, 54, 100, 75, 129, 78, 64]
18.272[34, 31, 53, 98, 71, 132, 79, 58]
18.285[37, 32, 49, 65, 76, 133, 101, 78]
18.308[37, 36, 50, 72, 73, 134, 97, 75]
18.331[34, 36, 51, 76, 74, 127, 93, 74]
18.345[34, 37, 45, 77, 84, 138, 94, 75]
18.368[32, 36, 52, 79, 98, 164, 107, 75]
18.39[30, 35, 60, 72, 94, 171, 85, 56]
18.413[30, 29, 58, 76, 99, 171, 80, 59]
18.428[33, 33, 70, 68, 100, 171, 82, 64]
18.451[35, 29, 68, 67, 94, 160, 117, 89]
18.465[35, 33, 67, 68, 84, 132, 106, 92]
18.488[33, 40, 72, 74, 82, 124, 109, 93]
18.511[32, 41, 70, 65, 81, 122, 110, 91]
18.54[30, 37, 61, 64, 78, 122, 107, 87]
18.548[30, 36, 63, 69, 77, 116, 88, 77]
18.571[31, 36, 61, 68, 78, 137, 89, 78]
18.593[31, 29, 51, 69, 84, 131, 82, 81]
18.608[30, 30, 63, 88, 81, 148, 82, 83]
18.631[31, 33, 63, 98, 75, 156, 89, 86]
18.653[29, 32, 61, 94, 75, 153, 60, 67]
18.668[32, 34, 66, 94, 72, 123, 56, 63]
18.691[32, 33, 62, 99, 61, 133, 58, 55]
18.714[34, 32, 50, 96, 65, 126, 88, 55]
18.728[34, 30, 53, 88, 65, 141, 99, 52]
18.75[34, 30, 58, 92, 69, 144, 102, 57]
18.773[30, 29, 53, 100, 67, 142, 102, 59]
18.795[32, 32, 56, 92, 61, 140, 110, 61]
18.811[31, 31, 52, 90, 55, 154, 92, 60]
18.833[32, 34, 54, 95, 78, 141, 77, 74]
18.848[31, 36, 50, 90, 75, 141, 80, 78]
18.87[31, 35, 57, 90, 86, 150, 81, 74]
18.893[29, 34, 70, 95, 99, 170, 69, 72]
18.908[28, 34, 70, 87, 108, 156, 69, 77]
18.931[24, 32, 67, 77, 96, 148, 68, 68]
18.953[27, 34, 78, 89, 98, 149, 72, 63]
18.968[25, 33, 75, 82, 96, 151, 75, 67]
18.999[27, 32, 60, 80, 85, 127, 80, 72]
19.013[27, 39, 99, 99, 74, 130, 81, 69]
19.027[29, 38, 101, 108, 72, 134, 101, 65]
19.051[28, 41, 98, 110, 72, 134, 97, 61]
19.073[30, 41, 99, 117, 61, 138, 95, 61]
19.088[33, 44, 106, 115, 77, 144, 94, 62]
19.111[35, 41, 88, 107, 75, 138, 97, 65]
19.133[37, 52, 107, 102, 74, 144, 84, 72]
19.147[41, 50, 108, 93, 75, 140, 85, 92]
19.17[43, 56, 111, 105, 74, 126, 84, 92]
19.194[41, 55, 114, 106, 61, 120, 94, 88]
19.207[39, 54, 105, 99, 65, 116, 88, 86]
19.231[40, 49, 91, 99, 65, 105, 82, 91]
19.253[36, 48, 91, 101, 62, 138, 91, 86]
19.276[34, 43, 87, 77, 72, 148, 94, 83]
19.291[33, 40, 76, 79, 67, 146, 83, 78]
19.313[34, 40, 76, 77, 64, 158, 83, 83]
19.327[33, 38, 70, 74, 62, 171, 94, 75]
19.351[31, 35, 64, 80, 77, 158, 110, 68]
19.373[31, 35, 71, 92, 72, 148, 111, 72]
19.387[31, 35, 72, 88, 72, 168, 119, 76]
19.41[31, 35, 80, 91, 72, 157, 118, 73]
19.433[27, 33, 78, 96, 77, 139, 108, 69]
19.456[30, 34, 79, 102, 67, 124, 78, 60]
19.47[30, 33, 79, 88, 63, 125, 72, 62]
19.493[30, 36, 83, 88, 77, 100, 55, 62]
19.516[29, 35, 74, 88, 87, 104, 57, 54]
19.531[31, 36, 77, 87, 84, 134, 56, 53]
19.553[30, 33, 73, 70, 80, 131, 52, 77]
19.576[37, 32, 64, 76, 85, 128, 68, 89]
19.591[93, 39, 64, 126, 105, 114, 225, 344]
19.613[102, 76, 121, 292, 257, 131, 316, 371]
19.636[111, 103, 174, 451, 347, 136, 353, 377]
19.651[118, 111, 192, 532, 366, 168, 374, 392]
19.673[117, 118, 207, 568, 387, 173, 381, 395]
19.695[88, 124, 218, 585, 394, 178, 324, 223]
19.71[91, 119, 211, 549, 330, 181, 250, 189]
19.733[79, 99, 171, 445, 259, 157, 195, 181]
19.756[67, 92, 154, 356, 235, 122, 155, 136]
19.778[66, 84, 136, 302, 201, 118, 129, 113]
19.794[54, 72, 116, 257, 170, 107, 107, 93]
19.822[27, 48, 76, 193, 136, 66, 69, 58]
19.838[23, 40, 63, 154, 75, 62, 71, 40]
19.854[21, 36, 54, 129, 58, 56, 60, 35]
19.875[22, 32, 45, 103, 45, 45, 59, 32]
19.897[22, 24, 31, 78, 39, 40, 53, 28]
19.914[19, 24, 26, 68, 35, 35, 49, 28]
19.935[21, 22, 26, 47, 33, 32, 33, 27]
19.957[20, 20, 24, 34, 23, 27, 28, 20]
19.974[19, 21, 22, 26, 19, 23, 23, 19]
19.995[17, 23, 21, 25, 19, 20, 24, 21]
20.017[17, 22, 23, 23, 19, 19, 22, 20]
20.034[16, 21, 22, 25, 19, 19, 23, 20]
20.055[19, 22, 22, 23, 20, 19, 23, 22]
20.071[20, 20, 21, 23, 19, 18, 23, 27]
20.092[21, 17, 22, 21, 19, 19, 23, 25]
20.115[21, 17, 20, 21, 19, 21, 21, 26]
20.131[22, 18, 20, 20, 19, 22, 22, 30]
20.152[19, 17, 22, 21, 19, 21, 21, 30]
20.175[18, 17, 22, 19, 20, 22, 21, 26]
20.191[18, 20, 21, 20, 20, 22, 21, 26]
20.212[19, 20, 21, 18, 21, 22, 21, 25]
20.235[19, 21, 20, 18, 21, 20, 20, 19]
20.251[20, 22, 19, 18, 20, 19, 20, 17]
20.273[21, 21, 19, 17, 18, 19, 19, 18]
20.295[20, 22, 19, 17, 19, 18, 19, 16]
20.311[19, 22, 21, 17, 18, 17, 19, 16]
20.332[18, 21, 22, 17, 19, 17, 20, 16]
20.355[18, 20, 21, 17, 19, 17, 22, 17]
20.378[17, 21, 21, 20, 21, 16, 22, 18]
20.392[19, 19, 21, 18, 21, 15, 21, 19]
20.415[19, 18, 19, 19, 21, 16, 21, 19]
20.437[18, 19, 19, 21, 21, 16, 21, 19]
20.452[18, 22, 21, 22, 21, 18, 19, 20]
20.475[17, 21, 19, 21, 21, 19, 19, 20]
20.497[17, 22, 21, 22, 21, 19, 18, 20]
20.512[16, 22, 21, 22, 21, 20, 20, 20]
20.535[18, 21, 21, 24, 21, 20, 18, 21]
20.557[18, 20, 21, 23, 21, 18, 20, 20]
20.572[19, 21, 22, 23, 20, 18, 20, 19]
20.596[18, 20, 22, 21, 18, 18, 19, 18]
20.617[18, 20, 22, 23, 18, 16, 20, 18]
20.632[18, 20, 22, 21, 20, 16, 22, 17]
20.655[17, 20, 22, 22, 20, 17, 20, 19]
20.677[19, 21, 22, 21, 22, 17, 20, 18]
20.692[20, 21, 20, 22, 23, 19, 21, 18]
20.715[21, 21, 19, 21, 22, 18, 20, 19]
20.737[20, 20, 18, 21, 20, 18, 18, 20]
20.752[20, 19, 19, 17, 18, 18, 20, 17]
20.775[18, 19, 19, 20, 18, 19, 20, 20]
20.798[19, 17, 20, 23, 18, 19, 20, 20]
20.812[19, 17, 20, 24, 19, 18, 20, 20]
20.835[20, 17, 20, 23, 19, 18, 22, 19]
20.858[24, 17, 18, 23, 22, 19, 21, 21]
20.872[26, 15, 18, 21, 22, 18, 21, 19]
20.895[26, 16, 18, 19, 21, 18, 21, 18]
20.917[25, 18, 18, 19, 22, 19, 20, 20]
20.934[25, 19, 18, 20, 22, 20, 19, 19]
20.955[20, 20, 19, 21, 20, 20, 19, 19]
20.978[21, 21, 20, 21, 19, 20, 17, 19]
20.992[18, 22, 19, 19, 21, 20, 18, 20]
21.015[20, 22, 20, 20, 19, 21, 18, 18]
21.037[20, 21, 21, 19, 20, 20, 20, 20]
21.052[21, 23, 20, 20, 21, 18, 19, 18]
21.075[18, 24, 20, 19, 22, 18, 18, 20]
21.097[19, 23, 20, 20, 21, 18, 18, 20]
21.112[20, 23, 19, 20, 22, 17, 18, 19]
21.135[21, 24, 20, 20, 20, 18, 17, 18]
21.157[21, 22, 20, 20, 19, 18, 17, 20]
21.172[19, 22, 21, 21, 19, 19, 18, 20]
21.195[19, 21, 20, 20, 18, 20, 18, 20]
21.219[16, 20, 22, 20, 17, 19, 19, 20]
21.234[17, 20, 21, 19, 18, 20, 19, 21]
21.256[17, 19, 21, 18, 18, 19, 18, 19]
21.277[19, 19, 19, 18, 19, 17, 18, 19]
21.294[18, 20, 20, 20, 17, 16, 18, 19]
21.315[21, 20, 19, 19, 19, 15, 17, 19]
21.337[23, 21, 20, 19, 19, 16, 16, 18]
21.36[23, 20, 20, 20, 18, 17, 17, 18]
21.375[23, 21, 23, 20, 21, 18, 17, 16]
21.397[23, 22, 24, 21, 22, 17, 19, 16]
21.42[21, 22, 23, 21, 22, 18, 19, 18]
21.435[19, 21, 23, 24, 23, 17, 20, 19]
21.457[19, 23, 24, 24, 24, 18, 20, 19]
21.48[18, 21, 21, 23, 19, 19, 19, 19]
21.495[19, 20, 20, 21, 19, 19, 18, 20]
21.517[19, 20, 21, 21, 20, 23, 17, 19]
21.54[20, 18, 20, 19, 19, 22, 16, 17]
21.555[21, 17, 18, 20, 18, 21, 16, 19]
21.577[21, 17, 19, 19, 20, 21, 17, 19]
21.601[21, 17, 22, 18, 20, 20, 17, 19]
21.615[22, 17, 21, 19, 19, 16, 16, 17]
21.638[21, 19, 23, 18, 20, 18, 17, 18]
21.66[20, 20, 22, 18, 20, 17, 17, 17]
21.675[18, 20, 23, 19, 21, 17, 18, 17]
21.697[18, 19, 20, 19, 21, 18, 18, 16]
21.72[18, 22, 19, 18, 21, 18, 18, 18]
21.735[18, 22, 19, 20, 19, 16, 18, 18]
21.757[17, 21, 20, 20, 20, 17, 18, 22]
21.78[17, 22, 21, 21, 22, 20, 18, 21]
21.795[18, 23, 21, 21, 21, 19, 19, 21]
21.817[18, 21, 22, 21, 23, 20, 21, 20]
21.84[17, 19, 21, 20, 24, 20, 20, 20]
21.855[16, 19, 20, 18, 24, 20, 20, 18]
21.878[18, 20, 17, 17, 21, 17, 20, 19]
21.908[16, 21, 19, 16, 23, 20, 20, 19]
21.915[15, 21, 19, 15, 20, 19, 19, 20]
21.937[15, 21, 20, 16, 19, 20, 20, 19]
21.96[16, 24, 20, 18, 19, 20, 19, 17]
21.975[15, 23, 21, 17, 19, 20, 21, 18]
21.999[17, 22, 20, 20, 20, 18, 20, 19]
22.02[17, 22, 20, 20, 21, 17, 19, 19]
22.035[17, 24, 20, 21, 22, 19, 19, 19]
22.057[17, 22, 20, 20, 21, 20, 19, 20]
22.08[17, 23, 21, 24, 20, 20, 17, 19]
22.095[16, 22, 20, 22, 19, 19, 18, 18]
22.117[16, 21, 22, 22, 19, 20, 19, 19]
22.14[17, 19, 22, 22, 19, 17, 19, 20]
22.155[17, 19, 23, 23, 18, 16, 20, 19]
22.177[19, 18, 22, 20, 19, 18, 21, 19]
22.2[20, 20, 21, 20, 20, 20, 20, 19]
22.215[21, 21, 21, 20, 21, 19, 21, 17]
22.237[22, 21, 20, 18, 19, 20, 21, 17]
22.26[23, 22, 20, 17, 21, 19, 20, 19]
22.283[22, 22, 19, 18, 22, 19, 20, 18]
22.297[21, 20, 21, 19, 20, 20, 20, 19]
22.32[20, 21, 20, 19, 20, 20, 19, 21]
22.343[18, 21, 20, 19, 19, 20, 19, 22]
22.357[18, 20, 22, 18, 19, 20, 20, 22]
22.38[18, 21, 23, 17, 18, 18, 19, 22]
22.403[17, 20, 23, 18, 18, 17, 18, 22]
22.417[19, 19, 22, 19, 18, 18, 17, 20]
22.448[19, 17, 23, 19, 17, 18, 18, 18]
22.464[20, 17, 22, 19, 17, 19, 17, 16]
22.477[20, 17, 21, 20, 18, 19, 17, 17]
22.5[19, 19, 22, 21, 17, 20, 16, 18]
22.523[19, 19, 22, 19, 19, 21, 18, 17]
22.537[19, 20, 21, 20, 20, 21, 18, 20]
22.56[17, 20, 21, 23, 21, 21, 17, 20]
22.583[18, 21, 22, 23, 21, 20, 21, 20]
22.597[19, 20, 21, 22, 22, 21, 21, 19]
22.62[19, 20, 22, 22, 21, 18, 21, 19]
22.643[19, 20, 21, 21, 22, 19, 22, 19]
22.657[19, 20, 20, 21, 22, 20, 22, 18]
22.68[20, 19, 20, 21, 21, 21, 18, 17]
22.703[21, 19, 19, 22, 20, 19, 18, 17]
22.717[22, 20, 20, 24, 20, 21, 18, 18]
22.74[21, 20, 21, 24, 21, 20, 16, 18]
22.763[22, 20, 20, 23, 21, 19, 19, 18]
22.777[23, 20, 22, 22, 20, 20, 20, 19]
22.8[20, 21, 23, 21, 23, 19, 20, 20]
22.822[19, 23, 22, 20, 22, 18, 18, 19]
22.837[19, 23, 22, 20, 23, 18, 19, 19]
22.86[17, 23, 22, 19, 22, 21, 18, 20]
22.883[20, 23, 21, 19, 23, 18, 18, 20]
22.897[20, 23, 22, 18, 22, 21, 19, 19]
22.92[20, 21, 21, 19, 22, 19, 19, 20]
22.943[19, 20, 20, 19, 20, 20, 18, 20]
22.957[21, 22, 20, 20, 21, 17, 19, 20]
22.98[17, 22, 20, 21, 22, 17, 20, 20]
23.004[18, 21, 20, 22, 22, 14, 20, 19]
23.017[18, 21, 20, 21, 21, 16, 20, 19]
23.04[18, 22, 20, 23, 23, 15, 20, 20]
23.063[16, 19, 22, 22, 22, 17, 18, 21]
23.077[18, 19, 22, 21, 20, 17, 18, 23]
23.1[17, 20, 20, 20, 20, 18, 18, 22]
23.123[17, 19, 22, 21, 23, 19, 17, 21]
23.137[17, 17, 22, 18, 22, 20, 18, 19]
23.16[18, 19, 21, 18, 21, 20, 19, 18]
23.183[16, 18, 21, 18, 20, 20, 19, 17]
23.197[18, 19, 21, 18, 21, 20, 17, 17]
23.22[19, 19, 20, 18, 20, 19, 17, 17]
23.243[20, 21, 22, 18, 20, 19, 17, 17]
23.265[21, 22, 24, 18, 20, 17, 17, 16]
23.28[21, 22, 24, 20, 22, 18, 17, 16]
23.303[20, 21, 27, 19, 21, 20, 18, 17]
23.325[20, 22, 27, 20, 19, 18, 17, 18]
23.34[21, 22, 25, 19, 19, 20, 19, 18]
23.363[19, 22, 25, 20, 20, 20, 18, 20]
23.385[22, 21, 24, 18, 19, 20, 18, 20]
23.4[20, 23, 22, 20, 21, 18, 19, 19]
23.423[21, 22, 21, 19, 22, 18, 20, 19]
23.454[21, 22, 20, 19, 21, 16, 19, 20]
23.46[21, 21, 19, 18, 22, 16, 19, 17]
23.483[19, 22, 20, 18, 21, 16, 19, 18]
23.505[19, 20, 21, 18, 22, 17, 20, 19]
23.52[19, 19, 19, 18, 20, 17, 19, 18]
23.543[19, 20, 21, 19, 19, 19, 18, 18]
23.566[19, 20, 21, 19, 21, 18, 20, 20]
23.58[19, 18, 22, 21, 22, 19, 21, 20]
23.603[19, 19, 21, 22, 19, 20, 19, 20]
23.625[19, 20, 22, 23, 19, 22, 21, 20]
23.64[18, 19, 22, 23, 22, 20, 21, 21]
23.663[17, 19, 23, 23, 20, 20, 21, 22]
23.685[17, 21, 22, 22, 19, 21, 20, 21]
23.7[19, 22, 22, 22, 19, 20, 20, 22]
23.723[20, 23, 22, 19, 20, 19, 19, 25]
23.745[20, 23, 21, 21, 19, 20, 19, 23]
23.76[19, 22, 20, 21, 20, 21, 19, 22]
23.783[22, 20, 19, 21, 20, 21, 21, 22]
23.805[20, 19, 19, 20, 24, 21, 21, 20]
23.82[18, 18, 19, 20, 22, 21, 22, 16]
23.843[20, 18, 18, 21, 23, 19, 23, 18]
23.865[20, 19, 19, 22, 21, 20, 22, 18]
23.88[18, 19, 20, 21, 24, 22, 20, 19]
23.903[19, 19, 21, 24, 21, 20, 19, 22]
23.925[20, 17, 21, 25, 22, 20, 19, 22]
23.94[18, 19, 22, 24, 20, 20, 18, 21]
23.963[18, 21, 21, 23, 20, 21, 18, 20]
23.985[18, 21, 20, 24, 20, 19, 19, 20]
24.0[18, 23, 19, 22, 18, 20, 20, 19]
24.023[19, 25, 19, 23, 18, 19, 20, 19]
24.045[19, 24, 18, 23, 19, 19, 19, 18]
24.06[18, 23, 19, 23, 19, 18, 19, 18]
24.083[18, 24, 19, 23, 18, 22, 19, 17]
24.105[20, 21, 19, 22, 19, 23, 21, 16]
24.12[19, 20, 20, 22, 19, 23, 21, 16]
24.143[20, 20, 20, 19, 19, 23, 21, 16]
24.165[23, 21, 20, 19, 21, 23, 20, 17]
24.188[22, 21, 21, 19, 20, 19, 19, 16]
24.203[21, 21, 22, 18, 18, 19, 18, 18]
24.225[20, 22, 21, 17, 21, 21, 19, 19]
24.248[20, 21, 22, 17, 21, 20, 19, 20]
24.263[19, 19, 21, 15, 21, 19, 19, 19]
24.285[21, 21, 22, 16, 20, 19, 20, 20]
24.308[20, 21, 19, 17, 22, 18, 18, 20]
24.323[20, 22, 21, 16, 20, 19, 18, 19]
24.345[21, 22, 21, 19, 20, 19, 18, 18]
24.368[18, 22, 22, 21, 18, 19, 16, 19]
24.384[17, 20, 21, 20, 20, 20, 19, 18]
24.405[16, 21, 24, 20, 20, 22, 19, 17]
24.428[19, 20, 24, 22, 18, 19, 20, 17]
24.443[19, 21, 25, 18, 19, 18, 21, 19]
24.465[19, 22, 24, 18, 19, 19, 22, 19]
24.488[20, 22, 25, 19, 20, 20, 19, 19]
24.503[19, 22, 22, 18, 20, 18, 20, 19]
24.525[18, 22, 21, 17, 22, 19, 22, 20]
24.548[17, 22, 20, 18, 22, 20, 21, 18]
24.563[18, 23, 19, 19, 23, 19, 21, 17]
24.585[17, 23, 17, 19, 21, 18, 21, 18]
24.608[16, 21, 18, 19, 20, 18, 22, 17]
24.623[16, 23, 18, 21, 19, 18, 20, 17]
24.645[17, 21, 16, 21, 20, 17, 20, 18]
24.668[17, 21, 17, 19, 20, 18, 21, 17]
24.682[17, 20, 18, 19, 22, 18, 20, 16]
24.705[18, 20, 17, 20, 23, 19, 20, 17]
24.728[18, 17, 19, 20, 23, 19, 19, 15]
24.742[19, 19, 20, 19, 21, 19, 21, 17]
24.766[19, 18, 23, 21, 21, 19, 18, 18]
24.788[19, 19, 22, 22, 20, 17, 18, 18]
24.81[19, 20, 22, 21, 19, 17, 17, 20]
24.826[19, 20, 22, 20, 20, 17, 18, 21]
24.847[18, 20, 23, 22, 20, 15, 18, 19]
24.87[20, 19, 19, 20, 21, 17, 17, 18]
24.886[18, 18, 21, 20, 20, 20, 19, 20]
24.907[18, 18, 21, 20, 20, 20, 21, 18]
24.93[18, 18, 19, 22, 18, 23, 23, 18]
24.947[17, 16, 19, 22, 19, 22, 21, 19]
24.968[16, 16, 19, 24, 18, 21, 23, 20]
24.99[18, 19, 18, 22, 18, 21, 22, 18]
25.006[18, 19, 18, 22, 18, 21, 22, 19]
25.028[19, 19, 20, 21, 19, 19, 21, 20]
25.057[20, 20, 19, 19, 20, 20, 21, 20]
25.066[21, 21, 21, 17, 22, 21, 23, 20]
25.087[22, 20, 21, 16, 21, 18, 22, 20]
25.11[22, 19, 22, 19, 21, 19, 22, 20]
25.126[21, 19, 21, 18, 21, 17, 22, 19]
25.147[20, 20, 22, 17, 20, 16, 21, 18]
25.17[19, 20, 20, 18, 19, 16, 19, 17]
25.194[18, 22, 19, 19, 20, 18, 18, 18]
25.207[16, 23, 19, 18, 20, 19, 17, 17]
25.23[18, 23, 19, 18, 21, 21, 17, 18]
25.246[18, 24, 20, 20, 21, 21, 17, 19]
25.269[17, 23, 21, 20, 21, 21, 16, 19]
25.29[18, 22, 22, 21, 21, 20, 15, 17]
25.307[19, 21, 23, 21, 21, 19, 16, 18]
25.329[18, 20, 24, 21, 20, 18, 17, 18]
25.351[19, 19, 22, 20, 20, 20, 19, 17]
25.366[20, 19, 21, 21, 19, 18, 19, 17]
25.387[19, 20, 20, 21, 20, 18, 21, 18]
25.41[20, 20, 20, 21, 20, 18, 21, 18]
25.425[20, 21, 19, 19, 20, 18, 20, 17]
25.447[19, 22, 21, 20, 18, 17, 20, 19]
25.478[20, 24, 21, 18, 19, 18, 19, 20]
25.485[20, 22, 22, 19, 19, 19, 19, 21]
25.508[20, 23, 20, 20, 18, 19, 18, 21]
25.53[21, 22, 19, 21, 19, 19, 19, 22]
25.545[20, 20, 18, 19, 19, 18, 19, 20]
25.567[20, 19, 19, 22, 20, 19, 20, 20]
25.59[19, 19, 19, 19, 22, 18, 19, 21]
25.605[19, 18, 19, 19, 21, 17, 21, 21]
25.627[17, 19, 19, 20, 20, 18, 21, 19]
25.658[18, 18, 19, 21, 20, 18, 20, 20]
25.665[18, 22, 19, 19, 20, 18, 19, 19]
25.687[18, 22, 18, 20, 18, 18, 19, 18]
25.71[17, 22, 18, 19, 17, 18, 19, 19]
25.726[18, 21, 18, 18, 19, 17, 18, 19]
25.747[18, 21, 18, 19, 19, 17, 19, 18]
25.771[18, 18, 19, 20, 19, 17, 20, 18]
25.785[18, 17, 19, 20, 22, 16, 21, 18]
25.807[22, 17, 21, 20, 22, 18, 19, 18]
25.83[22, 18, 21, 21, 22, 17, 20, 18]
25.845[21, 19, 22, 18, 22, 18, 19, 18]
25.867[21, 18, 19, 19, 21, 17, 20, 20]
25.89[21, 18, 20, 20, 21, 18, 20, 20]
25.905[18, 20, 18, 19, 24, 17, 21, 20]
25.928[18, 21, 21, 21, 24, 18, 19, 20]
25.95[19, 19, 20, 21, 23, 19, 19, 20]
25.965[18, 20, 21, 20, 23, 21, 17, 18]
25.987[21, 22, 22, 20, 22, 20, 17, 17]
26.01[21, 24, 23, 20, 20, 20, 16, 17]
26.026[21, 22, 21, 19, 21, 19, 18, 17]
26.055[22, 23, 20, 18, 22, 18, 17, 19]
26.07[22, 23, 21, 19, 23, 15, 19, 18]
26.092[21, 22, 21, 19, 23, 17, 19, 19]
26.107[20, 19, 19, 21, 21, 18, 18, 19]
26.13[19, 23, 20, 20, 20, 18, 19, 20]
26.152[18, 23, 21, 20, 20, 19, 19, 18]
26.168[18, 23, 21, 21, 18, 20, 20, 21]
26.19[18, 22, 21, 19, 20, 19, 18, 20]
26.212[18, 21, 21, 20, 21, 18, 21, 21]
26.235[21, 18, 20, 20, 21, 19, 18, 21]
26.25[20, 17, 20, 21, 21, 17, 19, 21]
26.28[20, 18, 22, 18, 21, 20, 18, 20]
26.288[19, 19, 21, 19, 21, 20, 21, 19]
26.311[20, 21, 21, 18, 22, 20, 19, 21]
26.332[19, 19, 21, 17, 22, 22, 20, 19]
26.347[20, 20, 21, 17, 21, 22, 20, 21]
26.37[18, 20, 18, 19, 22, 20, 21, 21]
26.392[18, 21, 18, 18, 22, 25, 19, 21]
26.409[19, 20, 22, 19, 21, 24, 18, 20]
26.429[18, 21, 21, 18, 20, 21, 18, 20]
26.452[18, 20, 22, 20, 22, 23, 20, 20]
26.467[19, 20, 23, 19, 22, 22, 20, 19]
26.498[20, 19, 23, 19, 21, 17, 20, 19]
26.512[19, 20, 21, 20, 21, 17, 20, 20]
26.527[19, 20, 20, 22, 22, 17, 20, 19]
26.549[20, 19, 22, 21, 22, 15, 19, 18]
26.572[19, 20, 21, 21, 20, 15, 17, 20]
26.587[19, 20, 21, 22, 21, 15, 17, 20]
26.61[19, 20, 21, 20, 21, 15, 16, 18]
26.632[20, 19, 21, 21, 22, 16, 16, 20]
26.655[20, 22, 19, 23, 23, 16, 14, 20]
26.67[21, 21, 19, 23, 24, 15, 16, 19]
26.692[21, 21, 19, 24, 24, 15, 17, 18]
26.715[20, 22, 20, 23, 24, 16, 19, 19]
26.738[20, 22, 21, 21, 24, 16, 20, 17]
26.752[19, 20, 22, 19, 22, 17, 22, 17]
26.767[18, 20, 23, 20, 21, 18, 21, 18]
26.798[19, 20, 24, 19, 21, 19, 21, 18]
26.812[20, 18, 23, 18, 22, 20, 21, 18]
26.835[20, 18, 22, 19, 20, 21, 20, 17]
26.858[20, 18, 22, 20, 21, 20, 20, 17]
26.872[20, 17, 21, 21, 21, 18, 20, 14]
26.888[19, 17, 19, 20, 19, 20, 20, 15]
26.918[18, 19, 19, 21, 20, 22, 19, 18]
26.932[18, 19, 19, 20, 20, 21, 21, 18]
26.947[18, 20, 19, 21, 19, 20, 21, 18]
26.972[17, 21, 19, 19, 23, 23, 21, 18]
27.001[20, 23, 19, 23, 23, 22, 20, 19]
27.015[19, 21, 20, 24, 21, 19, 20, 18]
27.038[20, 21, 19, 25, 22, 20, 19, 17]
27.052[21, 21, 18, 24, 23, 23, 19, 17]
27.075[21, 23, 19, 26, 20, 21, 18, 17]
27.09[20, 22, 22, 22, 19, 21, 18, 18]
27.114[21, 22, 23, 22, 22, 22, 18, 17]
27.135[19, 22, 24, 21, 20, 22, 20, 18]
27.15[17, 22, 25, 21, 18, 20, 19, 17]
27.172[18, 20, 23, 19, 17, 22, 19, 18]
27.194[18, 18, 21, 20, 18, 20, 18, 16]
27.218[19, 23, 20, 20, 17, 20, 18, 17]
27.248[20, 24, 18, 20, 18, 18, 18, 18]
27.255[20, 23, 18, 19, 19, 18, 17, 20]
27.278[20, 23, 21, 20, 20, 18, 18, 22]
27.292[19, 23, 21, 18, 21, 19, 18, 21]
27.316[18, 19, 20, 17, 20, 19, 17, 23]
27.33[18, 18, 21, 19, 20, 20, 18, 22]
27.352[18, 19, 20, 21, 19, 20, 20, 21]
27.383[18, 18, 17, 22, 19, 20, 19, 19]
27.398[19, 21, 18, 22, 18, 19, 19, 20]
27.412[17, 21, 21, 23, 22, 19, 20, 18]
27.435[18, 20, 20, 21, 23, 20, 19, 18]
27.45[17, 21, 22, 20, 23, 21, 18, 17]
27.472[16, 21, 24, 19, 23, 19, 18, 18]
27.495[17, 19, 23, 21, 25, 18, 21, 17]
27.509[17, 17, 20, 20, 22, 21, 20, 18]
27.532[17, 20, 22, 22, 22, 18, 21, 19]
27.555[19, 18, 21, 22, 23, 17, 20, 20]
27.57[19, 21, 20, 23, 23, 17, 20, 18]
27.592[18, 22, 20, 21, 21, 18, 18, 17]
27.616[19, 24, 23, 21, 20, 14, 19, 18]
27.629[19, 22, 22, 21, 20, 16, 17, 17]
27.652[21, 23, 21, 21, 21, 18, 17, 16]
27.676[21, 21, 21, 21, 19, 18, 18, 17]
27.689[22, 21, 21, 21, 19, 18, 19, 18]
27.728[22, 22, 20, 21, 18, 18, 16, 18]
27.735[22, 21, 19, 18, 17, 20, 18, 18]
27.75[20, 21, 20, 19, 16, 18, 18, 19]
27.773[21, 20, 19, 16, 16, 19, 18, 20]
27.795[20, 21, 19, 17, 16, 19, 18, 20]
27.809[20, 17, 19, 17, 19, 19, 20, 20]
27.832[20, 20, 21, 16, 20, 16, 21, 21]
27.855[20, 20, 21, 16, 19, 19, 21, 20]
27.869[18, 19, 22, 17, 21, 18, 18, 22]
27.901[18, 20, 22, 18, 21, 18, 19, 22]
27.915[19, 21, 22, 19, 20, 19, 17, 20]
27.93[19, 19, 20, 20, 19, 19, 14, 22]
27.952[21, 19, 20, 20, 19, 18, 14, 22]
27.975[21, 19, 19, 21, 19, 18, 17, 20]
27.998[20, 19, 18, 20, 20, 21, 17, 19]
28.012[20, 17, 18, 19, 21, 20, 17, 20]
28.035[19, 20, 18, 18, 23, 21, 19, 17]
28.058[18, 21, 18, 18, 23, 22, 19, 20]
28.072[18, 20, 20, 17, 23, 23, 18, 20]
28.095[19, 21, 21, 18, 23, 21, 17, 22]
28.118[19, 22, 21, 19, 22, 21, 18, 20]
28.132[20, 19, 21, 20, 21, 20, 18, 21]
28.156[22, 19, 22, 21, 23, 19, 19, 17]
28.178[21, 19, 20, 21, 23, 17, 19, 17]
28.192[21, 19, 21, 21, 22, 16, 20, 17]
28.223[22, 19, 21, 22, 21, 18, 21, 16]
28.238[21, 20, 20, 21, 21, 17, 19, 16]
28.252[17, 20, 20, 19, 21, 18, 20, 16]
28.275[20, 22, 20, 19, 21, 18, 22, 17]
28.299[21, 21, 18, 20, 21, 18, 23, 16]
28.32[20, 20, 19, 19, 22, 19, 22, 19]
28.336[21, 21, 20, 20, 22, 20, 22, 20]
28.358[21, 20, 19, 20, 19, 19, 21, 20]
28.372[20, 18, 20, 22, 17, 19, 18, 20]
28.395[19, 21, 22, 21, 16, 20, 16, 20]
28.418[20, 20, 21, 19, 15, 18, 18, 20]
28.432[18, 18, 20, 19, 18, 17, 17, 20]
28.455[18, 18, 19, 20, 19, 19, 18, 19]
28.478[18, 18, 19, 20, 19, 20, 19, 19]
28.492[19, 16, 17, 19, 19, 18, 18, 20]
28.515[18, 18, 19, 19, 21, 20, 17, 18]
28.538[19, 19, 19, 18, 20, 20, 18, 18]
28.552[18, 19, 19, 18, 19, 20, 18, 18]
28.576[18, 21, 20, 17, 21, 20, 18, 19]
28.598[18, 21, 21, 17, 21, 20, 19, 18]
28.612[18, 21, 18, 19, 20, 18, 19, 17]
28.636[18, 20, 21, 20, 20, 19, 18, 19]
28.658[19, 20, 21, 20, 19, 18, 18, 18]
28.672[19, 18, 20, 19, 19, 18, 18, 19]
28.696[18, 19, 22, 21, 21, 18, 18, 18]
28.717[19, 18, 22, 19, 20, 20, 19, 18]
28.732[20, 17, 20, 18, 20, 18, 21, 19]
28.756[19, 16, 20, 20, 21, 18, 21, 23]
28.778[20, 17, 21, 21, 22, 20, 21, 22]
28.792[19, 16, 19, 21, 20, 20, 21, 21]
28.816[20, 18, 19, 21, 21, 19, 20, 22]
28.838[21, 18, 19, 22, 21, 21, 18, 22]
28.852[19, 20, 20, 22, 21, 21, 17, 18]
28.876[19, 19, 18, 22, 18, 19, 18, 17]
28.898[21, 22, 18, 22, 19, 18, 19, 18]
28.92[18, 22, 18, 22, 19, 19, 20, 18]
28.936[16, 24, 18, 23, 19, 17, 20, 18]
28.958[19, 25, 19, 23, 18, 19, 20, 19]
28.98[19, 25, 19, 23, 22, 20, 22, 20]
28.996[18, 23, 22, 22, 21, 20, 20, 21]
29.018[17, 21, 22, 23, 21, 21, 20, 21]
29.041[19, 20, 24, 21, 23, 21, 19, 20]
29.055[18, 19, 22, 19, 24, 20, 22, 20]
29.078[17, 18, 23, 20, 20, 20, 19, 18]
29.1[18, 18, 19, 20, 21, 20, 20, 20]
29.115[19, 21, 19, 21, 22, 20, 21, 20]
29.138[18, 20, 18, 21, 19, 19, 22, 20]
29.16[16, 20, 20, 22, 19, 19, 19, 19]
29.176[18, 21, 18, 21, 20, 20, 19, 21]
29.198[19, 20, 20, 20, 19, 20, 19, 19]
29.22[20, 18, 20, 18, 17, 19, 19, 19]
29.236[21, 20, 21, 20, 19, 20, 20, 20]
29.258[23, 21, 20, 19, 19, 21, 21, 19]
29.288[21, 21, 21, 20, 18, 20, 21, 18]
29.295[20, 21, 19, 21, 18, 20, 21, 24]
29.325[19, 20, 20, 19, 19, 20, 21, 24]
29.34[19, 19, 19, 18, 18, 21, 20, 25]
29.355[18, 19, 19, 19, 19, 21, 20, 25]
29.378[20, 19, 19, 21, 20, 21, 20, 27]
29.4[19, 18, 20, 21, 19, 21, 20, 22]
29.415[20, 18, 20, 22, 21, 22, 19, 22]
29.445[19, 18, 20, 23, 20, 18, 19, 22]
29.46[19, 19, 24, 32, 59, 31, 19, 22]
29.475[19, 20, 31, 47, 82, 37, 22, 26]
29.498[23, 22, 33, 48, 91, 46, 34, 29]
29.52[30, 25, 37, 65, 128, 105, 68, 49]
29.535[42, 27, 41, 83, 144, 147, 93, 79]
29.558[47, 47, 64, 93, 156, 181, 115, 89]
29.58[57, 50, 66, 119, 152, 214, 133, 119]
29.595[68, 55, 70, 140, 174, 303, 175, 157]
29.618[73, 58, 74, 148, 160, 361, 200, 168]
29.64[77, 61, 82, 158, 159, 416, 215, 190]
29.655[77, 55, 70, 163, 174, 520, 233, 195]
29.678[80, 61, 84, 152, 216, 604, 293, 213]
29.7[79, 73, 126, 158, 258, 660, 334, 252]
29.715[79, 75, 140, 156, 271, 655, 342, 278]
29.738[77, 80, 138, 219, 304, 679, 411, 305]
29.76[84, 85, 157, 258, 314, 605, 419, 310]
29.775[86, 81, 156, 275, 303, 542, 398, 310]
29.798[95, 69, 155, 290, 283, 459, 370, 293]
29.82[102, 75, 152, 368, 287, 493, 383, 300]
29.842[104, 70, 163, 368, 268, 472, 301, 259]
29.859[105, 63, 153, 360, 260, 501, 291, 262]
29.88[103, 102, 231, 379, 288, 524, 273, 254]
29.902[97, 106, 212, 374, 273, 516, 250, 226]
29.918[96, 103, 226, 299, 265, 457, 208, 205]
29.94[91, 105, 220, 267, 283, 435, 235, 216]
29.962[83, 108, 219, 252, 269, 411, 221, 205]
29.978[77, 82, 144, 230, 227, 344, 203, 191]
29.999[66, 78, 153, 274, 223, 330, 213, 197]
30.022[59, 90, 164, 295, 232, 404, 223, 177]
30.039[59, 90, 170, 282, 192, 386, 192, 156]
30.06[57, 90, 173, 279, 211, 371, 199, 160]
30.082[59, 81, 161, 272, 212, 378, 206, 155]
30.099[64, 83, 160, 218, 215, 380, 195, 139]
30.12[55, 69, 128, 206, 202, 287, 170, 118]
30.142[60, 68, 135, 271, 206, 244, 173, 119]
30.158[75, 61, 134, 272, 198, 246, 152, 118]
30.179[80, 59, 139, 285, 218, 233, 156, 126]
30.202[80, 63, 131, 278, 220, 218, 161, 138]
30.219[82, 67, 135, 265, 214, 225, 168, 152]
30.24[81, 69, 130, 205, 207, 226, 161, 152]
30.262[68, 68, 123, 192, 198, 233, 161, 145]
30.278[64, 69, 127, 143, 167, 232, 150, 143]
30.3[60, 64, 132, 161, 158, 244, 141, 136]
30.322[57, 54, 114, 157, 167, 234, 130, 126]
30.338[53, 49, 93, 148, 161, 238, 120, 126]
30.36[51, 50, 98, 171, 191, 216, 135, 128]
30.389[48, 48, 95, 177, 190, 245, 132, 118]
30.399[47, 48, 90, 176, 193, 236, 120, 109]
30.419[44, 49, 92, 185, 186, 240, 115, 106]
30.442[41, 45, 105, 190, 222, 228, 123, 101]
30.458[41, 50, 104, 169, 187, 227, 103, 95]
30.48[42, 49, 95, 170, 185, 190, 119, 103]
30.502[43, 49, 93, 152, 172, 151, 116, 97]
30.518[47, 54, 93, 145, 171, 155, 108, 92]
30.539[50, 55, 82, 149, 112, 155, 112, 109]
30.563[51, 48, 71, 154, 113, 153, 108, 103]
30.578[49, 55, 86, 150, 113, 186, 93, 90]
30.6[46, 55, 88, 147, 109, 199, 108, 96]
30.622[51, 51, 91, 144, 113, 196, 119, 102]
30.638[48, 55, 101, 150, 134, 205, 112, 91]
30.66[48, 56, 103, 149, 140, 201, 115, 97]
30.682[47, 51, 92, 143, 141, 169, 120, 106]
30.698[48, 49, 93, 152, 139, 160, 110, 104]
30.72[46, 52, 95, 145, 133, 147, 96, 98]
30.742[45, 46, 81, 115, 111, 123, 91, 86]
30.758[43, 50, 88, 113, 102, 139, 88, 77]
30.779[44, 49, 91, 108, 94, 139, 76, 65]
30.802[41, 48, 92, 97, 97, 132, 70, 61]
30.824[37, 44, 83, 119, 93, 130, 76, 70]
30.84[36, 46, 88, 120, 95, 127, 84, 76]
30.862[40, 44, 81, 117, 93, 111, 119, 105]
30.884[39, 52, 85, 130, 91, 125, 123, 105]
30.899[39, 53, 95, 133, 91, 125, 130, 109]
30.922[38, 52, 97, 106, 89, 138, 141, 109]
30.945[42, 61, 101, 126, 84, 150, 137, 109]
30.967[41, 60, 101, 120, 82, 147, 114, 101]
30.982[42, 52, 96, 103, 78, 146, 115, 102]
31.004[44, 50, 80, 94, 77, 142, 110, 99]
31.019[46, 52, 78, 99, 78, 127, 102, 97]
31.042[46, 40, 67, 72, 82, 132, 107, 120]
31.064[45, 39, 65, 71, 77, 134, 105, 111]
31.08[50, 46, 71, 72, 79, 152, 117, 117]
31.102[48, 48, 81, 92, 84, 166, 121, 116]
31.124[47, 47, 88, 90, 87, 179, 117, 114]
31.139[43, 45, 86, 90, 79, 169, 120, 87]
31.162[42, 54, 90, 96, 76, 169, 119, 80]
31.184[40, 53, 91, 121, 101, 159, 107, 73]
31.2[40, 52, 82, 109, 96, 170, 106, 74]
31.222[36, 49, 74, 115, 93, 155, 117, 73]
31.244[35, 49, 74, 114, 93, 155, 111, 73]
31.26[39, 40, 72, 109, 95, 147, 102, 79]
31.282[39, 36, 54, 77, 73, 150, 97, 70]
31.305[41, 37, 55, 79, 70, 132, 91, 66]
31.32[43, 46, 66, 73, 65, 143, 64, 59]
31.342[46, 48, 71, 78, 68, 149, 75, 78]
31.364[51, 50, 73, 99, 79, 165, 92, 89]
31.38[49, 53, 77, 99, 76, 147, 91, 93]
31.402[49, 53, 78, 155, 102, 147, 121, 104]
31.433[52, 50, 72, 164, 117, 154, 128, 106]
31.441[50, 56, 83, 168, 118, 149, 117, 93]
31.47[48, 55, 85, 165, 112, 145, 109, 81]
31.493[47, 53, 81, 168, 111, 148, 119, 81]
31.507[45, 57, 92, 119, 99, 141, 86, 71]
31.522[39, 57, 91, 114, 85, 145, 83, 78]
31.545[41, 50, 78, 110, 94, 144, 104, 87]
31.56[45, 53, 82, 107, 100, 136, 103, 89]
31.582[50, 52, 86, 115, 104, 155, 96, 96]
31.604[51, 47, 74, 118, 101, 164, 112, 97]
31.62[54, 44, 81, 126, 101, 145, 109, 97]
31.642[54, 50, 83, 124, 90, 151, 93, 94]
31.665[49, 50, 81, 123, 82, 146, 91, 98]
31.68[50, 48, 77, 118, 95, 128, 103, 112]
31.702[56, 50, 78, 121, 97, 126, 94, 119]
31.724[58, 57, 84, 108, 105, 126, 98, 121]
31.747[56, 58, 91, 110, 119, 114, 98, 117]
31.762[53, 53, 92, 103, 122, 127, 104, 111]
31.784[49, 60, 101, 97, 111, 119, 95, 96]
31.807[56, 62, 115, 90, 110, 181, 103, 106]
31.822[54, 56, 105, 87, 102, 183, 99, 101]
31.844[55, 51, 100, 87, 87, 210, 115, 116]
31.867[68, 73, 127, 91, 105, 214, 122, 125]
31.882[74, 70, 125, 103, 102, 214, 119, 125]
31.904[63, 73, 118, 102, 106, 164, 110, 108]
31.927[66, 77, 128, 113, 115, 166, 110, 107]
31.942[67, 79, 133, 124, 114, 135, 96, 101]
31.964[60, 66, 124, 142, 103, 151, 81, 91]
31.988[55, 65, 120, 152, 123, 160, 87, 93]
32.002[57, 58, 118, 149, 120, 174, 127, 115]
32.024[56, 59, 126, 152, 119, 189, 140, 118]
32.047[55, 55, 120, 148, 124, 188, 142, 120]
32.063[55, 57, 114, 131, 136, 170, 144, 126]
32.084[60, 59, 115, 113, 120, 156, 167, 128]
32.107[62, 60, 111, 111, 117, 142, 143, 110]
32.122[60, 57, 98, 95, 111, 126, 135, 105]
32.144[60, 57, 98, 87, 107, 163, 167, 119]
32.167[57, 53, 85, 87, 87, 159, 169, 114]
32.183[49, 59, 94, 96, 86, 174, 148, 108]
32.213[46, 64, 94, 114, 87, 184, 149, 106]
32.227[53, 63, 99, 122, 84, 180, 151, 115]
32.25[56, 71, 116, 121, 88, 153, 116, 96]
32.264[58, 69, 114, 121, 92, 174, 130, 94]
32.287[57, 68, 111, 120, 100, 191, 138, 89]
32.302[57, 64, 118, 110, 94, 174, 135, 94]
32.324[49, 62, 110, 102, 96, 194, 129, 91]
32.347[43, 51, 89, 102, 91, 189, 133, 93]
32.362[41, 47, 89, 102, 87, 182, 114, 90]
32.384[45, 44, 93, 103, 84, 178, 115, 105]
32.407[46, 46, 83, 103, 86, 211, 124, 105]
32.422[50, 52, 83, 114, 83, 197, 129, 111]
32.444[60, 58, 98, 124, 102, 196, 130, 102]
32.467[60, 63, 97, 132, 109, 195, 143, 106]
32.482[61, 66, 112, 135, 107, 174, 138, 105]
32.504[63, 69, 121, 147, 111, 148, 128, 102]
32.527[63, 84, 139, 212, 114, 202, 141, 90]
32.542[56, 85, 133, 213, 97, 207, 135, 91]
32.565[61, 82, 134, 220, 93, 202, 125, 91]
32.587[58, 85, 134, 216, 85, 201, 121, 79]
32.602[53, 82, 125, 208, 77, 197, 124, 85]
32.624[57, 69, 107, 141, 74, 190, 145, 98]
32.647[63, 72, 110, 146, 74, 199, 151, 98]
32.662[57, 70, 114, 147, 70, 204, 147, 94]
32.685[61, 58, 91, 153, 72, 206, 144, 95]
32.707[63, 61, 93, 158, 77, 216, 141, 95]
32.73[60, 56, 91, 160, 81, 186, 108, 85]
32.745[59, 45, 87, 154, 85, 173, 107, 97]
32.767[60, 52, 90, 178, 80, 176, 112, 97]
32.79[59, 61, 99, 198, 85, 183, 114, 100]
32.804[58, 58, 108, 199, 88, 167, 119, 105]
32.828[71, 67, 122, 217, 107, 165, 160, 156]
32.85[73, 72, 132, 227, 107, 187, 220, 220]
32.865[74, 79, 157, 215, 111, 178, 227, 232]
32.888[71, 77, 165, 243, 116, 203, 228, 237]
32.91[77, 78, 161, 250, 120, 215, 234, 252]
32.933[66, 71, 154, 243, 112, 203, 221, 236]
32.948[64, 69, 151, 254, 115, 187, 156, 174]
32.97[68, 69, 137, 237, 114, 286, 172, 163]
32.984[69, 74, 125, 247, 115, 287, 172, 158]
33.007[68, 74, 125, 240, 106, 281, 162, 132]
33.03[76, 78, 121, 242, 101, 313, 153, 133]
33.044[75, 84, 131, 231, 125, 327, 176, 145]
33.068[70, 74, 122, 245, 132, 253, 148, 144]
33.09[69, 78, 133, 236, 126, 254, 162, 148]
33.104[68, 75, 133, 229, 124, 262, 160, 145]
33.128[64, 79, 146, 227, 131, 242, 167, 142]
33.15[60, 74, 127, 225, 108, 230, 159, 139]
33.164[63, 92, 159, 216, 97, 265, 158, 140]
33.188[63, 81, 144, 168, 97, 238, 140, 125]
33.21[66, 88, 147, 175, 108, 230, 151, 147]
33.224[67, 82, 153, 170, 110, 242, 138, 147]
33.248[68, 91, 179, 154, 123, 282, 124, 135]
33.271[65, 78, 145, 153, 129, 247, 125, 140]
33.284[72, 87, 157, 151, 146, 265, 131, 170]
33.308[71, 83, 152, 151, 142, 289, 125, 167]
33.33[65, 93, 148, 190, 131, 281, 137, 160]
33.345[71, 84, 119, 195, 123, 251, 173, 182]
33.368[69, 86, 134, 192, 120, 244, 192, 187]
33.39[64, 84, 141, 196, 112, 272, 221, 174]
33.404[64, 86, 139, 206, 111, 289, 235, 162]
33.428[66, 75, 137, 166, 128, 280, 239, 196]
33.45[59, 78, 154, 185, 132, 288, 220, 189]
33.464[61, 75, 146, 182, 131, 300, 222, 177]
33.488[59, 70, 126, 198, 117, 257, 190, 168]
33.51[57, 73, 132, 211, 141, 218, 165, 163]
33.524[60, 81, 130, 222, 129, 224, 148, 116]
33.555[58, 90, 130, 207, 126, 220, 138, 92]
33.57[63, 109, 152, 257, 141, 218, 120, 137]
33.584[61, 110, 157, 246, 141, 227, 116, 137]
33.608[66, 120, 171, 265, 139, 269, 158, 148]
33.63[64, 117, 166, 266, 143, 263, 166, 152]
33.653[69, 110, 160, 270, 144, 245, 173, 159]
33.668[85, 91, 138, 246, 142, 266, 177, 143]
33.69[97, 96, 149, 250, 142, 269, 187, 149]
33.713[96, 80, 129, 211, 128, 226, 154, 138]
33.728[93, 74, 128, 198, 121, 239, 141, 130]
33.75[90, 72, 124, 190, 112, 231, 132, 127]
33.773[69, 70, 122, 190, 92, 193, 122, 109]
33.796[56, 63, 113, 180, 90, 183, 111, 98]
33.81[50, 75, 121, 252, 88, 173, 125, 103]
33.832[63, 82, 124, 264, 91, 169, 140, 119]
33.848[72, 82, 114, 280, 103, 183, 144, 126]
33.87[73, 83, 109, 269, 107, 181, 143, 118]
33.893[73, 80, 104, 272, 116, 193, 152, 120]
33.908[74, 66, 92, 217, 121, 217, 147, 111]
33.93[67, 55, 83, 201, 119, 208, 135, 103]
33.953[64, 49, 81, 186, 118, 211, 137, 97]
33.968[68, 46, 83, 169, 117, 217, 148, 106]
33.99[66, 55, 86, 168, 117, 205, 138, 106]
34.013[63, 55, 81, 141, 104, 176, 135, 110]
34.028[57, 53, 84, 136, 99, 187, 128, 107]
34.051[47, 51, 89, 114, 85, 172, 120, 98]
34.073[36, 47, 86, 114, 91, 171, 121, 120]
34.088[36, 44, 89, 101, 83, 186, 120, 119]
34.11[36, 45, 89, 115, 87, 187, 112, 114]
34.133[38, 47, 87, 118, 99, 161, 110, 115]
34.147[41, 49, 85, 111, 95, 168, 105, 121]
34.17[43, 55, 99, 118, 98, 180, 127, 94]
34.193[41, 49, 83, 115, 99, 170, 122, 87]
34.207[50, 58, 98, 105, 104, 168, 139, 104]
34.238[49, 56, 95, 102, 101, 163, 138, 96]
34.26[46, 57, 97, 103, 102, 178, 143, 88]
34.275[44, 51, 78, 99, 89, 153, 97, 82]
34.298[46, 59, 117, 98, 86, 162, 109, 90]
34.313[37, 47, 108, 99, 87, 158, 90, 71]
34.336[36, 49, 109, 98, 74, 158, 96, 74]
34.35[43, 50, 109, 111, 86, 152, 93, 103]
34.373[45, 52, 112, 107, 90, 151, 89, 103]
34.387[44, 51, 81, 116, 96, 153, 81, 99]
34.41[44, 52, 76, 113, 82, 147, 76, 97]
34.433[55, 53, 77, 112, 94, 170, 88, 101]
34.447[50, 54, 81, 105, 86, 150, 89, 66]
34.47[48, 55, 80, 110, 83, 153, 90, 68]
34.493[51, 51, 73, 102, 71, 126, 104, 65]
34.515[55, 55, 80, 101, 81, 138, 112, 68]
34.53[45, 53, 87, 97, 71, 111, 100, 60]
34.553[44, 50, 79, 111, 63, 110, 100, 59]
34.567[47, 53, 90, 104, 64, 101, 103, 60]
34.59[42, 49, 89, 111, 77, 144, 88, 68]
34.613[45, 47, 89, 117, 74, 160, 101, 79]
34.636[46, 46, 78, 118, 76, 159, 99, 75]
34.65[47, 47, 83, 108, 81, 161, 102, 89]
34.673[49, 43, 71, 127, 87, 158, 106, 100]
34.695[58, 48, 79, 126, 75, 153, 119, 107]
34.71[52, 46, 75, 122, 77, 129, 103, 111]
34.733[53, 47, 82, 127, 97, 148, 114, 123]
34.755[53, 48, 78, 134, 101, 153, 118, 120]
34.77[48, 46, 82, 119, 101, 171, 127, 116]
34.793[37, 44, 75, 108, 107, 152, 113, 106]
34.815[40, 54, 84, 122, 101, 155, 125, 101]
34.831[39, 51, 79, 116, 76, 134, 117, 88]
34.852[36, 51, 87, 95, 66, 138, 108, 92]
34.874[37, 49, 81, 98, 65, 121, 91, 82]
34.891[41, 45, 76, 97, 65, 112, 102, 82]
34.92[40, 38, 68, 101, 70, 105, 91, 74]
34.934[41, 39, 73, 109, 76, 117, 99, 78]
34.958[42, 40, 65, 114, 75, 116, 105, 65]
34.972[45, 44, 65, 111, 81, 121, 104, 73]
34.994[46, 47, 72, 114, 78, 131, 95, 82]
35.011[45, 42, 68, 95, 75, 156, 122, 89]
35.032[50, 47, 63, 82, 77, 160, 121, 95]
35.062[50, 46, 67, 81, 81, 156, 115, 99]
35.071[49, 44, 70, 93, 81, 155, 115, 95]
35.093[46, 43, 76, 89, 78, 155, 136, 98]
35.114[45, 46, 82, 88, 79, 129, 113, 95]
35.131[41, 41, 82, 89, 74, 120, 138, 125]
35.152[42, 41, 79, 111, 82, 135, 139, 126]
35.175[40, 43, 85, 110, 81, 136, 146, 128]
35.191[43, 46, 84, 119, 91, 146, 130, 124]
35.212[40, 43, 82, 122, 101, 181, 128, 124]
35.236[36, 43, 83, 123, 103, 183, 94, 85]
35.251[37, 46, 85, 110, 95, 169, 96, 84]
35.272[37, 44, 77, 101, 94, 181, 97, 91]
35.294[32, 44, 67, 95, 81, 177, 89, 87]
35.311[37, 49, 65, 92, 74, 165, 91, 99]
35.332[38, 48, 61, 94, 68, 162, 110, 110]
35.355[36, 44, 53, 87, 69, 167, 113, 118]
35.371[35, 43, 55, 93, 69, 158, 110, 109]
35.392[36, 40, 62, 91, 80, 157, 116, 112]
35.431[33, 34, 61, 90, 76, 145, 123, 102]
35.433[31, 36, 63, 91, 81, 144, 107, 93]
35.452[32, 35, 63, 97, 83, 158, 102, 79]
35.475[34, 34, 67, 110, 82, 153, 96, 82]
35.491[36, 33, 63, 118, 84, 136, 99, 84]
35.512[34, 36, 75, 118, 86, 153, 110, 110]
35.534[38, 35, 78, 117, 80, 156, 112, 114]
35.557[38, 37, 78, 109, 76, 154, 116, 116]
35.572[35, 36, 76, 95, 69, 156, 132, 119]
35.594[40, 41, 85, 92, 66, 168, 130, 122]
35.617[42, 40, 84, 104, 66, 140, 128, 103]
35.632[43, 40, 86, 112, 69, 140, 131, 101]
35.654[44, 37, 86, 121, 70, 122, 142, 117]
35.677[45, 39, 89, 121, 69, 112, 159, 120]
35.692[38, 34, 80, 113, 58, 98, 159, 112]
35.714[38, 34, 71, 99, 55, 113, 146, 114]
35.737[31, 31, 66, 85, 53, 110, 141, 114]
35.752[32, 34, 74, 78, 53, 110, 125, 95]
35.774[34, 37, 74, 68, 58, 110, 89, 92]
35.797[38, 40, 82, 68, 69, 118, 96, 104]
35.812[40, 41, 82, 70, 65, 103, 94, 107]
35.836[45, 46, 87, 77, 68, 131, 102, 109]
35.857[44, 45, 81, 70, 65, 146, 106, 114]
35.872[45, 43, 77, 73, 64, 154, 114, 109]
35.895[43, 44, 71, 83, 60, 151, 107, 101]
35.917[40, 41, 69, 86, 61, 149, 103, 85]
35.94[41, 42, 61, 89, 63, 157, 104, 78]
35.955[41, 42, 61, 92, 67, 142, 97, 66]
35.977[40, 40, 62, 95, 67, 145, 80, 70]
36.0[38, 35, 57, 89, 63, 141, 68, 65]
36.014[37, 35, 56, 87, 62, 142, 67, 63]
36.037[32, 33, 56, 83, 72, 157, 83, 70]
36.052[33, 31, 55, 84, 71, 161, 83, 68]
36.074[30, 29, 48, 81, 68, 151, 81, 60]
36.097[36, 30, 59, 78, 69, 155, 113, 67]
36.113[36, 29, 58, 76, 69, 159, 114, 74]
36.134[48, 34, 68, 96, 51, 134, 110, 90]
36.157[51, 36, 71, 96, 56, 174, 124, 96]
36.172[52, 38, 80, 96, 57, 177, 131, 99]
36.202[50, 41, 76, 98, 59, 179, 118, 100]
36.217[52, 48, 85, 110, 72, 181, 121, 101]
36.232[43, 44, 75, 88, 82, 172, 123, 94]
36.254[39, 46, 72, 83, 77, 126, 112, 99]
36.277[38, 45, 68, 99, 78, 122, 107, 99]
36.292[39, 43, 70, 111, 77, 127, 96, 94]
36.314[41, 37, 63, 116, 84, 124, 95, 91]
36.337[44, 37, 69, 119, 75, 130, 76, 77]
36.352[45, 38, 84, 127, 74, 132, 88, 72]
36.374[46, 39, 84, 114, 72, 142, 89, 75]
36.397[46, 38, 81, 96, 73, 134, 90, 74]
36.412[46, 42, 80, 87, 61, 178, 98, 75]
36.434[40, 40, 74, 86, 65, 171, 104, 75]
36.457[39, 38, 64, 78, 69, 180, 93, 66]
36.48[37, 36, 60, 84, 72, 190, 96, 65]
36.495[36, 38, 59, 103, 72, 197, 119, 75]
36.517[36, 33, 59, 94, 66, 159, 115, 76]
36.54[37, 37, 70, 98, 60, 153, 113, 79]
36.555[40, 40, 80, 117, 60, 141, 119, 78]
36.578[41, 41, 81, 120, 61, 118, 124, 79]
36.599[40, 40, 81, 106, 57, 120, 102, 68]
36.615[37, 41, 80, 106, 54, 128, 102, 64]
36.637[35, 37, 73, 98, 52, 121, 107, 59]
36.66[37, 39, 71, 96, 57, 141, 105, 71]
36.675[42, 41, 79, 89, 55, 140, 105, 98]
36.697[43, 44, 90, 106, 58, 132, 115, 102]
36.72[48, 44, 91, 111, 60, 128, 120, 109]
36.735[52, 48, 98, 130, 63, 136, 130, 143]
36.757[52, 46, 95, 117, 59, 152, 127, 145]
36.779[49, 48, 96, 123, 63, 169, 121, 126]
36.795[48, 44, 86, 110, 66, 167, 110, 124]
36.817[43, 42, 83, 104, 62, 161, 98, 115]
36.84[37, 39, 78, 88, 59, 152, 70, 65]
36.856[36, 42, 92, 101, 59, 149, 111, 80]
36.877[42, 42, 93, 99, 65, 164, 127, 95]
36.899[42, 45, 95, 102, 84, 182, 151, 105]
36.915[51, 49, 103, 114, 88, 199, 155, 107]
36.937[55, 54, 102, 132, 96, 225, 160, 108]
36.959[52, 48, 84, 117, 95, 205, 144, 90]
36.974[49, 50, 86, 131, 105, 204, 137, 94]
36.997[54, 57, 92, 133, 95, 218, 118, 95]
37.019[47, 61, 108, 141, 107, 223, 115, 93]
37.035[47, 62, 118, 127, 102, 208, 123, 98]
37.057[45, 65, 122, 127, 107, 216, 110, 101]
37.08[46, 62, 120, 116, 96, 209, 106, 107]
37.094[49, 62, 123, 126, 103, 185, 105, 97]
37.117[53, 58, 112, 113, 96, 191, 110, 103]
37.14[57, 57, 102, 115, 104, 209, 112, 121]
37.156[60, 54, 103, 131, 101, 206, 123, 131]
37.177[59, 54, 99, 135, 97, 199, 130, 120]
37.199[55, 53, 90, 141, 102, 203, 125, 126]
37.214[54, 53, 83, 153, 112, 203, 129, 147]
37.237[53, 58, 89, 145, 102, 182, 117, 138]
37.259[52, 62, 79, 160, 103, 194, 109, 125]
37.274[53, 61, 77, 169, 118, 233, 111, 131]
37.297[56, 58, 79, 168, 110, 228, 118, 132]
37.319[56, 61, 86, 197, 105, 231, 118, 108]
37.334[53, 53, 86, 223, 125, 231, 119, 109]
37.357[55, 48, 93, 206, 133, 226, 119, 116]
37.379[57, 51, 95, 201, 121, 181, 104, 113]
37.394[62, 61, 107, 194, 124, 190, 103, 123]
37.417[61, 57, 100, 153, 122, 166, 103, 125]
37.44[60, 58, 92, 124, 106, 179, 97, 119]
37.463[57, 65, 100, 126, 100, 183, 113, 117]
37.477[55, 62, 96, 115, 100, 185, 109, 105]
37.5[50, 55, 87, 108, 86, 179, 101, 96]
37.523[64, 55, 94, 121, 85, 180, 120, 107]
37.537[67, 58, 97, 110, 86, 183, 123, 116]
37.559[67, 50, 82, 106, 87, 196, 110, 118]
37.583[68, 51, 83, 112, 89, 188, 117, 129]
37.597[78, 48, 75, 119, 92, 183, 130, 138]
37.62[67, 48, 65, 109, 84, 209, 102, 126]
37.643[64, 50, 71, 129, 77, 210, 108, 122]
37.657[65, 53, 77, 142, 65, 181, 109, 120]
37.679[62, 53, 78, 138, 66, 203, 106, 120]
37.71[46, 50, 82, 141, 94, 249, 113, 108]
37.717[47, 50, 80, 140, 95, 234, 122, 118]
37.739[51, 47, 76, 125, 98, 239, 127, 124]
37.763[51, 58, 82, 114, 102, 243, 132, 124]
37.777[53, 60, 81, 147, 101, 231, 132, 114]
37.799[59, 62, 78, 152, 86, 192, 114, 106]
37.822[57, 62, 83, 148, 87, 176, 118, 93]
37.837[55, 60, 81, 170, 87, 151, 114, 86]
37.859[55, 57, 93, 179, 90, 169, 112, 88]
37.882[59, 53, 96, 167, 94, 189, 116, 98]
37.897[54, 51, 95, 154, 86, 189, 116, 109]
37.92[54, 55, 98, 179, 83, 198, 101, 108]
37.943[52, 54, 97, 156, 82, 201, 118, 112]
37.957[51, 46, 87, 148, 74, 211, 121, 117]
37.979[48, 46, 81, 138, 67, 185, 131, 123]
38.003[50, 51, 85, 154, 82, 188, 148, 136]
38.017[54, 47, 83, 133, 97, 212, 168, 148]
38.048[54, 48, 84, 131, 102, 229, 159, 143]
38.063[53, 51, 80, 131, 106, 230, 151, 141]
38.077[61, 59, 93, 132, 114, 254, 157, 145]
38.1[61, 55, 93, 113, 104, 247, 145, 127]
38.122[59, 61, 93, 124, 92, 221, 135, 115]
38.137[58, 63, 96, 140, 90, 204, 143, 125]
38.159[58, 60, 97, 163, 87, 174, 143, 117]
38.183[47, 57, 92, 159, 75, 142, 133, 102]
38.197[46, 58, 89, 160, 83, 140, 144, 114]
38.22[45, 48, 81, 160, 84, 142, 143, 131]
38.242[52, 51, 76, 159, 84, 132, 140, 138]
38.266[53, 57, 68, 133, 84, 135, 145, 143]
38.279[54, 52, 62, 142, 91, 158, 151, 150]
38.302[54, 55, 66, 165, 87, 182, 169, 146]
38.317[58, 55, 74, 162, 85, 181, 170, 139]
38.339[53, 55, 89, 163, 79, 221, 162, 125]
38.363[54, 67, 108, 192, 83, 265, 192, 148]
38.385[51, 66, 116, 201, 75, 273, 211, 157]
38.4[48, 68, 132, 199, 70, 278, 193, 153]
38.43[43, 67, 132, 204, 76, 294, 203, 148]
38.445[46, 64, 124, 196, 85, 268, 217, 147]
38.46[50, 48, 108, 170, 90, 267, 189, 129]
38.483[49, 52, 105, 171, 98, 265, 163, 117]
38.505[52, 56, 85, 165, 101, 257, 176, 132]
38.52[56, 60, 91, 166, 104, 269, 168, 137]
38.543[53, 62, 100, 175, 110, 279, 173, 141]
38.565[49, 60, 101, 176, 106, 254, 183, 147]
38.581[50, 57, 104, 163, 106, 238, 187, 144]
38.603[48, 61, 113, 158, 110, 218, 170, 130]
38.625[48, 59, 107, 138, 104, 201, 178, 132]
38.64[52, 59, 102, 127, 103, 213, 167, 134]
38.663[57, 61, 105, 133, 101, 202, 166, 142]
38.685[55, 60, 93, 123, 95, 194, 163, 149]
38.7[56, 48, 85, 142, 96, 209, 164, 147]
38.723[57, 54, 94, 171, 104, 194, 147, 153]
38.745[56, 51, 91, 182, 89, 164, 147, 144]
38.76[58, 53, 100, 182, 94, 159, 128, 125]
38.783[63, 63, 111, 209, 99, 173, 154, 130]
38.805[63, 65, 113, 213, 104, 166, 155, 134]
38.82[62, 62, 109, 200, 101, 171, 149, 127]
38.843[60, 68, 113, 219, 115, 221, 155, 137]
38.865[52, 67, 104, 218, 129, 259, 164, 139]
38.88[46, 57, 91, 198, 125, 256, 131, 122]
38.902[48, 55, 88, 180, 113, 259, 183, 150]
38.926[44, 56, 88, 171, 111, 245, 187, 143]
38.94[46, 47, 79, 135, 98, 224, 179, 143]
38.97[48, 49, 85, 139, 79, 198, 179, 139]
38.985[47, 50, 89, 139, 81, 201, 187, 146]
39.008[42, 51, 82, 151, 101, 213, 135, 119]
39.023[43, 49, 82, 157, 109, 268, 142, 124]
39.045[41, 51, 100, 166, 117, 252, 153, 126]
39.06[39, 45, 90, 152, 114, 248, 153, 122]
39.082[48, 51, 98, 150, 113, 255, 142, 115]
39.105[52, 52, 98, 137, 101, 240, 145, 112]
39.12[58, 51, 102, 148, 90, 197, 135, 113]
39.143[58, 52, 95, 138, 84, 188, 118, 104]
39.165[56, 54, 96, 141, 76, 189, 115, 123]
39.18[49, 49, 89, 130, 75, 170, 116, 119]
39.203[54, 52, 97, 140, 72, 178, 142, 144]
39.225[45, 55, 115, 168, 69, 162, 144, 143]
39.239[48, 55, 114, 164, 71, 197, 143, 146]
39.263[51, 53, 118, 165, 87, 196, 151, 136]
39.285[52, 54, 123, 174, 87, 191, 150, 150]
39.315[42, 49, 118, 159, 90, 195, 121, 132]
39.323[44, 44, 102, 118, 99, 206, 163, 160]
39.353[39, 40, 96, 124, 96, 181, 164, 154]
39.368[40, 50, 99, 127, 87, 164, 158, 158]
39.384[38, 50, 94, 133, 87, 167, 158, 143]
39.405[43, 55, 107, 132, 84, 158, 175, 149]
39.428[43, 54, 97, 125, 85, 197, 130, 128]
39.443[48, 57, 99, 132, 104, 192, 164, 145]
39.465[46, 52, 93, 130, 103, 194, 179, 143]
39.488[46, 49, 91, 124, 108, 207, 183, 152]
39.503[48, 45, 78, 121, 111, 218, 181, 155]
39.525[53, 45, 81, 114, 104, 181, 185, 153]
39.548[52, 41, 77, 117, 83, 185, 156, 143]
39.57[53, 41, 73, 112, 83, 179, 133, 137]
39.585[54, 37, 65, 102, 89, 172, 140, 132]
39.608[54, 34, 61, 116, 93, 154, 126, 118]
39.623[47, 33, 55, 119, 98, 162, 124, 111]
39.645[45, 35, 59, 104, 101, 203, 145, 109]
39.668[45, 37, 55, 97, 105, 223, 154, 117]
39.683[44, 40, 69, 90, 95, 228, 139, 110]
39.705[36, 40, 80, 100, 83, 217, 136, 104]
39.727[34, 42, 81, 100, 71, 202, 128, 91]
39.743[47, 37, 74, 100, 79, 150, 107, 122]
39.765[45, 32, 75, 100, 94, 189, 92, 115]
39.788[44, 28, 63, 108, 97, 181, 89, 116]
39.802[52, 33, 51, 105, 120, 194, 97, 156]
39.825[67, 31, 45, 113, 132, 219, 132, 264]
39.847[64, 47, 91, 244, 163, 220, 182, 281]
39.869[70, 53, 104, 313, 200, 170, 211, 294]
39.886[73, 63, 124, 396, 231, 165, 220, 297]
39.907[71, 72, 142, 452, 237, 164, 228, 279]
39.923[57, 75, 147, 473, 238, 121, 213, 181]
39.946[53, 73, 136, 485, 245, 115, 164, 123]
39.967[46, 74, 135, 479, 229, 105, 124, 85]
39.983[42, 68, 119, 419, 198, 97, 107, 74]
40.006[36, 56, 95, 369, 185, 75, 75, 65]
40.027[37, 52, 89, 340, 176, 73, 65, 61]
40.049[32, 42, 68, 240, 126, 69, 60, 56]
40.066[23, 29, 48, 160, 78, 52, 47, 52]
40.087[21, 25, 41, 135, 67, 42, 42, 36]
40.117[20, 24, 33, 73, 37, 29, 30, 27]
40.126[17, 23, 26, 57, 33, 24, 22, 24]
40.154[17, 24, 26, 40, 29, 24, 21, 20]
40.169[18, 22, 22, 34, 26, 22, 23, 18]
40.186[19, 22, 23, 28, 22, 22, 24, 19]
40.208[18, 20, 20, 22, 22, 20, 23, 19]
40.229[20, 20, 21, 21, 21, 21, 21, 20]
40.246[21, 22, 20, 19, 20, 22, 22, 19]
40.267[20, 22, 21, 20, 18, 22, 20, 20]
40.289[21, 23, 22, 19, 20, 20, 18, 21]
40.304[22, 25, 20, 21, 17, 22, 19, 21]
40.327[20, 26, 20, 20, 17, 21, 18, 20]
40.351[20, 23, 20, 20, 17, 20, 17, 19]
40.364[20, 24, 20, 19, 20, 20, 18, 20]
40.387[18, 24, 18, 21, 19, 22, 17, 17]
40.409[19, 22, 19, 20, 19, 20, 19, 16]
40.424[21, 19, 18, 21, 20, 20, 19, 16]
40.447[21, 21, 19, 21, 19, 22, 19, 16]
40.469[22, 21, 19, 22, 16, 21, 22, 18]
40.484[22, 21, 20, 23, 16, 20, 20, 19]
40.507[22, 22, 23, 22, 19, 20, 19, 19]
40.529[22, 24, 23, 23, 17, 21, 19, 19]
40.544[20, 22, 24, 22, 18, 19, 19, 19]
40.567[21, 22, 23, 21, 20, 19, 17, 17]
40.59[21, 20, 24, 20, 21, 18, 18, 16]
40.604[20, 20, 23, 19, 19, 18, 21, 18]
40.627[19, 19, 22, 18, 20, 16, 20, 18]
40.658[22, 19, 20, 20, 19, 17, 19, 19]
40.664[20, 18, 21, 21, 18, 17, 19, 19]
40.687[21, 20, 19, 22, 18, 19, 19, 19]
40.709[20, 20, 18, 23, 21, 20, 17, 20]
40.724[19, 20, 16, 23, 19, 21, 18, 19]
40.747[15, 20, 20, 22, 20, 21, 18, 18]
40.77[16, 21, 20, 22, 21, 22, 19, 18]
40.784[14, 18, 21, 22, 20, 22, 18, 18]
40.807[14, 20, 20, 22, 19, 22, 19, 17]
40.829[16, 19, 22, 22, 19, 22, 19, 17]
40.852[18, 19, 19, 22, 20, 20, 19, 17]
40.867[20, 19, 20, 22, 19, 21, 18, 18]
40.89[21, 20, 18, 21, 20, 20, 18, 17]
40.904[22, 18, 19, 21, 18, 19, 17, 18]
40.927[22, 19, 20, 21, 21, 19, 17, 19]
40.949[22, 20, 21, 20, 21, 20, 16, 20]
40.964[20, 21, 21, 22, 24, 20, 17, 20]
40.987[19, 19, 21, 20, 24, 21, 17, 19]
41.009[18, 20, 22, 22, 24, 22, 19, 18]
41.024[18, 22, 22, 21, 23, 21, 17, 20]
41.047[18, 22, 22, 23, 22, 22, 19, 18]
41.069[18, 21, 21, 23, 21, 21, 18, 19]
41.092[19, 21, 22, 23, 22, 20, 19, 20]
41.108[19, 22, 22, 23, 22, 21, 19, 20]
41.129[18, 19, 19, 24, 22, 22, 19, 18]
41.144[18, 19, 19, 22, 22, 22, 19, 17]
41.167[18, 21, 20, 22, 19, 21, 18, 16]
41.189[17, 22, 19, 21, 21, 21, 18, 17]
41.212[19, 21, 19, 20, 20, 18, 17, 18]
41.227[19, 22, 20, 20, 20, 17, 18, 19]
41.25[19, 21, 22, 22, 20, 19, 17, 20]
41.272[17, 20, 22, 21, 21, 20, 18, 19]
41.287[17, 18, 20, 22, 18, 19, 17, 20]
41.309[17, 19, 21, 22, 19, 21, 19, 19]
41.332[16, 18, 22, 20, 18, 20, 19, 19]
41.347[17, 20, 19, 20, 18, 19, 20, 19]
41.369[17, 20, 21, 20, 20, 18, 20, 19]
41.392[17, 21, 23, 21, 19, 19, 20, 18]
41.407[16, 20, 22, 21, 18, 19, 19, 18]
41.429[17, 20, 21, 22, 19, 19, 18, 18]
41.451[15, 18, 22, 21, 18, 19, 17, 16]
41.466[16, 17, 20, 24, 17, 19, 16, 18]
41.489[16, 20, 20, 24, 17, 19, 17, 19]
41.512[16, 19, 19, 23, 17, 18, 18, 18]
41.527[18, 21, 19, 23, 17, 19, 17, 18]
41.549[18, 23, 19, 23, 17, 19, 18, 17]
41.572[17, 23, 20, 22, 17, 20, 21, 17]
41.587[18, 21, 19, 19, 15, 19, 19, 19]
41.609[19, 22, 21, 19, 18, 19, 19, 19]
41.632[19, 21, 21, 18, 20, 20, 19, 18]
41.647[18, 21, 20, 19, 20, 20, 19, 19]
41.669[19, 21, 21, 15, 19, 18, 16, 21]
41.692[20, 21, 21, 16, 21, 19, 18, 18]
41.707[19, 21, 20, 16, 20, 19, 19, 19]
41.729[20, 20, 23, 19, 18, 17, 21, 20]
41.752[20, 21, 23, 20, 19, 17, 22, 20]
41.767[20, 20, 21, 20, 21, 19, 23, 19]
41.789[20, 20, 20, 21, 19, 18, 22, 19]
41.812[19, 21, 20, 22, 20, 21, 22, 18]
41.827[17, 21, 17, 20, 20, 23, 19, 19]
41.849[16, 20, 18, 20, 19, 23, 19, 19]
41.872[15, 21, 19, 23, 20, 22, 19, 19]
41.887[16, 20, 20, 23, 21, 24, 19, 19]
41.91[18, 19, 20, 22, 20, 22, 20, 19]
41.932[17, 18, 22, 23, 21, 19, 22, 18]
41.947[19, 18, 21, 22, 23, 20, 20, 20]
41.969[19, 20, 21, 20, 21, 21, 21, 19]
41.992[17, 22, 21, 19, 20, 19, 20, 18]
42.007[15, 23, 22, 22, 19, 18, 18, 19]
42.029[17, 24, 21, 21, 18, 20, 17, 19]
42.052[16, 24, 21, 22, 18, 19, 18, 20]
42.069[17, 22, 21, 22, 18, 19, 20, 20]
42.089[20, 21, 21, 22, 18, 18, 19, 21]
42.112[20, 20, 21, 20, 19, 20, 20, 22]
42.127[19, 20, 21, 19, 23, 18, 22, 22]
42.149[20, 20, 20, 19, 21, 20, 22, 19]
42.172[23, 21, 18, 21, 21, 20, 22, 20]
42.195[21, 21, 17, 22, 22, 20, 22, 18]
42.209[20, 21, 17, 23, 22, 19, 21, 18]
42.232[20, 21, 18, 25, 21, 20, 19, 17]
42.255[19, 23, 19, 25, 21, 18, 20, 18]
42.269[16, 23, 21, 23, 21, 17, 18, 18]
42.292[16, 24, 20, 22, 19, 18, 19, 20]
42.316[18, 22, 19, 21, 20, 19, 18, 21]
42.329[17, 23, 19, 21, 18, 19, 18, 21]
42.36[18, 21, 19, 20, 19, 19, 18, 20]
42.375[19, 22, 19, 21, 19, 20, 18, 21]
42.389[20, 19, 19, 22, 19, 18, 17, 19]
42.412[18, 21, 22, 22, 20, 19, 20, 17]
42.435[20, 18, 22, 21, 21, 18, 21, 19]
42.449[21, 20, 23, 24, 20, 17, 20, 19]
42.472[19, 19, 23, 22, 20, 17, 21, 18]
42.495[20, 19, 23, 22, 20, 20, 22, 17]
42.509[20, 19, 21, 23, 19, 19, 21, 19]
42.532[20, 21, 21, 22, 19, 21, 21, 18]
42.555[19, 20, 20, 20, 18, 23, 20, 19]
42.569[19, 20, 19, 24, 18, 23, 20, 18]
42.592[19, 22, 21, 23, 19, 21, 19, 20]
42.615[19, 22, 21, 24, 18, 21, 19, 19]
42.629[17, 22, 21, 23, 17, 19, 20, 19]
42.652[18, 23, 21, 21, 20, 18, 19, 19]
42.675[19, 21, 21, 19, 19, 17, 18, 20]
42.689[19, 19, 19, 19, 19, 17, 20, 18]
42.712[17, 18, 19, 16, 19, 16, 20, 18]
42.735[17, 19, 18, 20, 19, 17, 21, 18]
42.749[17, 20, 17, 20, 17, 17, 22, 18]
42.772[15, 23, 19, 19, 18, 17, 22, 17]
42.795[16, 24, 20, 18, 18, 18, 21, 19]
42.809[16, 24, 21, 20, 17, 17, 18, 19]
42.832[16, 23, 20, 18, 18, 18, 19, 20]
42.855[16, 22, 21, 19, 17, 17, 19, 20]
42.869[18, 20, 19, 20, 17, 18, 19, 22]
42.9[16, 20, 19, 18, 17, 18, 21, 22]
42.916[17, 21, 18, 20, 18, 18, 21, 21]
42.929[17, 21, 19, 21, 18, 17, 19, 20]
42.952[17, 19, 21, 20, 19, 18, 18, 22]
42.975[16, 21, 21, 20, 21, 16, 19, 21]
42.989[17, 22, 20, 24, 22, 17, 18, 20]
43.012[17, 22, 19, 22, 25, 17, 19, 21]
43.035[18, 22, 17, 21, 26, 18, 19, 22]
43.049[19, 23, 16, 22, 25, 17, 20, 20]
43.072[19, 22, 15, 22, 24, 18, 18, 20]
43.095[20, 21, 15, 20, 23, 16, 17, 19]
43.118[20, 19, 17, 20, 19, 16, 16, 18]
43.14[19, 22, 21, 21, 19, 16, 17, 18]
43.155[19, 21, 20, 19, 19, 18, 17, 19]
43.177[18, 22, 22, 20, 19, 17, 19, 20]
43.192[16, 22, 23, 18, 21, 18, 19, 19]
43.215[15, 22, 22, 18, 22, 21, 19, 19]
43.238[15, 20, 20, 18, 22, 22, 20, 18]
43.252[16, 19, 20, 20, 22, 21, 21, 17]
43.275[16, 20, 19, 19, 23, 21, 19, 16]
43.297[18, 21, 17, 20, 21, 20, 18, 19]
43.312[18, 21, 19, 21, 20, 20, 18, 19]
43.335[20, 22, 18, 20, 21, 18, 20, 19]
43.357[20, 22, 19, 20, 21, 19, 17, 19]
43.372[19, 21, 21, 21, 20, 19, 19, 19]
43.395[19, 19, 21, 22, 22, 20, 21, 17]
43.418[19, 20, 20, 21, 22, 18, 23, 18]
43.432[18, 18, 21, 20, 22, 17, 20, 18]
43.455[17, 21, 21, 21, 23, 18, 21, 18]
43.477[17, 22, 20, 20, 22, 18, 19, 20]
43.492[17, 22, 22, 19, 22, 18, 20, 19]
43.515[18, 22, 23, 20, 22, 18, 17, 18]
43.538[18, 23, 22, 20, 22, 21, 17, 20]
43.552[17, 22, 23, 19, 21, 20, 20, 18]
43.575[20, 21, 22, 20, 21, 21, 22, 17]
43.597[20, 21, 21, 19, 20, 21, 21, 18]
43.612[19, 21, 20, 18, 20, 23, 22, 17]
43.635[20, 20, 20, 18, 20, 21, 23, 15]
43.657[19, 20, 19, 18, 20, 20, 20, 16]
43.672[19, 20, 18, 15, 20, 20, 20, 16]
43.695[21, 20, 19, 17, 20, 20, 18, 15]
43.717[20, 20, 20, 18, 20, 18, 18, 17]
43.732[19, 20, 19, 18, 20, 19, 19, 18]
43.755[21, 19, 18, 16, 19, 20, 18, 18]
43.778[21, 20, 19, 16, 19, 21, 19, 20]
43.792[19, 20, 19, 17, 20, 21, 20, 19]
43.815[18, 19, 17, 18, 20, 21, 19, 19]
43.838[19, 20, 17, 19, 19, 19, 17, 20]
43.852[18, 20, 19, 23, 21, 18, 18, 19]
43.875[18, 20, 19, 23, 21, 17, 17, 19]
43.897[19, 20, 18, 24, 20, 17, 19, 19]
43.912[19, 22, 19, 22, 21, 18, 17, 19]
43.935[19, 21, 18, 24, 20, 19, 20, 18]
43.958[20, 22, 18, 21, 20, 20, 20, 19]
43.972[19, 24, 18, 22, 19, 21, 20, 18]
43.995[20, 22, 19, 21, 20, 21, 19, 19]
44.017[21, 20, 20, 21, 21, 22, 20, 17]
44.032[22, 22, 21, 19, 21, 22, 18, 16]
44.055[21, 19, 23, 19, 20, 21, 19, 16]
44.078[20, 17, 23, 21, 20, 20, 19, 15]
44.1[20, 17, 24, 19, 19, 19, 19, 16]
44.115[18, 18, 23, 20, 20, 18, 19, 16]
44.137[17, 16, 23, 20, 19, 18, 20, 17]
44.16[17, 16, 23, 19, 20, 19, 18, 18]
44.175[18, 16, 23, 20, 21, 18, 18, 19]
44.198[18, 19, 21, 20, 22, 19, 19, 18]
44.22[19, 20, 22, 20, 19, 21, 20, 21]
44.235[18, 21, 22, 21, 20, 21, 20, 20]
44.257[19, 22, 19, 22, 19, 20, 21, 19]
44.28[19, 23, 19, 21, 20, 21, 22, 19]
44.296[20, 23, 20, 21, 18, 21, 20, 20]
44.317[19, 21, 19, 20, 20, 20, 20, 17]
44.34[20, 20, 21, 19, 19, 19, 19, 17]
44.355[22, 19, 21, 21, 22, 18, 19, 17]
44.378[22, 20, 22, 21, 22, 18, 18, 19]
44.4[22, 19, 22, 22, 22, 17, 18, 18]
44.415[22, 18, 22, 21, 22, 17, 18, 20]
44.437[22, 19, 21, 21, 20, 18, 17, 20]
44.46[17, 20, 23, 18, 19, 19, 16, 20]
44.475[18, 17, 21, 16, 20, 19, 17, 18]
44.498[19, 17, 22, 18, 21, 18, 17, 20]
44.52[19, 17, 21, 17, 22, 17, 16, 19]
44.535[17, 19, 19, 17, 23, 16, 17, 20]
44.557[18, 18, 19, 21, 22, 18, 18, 21]
44.58[19, 20, 20, 21, 20, 19, 16, 20]
44.595[20, 19, 19, 19, 22, 20, 16, 20]
44.617[20, 20, 19, 19, 19, 20, 16, 20]
44.648[20, 19, 20, 20, 20, 21, 18, 20]
44.654[20, 20, 17, 16, 20, 20, 17, 18]
44.685[18, 20, 16, 19, 21, 19, 18, 19]
44.7[19, 21, 18, 19, 19, 19, 19, 16]
44.714[18, 21, 17, 20, 18, 20, 19, 19]
44.737[19, 20, 18, 19, 18, 19, 17, 20]
44.76[19, 19, 19, 20, 18, 20, 18, 20]
44.774[18, 19, 20, 18, 17, 20, 18, 19]
44.805[18, 20, 22, 19, 17, 18, 18, 20]
44.82[18, 19, 22, 21, 17, 18, 18, 17]
44.834[17, 19, 23, 20, 16, 18, 20, 17]
44.86[19, 20, 24, 20, 17, 17, 21, 19]
44.879[20, 20, 23, 20, 17, 20, 20, 21]
44.902[20, 20, 22, 17, 17, 21, 20, 21]
44.918[21, 20, 23, 17, 17, 20, 20, 20]
44.947[21, 20, 20, 17, 17, 22, 20, 20]
44.962[20, 18, 22, 18, 17, 22, 19, 20]
44.978[19, 18, 22, 18, 17, 21, 19, 17]
44.999[18, 17, 22, 20, 19, 22, 19, 20]
45.022[19, 18, 21, 20, 20, 21, 20, 20]
45.038[18, 18, 24, 20, 21, 19, 19, 22]
45.059[19, 18, 20, 21, 21, 21, 21, 24]
45.082[19, 23, 22, 20, 21, 20, 22, 25]
45.098[19, 22, 21, 19, 20, 19, 22, 23]
45.12[19, 22, 20, 20, 22, 20, 24, 23]
45.142[19, 22, 21, 21, 22, 22, 25, 23]
45.158[20, 23, 21, 19, 22, 20, 22, 23]
45.179[20, 18, 19, 21, 22, 20, 21, 22]
45.202[20, 18, 20, 20, 22, 20, 22, 22]
45.218[20, 18, 20, 18, 19, 20, 21, 22]
45.241[21, 17, 20, 18, 18, 20, 21, 23]
45.262[20, 17, 19, 18, 18, 21, 23, 21]
45.278[18, 16, 20, 18, 20, 20, 23, 22]
45.299[18, 20, 20, 20, 19, 22, 22, 22]
45.322[18, 22, 21, 19, 20, 20, 21, 22]
45.338[17, 21, 20, 21, 20, 20, 21, 19]
45.359[18, 23, 20, 23, 21, 19, 18, 20]
45.382[19, 24, 20, 23, 22, 20, 20, 20]
45.398[18, 20, 20, 24, 22, 20, 19, 20]
45.419[18, 21, 21, 26, 23, 22, 19, 19]
45.442[18, 21, 20, 26, 24, 22, 19, 20]
45.458[18, 20, 22, 24, 23, 23, 19, 20]
45.479[19, 19, 22, 23, 21, 23, 19, 18]
45.502[20, 20, 20, 22, 22, 24, 20, 17]
45.518[20, 20, 20, 23, 19, 22, 21, 19]
45.539[19, 21, 19, 22, 18, 21, 20, 18]
45.562[20, 21, 19, 22, 18, 21, 20, 18]
45.578[19, 21, 19, 23, 20, 19, 19, 18]
45.599[18, 21, 19, 23, 22, 19, 18, 18]
45.622[19, 21, 19, 22, 21, 20, 16, 17]
45.638[19, 21, 21, 22, 21, 19, 18, 19]
45.659[17, 20, 21, 21, 22, 18, 18, 18]
45.682[18, 20, 21, 19, 20, 19, 21, 20]
45.698[19, 20, 20, 21, 18, 19, 21, 20]
45.719[18, 20, 20, 21, 21, 19, 20, 22]
45.743[18, 21, 20, 22, 20, 21, 20, 19]
45.758[19, 21, 19, 22, 21, 22, 19, 21]
45.779[18, 19, 20, 22, 19, 21, 19, 20]
45.802[17, 20, 20, 20, 20, 21, 19, 19]
45.817[18, 19, 21, 19, 19, 20, 19, 18]
45.839[18, 19, 20, 21, 20, 19, 19, 19]
45.862[18, 20, 21, 21, 19, 20, 20, 17]
45.877[19, 21, 21, 20, 20, 22, 18, 16]
45.899[17, 20, 20, 20, 19, 21, 17, 16]
45.922[16, 20, 20, 20, 21, 21, 18, 17]
45.937[17, 19, 20, 16, 20, 21, 17, 15]
45.959[16, 18, 20, 17, 19, 19, 19, 17]
45.982[15, 21, 20, 17, 19, 18, 19, 19]
46.004[17, 21, 21, 18, 20, 19, 19, 18]
46.019[18, 21, 20, 22, 20, 19, 19, 18]
46.042[17, 23, 20, 22, 20, 18, 18, 20]
46.064[18, 23, 19, 23, 21, 18, 18, 20]
46.079[17, 21, 21, 23, 20, 19, 18, 20]
46.102[17, 21, 22, 23, 20, 20, 17, 19]
46.124[17, 21, 23, 21, 19, 20, 17, 19]
46.139[18, 20, 23, 23, 19, 20, 18, 17]
46.162[17, 21, 23, 22, 19, 19, 17, 18]
46.184[18, 20, 22, 22, 19, 19, 18, 19]
46.199[19, 22, 23, 24, 19, 17, 20, 20]
46.222[18, 21, 21, 22, 20, 18, 21, 20]
46.244[19, 21, 24, 20, 21, 17, 21, 22]
46.259[20, 20, 23, 22, 20, 17, 22, 21]
46.282[20, 20, 22, 21, 20, 15, 21, 20]
46.304[21, 19, 22, 19, 18, 17, 20, 19]
46.32[22, 21, 22, 20, 19, 16, 18, 18]
46.342[21, 20, 20, 20, 18, 18, 17, 17]
46.364[21, 20, 20, 18, 18, 19, 17, 17]
46.379[23, 20, 21, 19, 19, 20, 18, 15]
46.402[21, 19, 18, 19, 19, 20, 18, 17]
46.424[21, 20, 20, 18, 20, 18, 20, 18]
46.44[22, 19, 20, 19, 20, 18, 22, 18]
46.462[20, 20, 20, 19, 20, 19, 20, 18]
46.492[17, 22, 21, 22, 19, 18, 18, 19]
46.499[18, 21, 23, 21, 20, 19, 19, 19]
46.522[19, 20, 22, 22, 18, 20, 20, 18]
46.544[18, 20, 22, 23, 20, 21, 19, 20]
46.559[17, 20, 23, 22, 21, 20, 20, 21]
46.582[17, 20, 22, 18, 20, 21, 21, 21]
46.604[20, 21, 21, 19, 20, 20, 21, 19]
46.619[18, 21, 20, 19, 23, 19, 18, 19]
46.65[20, 22, 22, 17, 21, 18, 19, 15]
46.664[21, 22, 21, 16, 19, 17, 20, 14]
46.679[22, 20, 20, 19, 22, 17, 19, 13]
46.703[21, 20, 21, 19, 23, 17, 20, 15]
46.725[23, 21, 21, 21, 21, 17, 20, 16]
46.74[21, 21, 21, 22, 23, 17, 18, 17]
46.762[22, 21, 21, 23, 26, 18, 18, 18]
46.784[23, 22, 22, 20, 25, 17, 20, 18]
46.808[20, 23, 22, 21, 24, 16, 18, 16]
46.822[18, 21, 22, 22, 24, 16, 19, 18]
46.852[18, 21, 21, 20, 23, 17, 21, 18]
46.859[17, 21, 20, 21, 21, 16, 20, 16]
46.89[17, 19, 19, 21, 21, 18, 18, 18]
46.904[17, 19, 18, 21, 20, 18, 19, 19]
46.927[18, 19, 18, 21, 21, 19, 17, 16]
46.942[17, 19, 18, 21, 19, 20, 18, 16]
46.964[18, 20, 19, 19, 22, 20, 18, 18]
46.995[18, 20, 19, 19, 22, 20, 17, 17]
47.002[18, 20, 17, 19, 24, 20, 17, 18]
47.024[18, 22, 18, 19, 22, 22, 17, 18]
47.047[20, 21, 21, 20, 24, 20, 16, 20]
47.062[18, 21, 20, 20, 23, 19, 18, 19]
47.084[18, 20, 21, 21, 23, 19, 19, 20]
47.107[18, 21, 22, 21, 22, 20, 19, 19]
47.122[18, 20, 24, 20, 22, 18, 19, 19]
47.144[16, 20, 23, 19, 22, 19, 20, 18]
47.166[17, 21, 23, 21, 20, 19, 19, 18]
47.19[20, 22, 22, 20, 19, 19, 19, 19]
47.204[21, 22, 22, 22, 18, 17, 18, 19]
47.227[23, 20, 20, 21, 20, 18, 17, 19]
47.241[23, 19, 17, 22, 18, 17, 17, 17]
47.264[23, 20, 19, 22, 20, 17, 16, 18]
47.287[20, 17, 19, 24, 19, 18, 17, 16]
47.301[18, 18, 19, 21, 21, 18, 17, 18]
47.324[16, 19, 19, 21, 18, 18, 18, 17]
47.347[17, 21, 19, 21, 19, 17, 16, 21]
47.362[18, 20, 19, 21, 18, 17, 18, 22]
47.384[19, 22, 21, 18, 18, 17, 19, 22]
47.407[23, 21, 21, 19, 20, 15, 19, 20]
47.421[22, 22, 21, 19, 20, 16, 20, 21]
47.444[21, 22, 22, 18, 19, 16, 21, 19]
47.467[21, 22, 22, 19, 21, 17, 19, 18]
47.482[20, 21, 20, 19, 21, 20, 22, 19]
47.504[17, 20, 19, 18, 19, 22, 21, 19]
47.527[18, 21, 21, 19, 21, 22, 22, 19]
47.542[19, 20, 21, 18, 22, 23, 21, 18]
47.572[18, 19, 21, 18, 21, 22, 23, 16]
47.587[19, 21, 21, 20, 21, 20, 20, 16]
47.603[18, 21, 24, 20, 20, 20, 20, 15]
47.624[19, 19, 25, 20, 19, 19, 19, 16]
47.647[18, 21, 24, 20, 18, 19, 21, 15]
47.662[19, 22, 23, 20, 17, 19, 20, 16]
47.684[18, 21, 24, 22, 17, 20, 18, 18]
47.708[18, 20, 23, 23, 21, 19, 21, 18]
47.722[19, 20, 21, 22, 20, 18, 20, 20]
47.744[18, 20, 20, 23, 21, 19, 17, 20]
47.768[20, 21, 23, 22, 22, 18, 17, 19]
47.782[21, 22, 22, 21, 22, 18, 19, 17]
47.804[20, 23, 21, 20, 20, 18, 16, 19]
47.828[19, 24, 22, 20, 19, 19, 17, 15]
47.85[21, 22, 22, 21, 20, 20, 19, 14]
47.864[20, 21, 19, 22, 20, 21, 18, 16]
47.888[19, 19, 20, 22, 22, 20, 17, 18]
47.91[21, 19, 22, 22, 23, 20, 19, 16]
47.924[23, 21, 21, 21, 22, 20, 17, 17]
47.947[22, 21, 21, 21, 23, 18, 18, 19]
47.97[22, 21, 23, 22, 22, 18, 20, 19]
47.984[22, 23, 23, 21, 22, 18, 18, 18]
48.015[21, 22, 22, 21, 19, 18, 18, 20]
48.03[20, 23, 21, 22, 19, 19, 19, 22]
48.044[18, 23, 20, 22, 17, 18, 19, 22]
48.068[19, 22, 19, 19, 18, 18, 18, 21]
48.09[19, 22, 18, 22, 18, 19, 20, 23]
48.104[17, 22, 16, 20, 18, 19, 19, 22]
48.127[17, 19, 19, 21, 20, 18, 19, 20]
48.15[19, 20, 21, 24, 21, 17, 19, 19]
48.164[18, 20, 20, 24, 20, 17, 20, 20]
48.187[19, 17, 21, 22, 20, 17, 20, 19]
48.21[20, 17, 22, 23, 20, 18, 21, 18]
48.224[19, 19, 22, 20, 19, 18, 21, 19]
48.248[19, 18, 20, 18, 19, 18, 19, 19]
48.27[18, 20, 22, 20, 22, 17, 20, 21]
48.284[16, 20, 24, 21, 21, 17, 19, 20]
48.308[17, 20, 23, 21, 21, 15, 18, 21]
48.33[16, 20, 22, 21, 21, 17, 18, 21]
48.344[17, 19, 22, 20, 21, 17, 18, 20]
48.367[16, 20, 20, 21, 22, 19, 19, 19]
48.39[18, 22, 18, 18, 22, 19, 20, 20]
48.404[16, 22, 19, 19, 24, 21, 20, 19]
48.427[15, 23, 19, 21, 24, 19, 20, 18]
48.45[14, 23, 21, 21, 24, 21, 21, 18]
48.472[15, 22, 20, 20, 24, 20, 19, 20]
48.488[16, 20, 20, 22, 23, 19, 17, 20]
48.51[18, 21, 19, 20, 24, 18, 18, 21]
48.524[19, 20, 17, 19, 23, 19, 17, 22]
48.548[20, 20, 17, 20, 22, 19, 16, 23]
48.57[19, 21, 19, 19, 20, 20, 17, 21]
48.584[19, 21, 20, 20, 20, 20, 19, 21]
48.607[19, 19, 21, 21, 18, 21, 17, 19]
48.631[18, 21, 22, 24, 20, 21, 18, 20]
48.644[19, 20, 24, 22, 21, 20, 20, 20]
48.667[20, 19, 23, 25, 22, 19, 23, 20]
48.697[19, 20, 21, 25, 22, 19, 21, 19]
48.704[19, 20, 20, 24, 22, 18, 22, 24]
48.727[19, 17, 22, 23, 20, 20, 22, 22]
48.75[18, 18, 19, 23, 19, 19, 20, 20]
48.765[18, 20, 21, 19, 19, 21, 17, 21]
48.788[18, 17, 23, 20, 21, 21, 17, 22]
48.81[19, 19, 22, 19, 22, 21, 18, 18]
48.832[20, 19, 19, 16, 23, 21, 18, 18]
48.848[20, 19, 19, 18, 23, 20, 19, 17]
48.87[20, 18, 18, 18, 23, 19, 18, 16]
48.892[19, 20, 16, 18, 22, 20, 18, 15]
48.908[18, 19, 15, 18, 22, 20, 18, 16]
48.93[17, 19, 16, 18, 23, 19, 18, 17]
48.952[15, 18, 19, 19, 22, 20, 17, 18]
48.968[17, 21, 21, 19, 22, 21, 17, 18]
48.99[17, 20, 22, 20, 20, 22, 17, 19]
49.013[16, 20, 23, 22, 20, 22, 16, 20]
49.028[16, 22, 24, 22, 19, 21, 16, 19]
49.05[16, 23, 21, 21, 18, 20, 16, 19]
49.072[16, 23, 18, 21, 19, 17, 16, 19]
49.095[18, 23, 19, 18, 19, 18, 18, 20]
49.11[19, 23, 19, 18, 19, 16, 18, 18]
49.132[19, 21, 19, 17, 21, 17, 18, 18]
49.147[22, 21, 20, 18, 22, 17, 19, 19]
49.17[21, 19, 20, 19, 23, 19, 19, 18]
49.192[19, 19, 19, 20, 23, 18, 19, 18]
49.208[19, 19, 18, 20, 24, 20, 19, 17]
49.23[20, 19, 18, 20, 21, 21, 20, 18]
49.252[18, 19, 17, 20, 20, 21, 21, 19]
49.268[19, 19, 19, 18, 20, 21, 20, 19]
49.291[19, 19, 19, 17, 19, 21, 20, 19]
49.312[19, 18, 20, 18, 17, 20, 19, 22]
49.327[18, 18, 19, 18, 18, 19, 21, 21]
49.35[19, 18, 20, 17, 19, 19, 20, 20]
49.372[17, 18, 20, 18, 19, 19, 21, 21]
49.386[19, 18, 19, 19, 20, 20, 22, 21]
49.41[19, 19, 21, 18, 21, 19, 22, 18]
49.432[18, 19, 22, 19, 20, 20, 20, 19]
49.447[19, 18, 23, 19, 18, 20, 21, 20]
49.47[19, 18, 23, 19, 20, 19, 21, 17]
49.492[18, 19, 23, 19, 20, 19, 18, 18]
49.507[17, 18, 22, 22, 19, 21, 18, 20]
49.53[17, 19, 21, 20, 21, 19, 18, 20]
49.552[18, 20, 19, 20, 21, 20, 17, 20]
49.567[18, 20, 18, 19, 19, 19, 18, 22]
49.59[19, 18, 18, 20, 20, 19, 18, 23]
49.612[21, 20, 19, 18, 20, 17, 18, 21]
49.627[21, 20, 18, 20, 21, 18, 18, 22]
49.65[20, 20, 20, 20, 21, 18, 18, 21]
49.672[20, 20, 19, 22, 21, 18, 19, 20]
49.687[19, 20, 20, 22, 20, 18, 19, 17]
49.71[16, 19, 18, 21, 19, 19, 19, 20]
49.732[16, 19, 19, 19, 18, 17, 21, 18]
49.755[14, 18, 18, 21, 20, 17, 20, 20]
49.77[13, 19, 20, 20, 20, 17, 20, 22]
49.792[12, 20, 18, 20, 21, 19, 20, 22]
49.815[14, 20, 19, 20, 21, 18, 19, 21]
49.83[15, 20, 18, 20, 21, 19, 18, 21]
49.852[16, 22, 19, 20, 21, 19, 19, 20]
49.874[18, 20, 17, 20, 22, 19, 19, 17]
49.89[18, 19, 17, 19, 21, 18, 20, 17]
49.912[18, 20, 19, 19, 21, 17, 20, 18]
49.934[18, 21, 20, 20, 21, 19, 21, 18]
49.95[18, 19, 20, 20, 20, 19, 21, 15]
49.972[17, 19, 21, 21, 19, 19, 20, 17]
49.994[19, 18, 23, 21, 18, 19, 19, 17]
50.01[19, 19, 23, 22, 19, 20, 19, 15]
50.033[20, 18, 23, 22, 18, 18, 18, 17]
50.054[20, 19, 22, 21, 18, 19, 19, 18]
50.07[20, 21, 21, 21, 19, 18, 20, 16]
50.099[19, 23, 21, 22, 18, 18, 19, 17]
50.114[19, 22, 19, 21, 18, 18, 19, 18]
50.131[16, 22, 18, 21, 18, 18, 20, 18]
50.152[17, 21, 19, 21, 20, 18, 18, 19]
50.174[17, 19, 19, 21, 19, 18, 19, 20]
50.191[17, 18, 18, 21, 20, 18, 19, 20]
50.212[18, 17, 18, 20, 21, 18, 19, 21]
50.234[20, 19, 18, 19, 20, 19, 18, 20]
50.25[19, 19, 18, 21, 19, 20, 18, 20]
50.272[19, 19, 19, 22, 18, 20, 17, 21]
50.301[19, 20, 18, 21, 19, 19, 18, 21]
50.31[18, 21, 17, 20, 18, 19, 17, 18]
50.332[17, 20, 19, 22, 18, 20, 17, 18]
50.354[16, 18, 19, 19, 19, 18, 17, 20]
50.372[17, 19, 18, 21, 20, 19, 16, 18]
50.392[17, 18, 21, 21, 19, 19, 17, 17]
50.414[17, 19, 23, 21, 19, 18, 17, 19]
50.43[17, 19, 22, 20, 19, 19, 18, 21]
50.452[17, 21, 21, 22, 18, 21, 19, 18]
50.474[16, 21, 21, 20, 19, 19, 21, 20]
50.49[17, 21, 19, 21, 18, 21, 20, 21]
50.512[16, 22, 19, 24, 18, 20, 20, 20]
50.535[17, 24, 20, 24, 17, 20, 19, 17]
50.551[17, 22, 20, 22, 18, 19, 18, 19]
50.572[18, 23, 20, 22, 19, 22, 16, 20]
50.594[17, 27, 22, 22, 19, 21, 17, 20]
50.611[17, 24, 20, 18, 21, 21, 17, 20]
50.632
50.406
