[23, 23, 20, 19, 27, 19, 22, 22]
0.499[23, 23, 21, 20, 23, 20, 23, 22]
0.523[24, 23, 24, 20, 24, 20, 23, 24]
0.545[22, 22, 24, 20, 25, 20, 21, 21]
0.56[22, 21, 24, 20, 22, 18, 20, 20]
0.584[19, 20, 23, 20, 21, 18, 19, 21]
0.605[17, 22, 22, 21, 20, 17, 18, 20]
0.62[17, 22, 21, 20, 19, 17, 20, 17]
0.643[18, 21, 20, 21, 17, 18, 19, 17]
0.665[16, 20, 18, 20, 17, 20, 21, 18]
0.68[19, 21, 18, 20, 18, 20, 21, 19]
0.703[19, 19, 18, 19, 20, 21, 20, 20]
0.725[19, 20, 18, 20, 19, 21, 20, 21]
0.74[18, 19, 20, 21, 20, 20, 20, 20]
0.763[19, 21, 19, 21, 21, 19, 20, 21]
0.785[17, 21, 20, 21, 22, 19, 21, 22]
0.8[19, 22, 22, 22, 22, 20, 20, 21]
0.822[20, 21, 20, 21, 23, 18, 20, 21]
0.845[21, 22, 19, 19, 24, 20, 21, 21]
0.86[20, 22, 20, 19, 22, 18, 21, 22]
0.883[19, 22, 20, 18, 22, 19, 22, 22]
0.906[18, 23, 18, 19, 21, 18, 23, 22]
0.92[18, 22, 19, 19, 22, 19, 22, 20]
0.942[18, 21, 18, 19, 19, 18, 20, 20]
0.965[19, 21, 18, 18, 20, 18, 20, 17]
0.988[19, 20, 17, 18, 19, 17, 20, 18]
1.003[19, 18, 20, 16, 21, 16, 18, 21]
1.025[19, 19, 20, 18, 20, 16, 17, 22]
1.04[17, 18, 21, 19, 21, 17, 19, 23]
1.063[18, 17, 22, 20, 21, 19, 20, 22]
1.085[18, 19, 22, 23, 21, 21, 20, 22]
1.1[18, 20, 20, 22, 19, 21, 23, 24]
1.123[16, 18, 20, 22, 18, 20, 24, 24]
1.145[17, 23, 19, 21, 18, 20, 24, 25]
1.161[18, 23, 18, 23, 18, 20, 25, 26]
1.182[18, 22, 18, 19, 19, 20, 25, 25]
1.205[18, 24, 18, 21, 19, 20, 22, 22]
1.22[18, 25, 19, 20, 19, 21, 24, 24]
1.242[19, 22, 20, 20, 19, 21, 24, 22]
1.265[18, 22, 21, 17, 19, 20, 21, 20]
1.28[19, 24, 21, 18, 18, 17, 21, 20]
1.302[19, 22, 22, 17, 19, 19, 21, 20]
1.325[20, 22, 21, 16, 19, 21, 19, 19]
1.349[19, 22, 19, 15, 19, 21, 19, 20]
1.363[19, 22, 19, 16, 19, 21, 21, 22]
1.385[18, 21, 20, 15, 20, 22, 21, 23]
1.408[20, 21, 18, 15, 18, 20, 21, 23]
1.431[19, 19, 19, 15, 18, 17, 20, 25]
1.445[19, 19, 20, 16, 18, 19, 19, 24]
1.468[20, 18, 20, 15, 18, 19, 19, 23]
1.49[19, 20, 23, 15, 18, 18, 19, 22]
1.505[19, 21, 21, 15, 19, 18, 20, 22]
1.528[20, 22, 20, 15, 20, 17, 21, 17]
1.551[20, 23, 20, 16, 21, 15, 21, 20]
1.565[18, 22, 21, 18, 21, 16, 21, 19]
1.589[18, 21, 20, 18, 22, 15, 21, 19]
1.61[18, 20, 22, 18, 22, 16, 20, 18]
1.633[16, 20, 22, 18, 21, 18, 20, 19]
1.649[17, 20, 22, 19, 20, 18, 22, 20]
1.67[18, 22, 21, 19, 21, 18, 22, 19]
1.685[18, 21, 21, 19, 20, 19, 22, 20]
1.708[18, 22, 22, 18, 17, 19, 22, 21]
1.73[20, 22, 21, 20, 18, 19, 23, 20]
1.746[19, 22, 21, 20, 17, 18, 21, 18]
1.769[21, 22, 22, 19, 16, 21, 20, 21]
1.79[20, 22, 21, 19, 16, 20, 18, 20]
1.805[20, 23, 20, 20, 17, 19, 17, 20]
1.828[18, 22, 22, 20, 18, 19, 18, 19]
1.85[19, 21, 22, 18, 19, 19, 17, 19]
1.873[18, 21, 21, 19, 19, 18, 18, 18]
1.887[18, 19, 21, 19, 20, 17, 20, 19]
1.91[19, 19, 20, 19, 21, 17, 20, 22]
1.932[21, 18, 18, 18, 21, 18, 19, 22]
1.948[21, 18, 24, 18, 21, 18, 19, 21]
1.97[21, 18, 24, 19, 22, 18, 19, 20]
1.994[21, 20, 25, 19, 21, 18, 18, 22]
2.008[19, 20, 24, 21, 22, 20, 18, 21]
2.03[18, 22, 25, 21, 21, 18, 17, 22]
2.053[18, 21, 20, 21, 21, 17, 19, 22]
2.067[17, 21, 20, 23, 21, 17, 19, 23]
2.09[17, 20, 19, 24, 21, 19, 21, 22]
2.113[15, 19, 19, 22, 19, 19, 21, 21]
2.127[15, 18, 17, 22, 17, 19, 22, 22]
2.15[15, 19, 18, 23, 19, 21, 20, 24]
2.173[17, 18, 18, 21, 20, 21, 19, 24]
2.187[17, 20, 19, 20, 19, 19, 17, 22]
2.211[17, 22, 22, 21, 21, 20, 17, 23]
2.233[19, 21, 22, 19, 21, 19, 18, 21]
2.248[20, 22, 22, 19, 22, 20, 17, 19]
2.27[19, 22, 22, 19, 21, 19, 18, 18]
2.293[19, 21, 21, 18, 21, 20, 17, 19]
2.307[20, 20, 19, 17, 21, 17, 18, 17]
2.33[19, 20, 20, 19, 23, 18, 18, 17]
2.353[17, 18, 18, 18, 21, 17, 20, 16]
2.366[19, 20, 17, 18, 22, 17, 20, 16]
2.39[19, 20, 19, 18, 21, 16, 20, 15]
2.413[18, 19, 17, 20, 21, 19, 18, 16]
2.428[19, 18, 17, 20, 20, 19, 19, 15]
2.45[19, 21, 16, 21, 20, 19, 18, 20]
2.473[18, 19, 20, 20, 18, 19, 18, 21]
2.487[18, 19, 22, 20, 20, 19, 19, 22]
2.51[18, 21, 22, 18, 20, 19, 20, 21]
2.532[18, 22, 23, 19, 20, 19, 21, 24]
2.547[17, 20, 23, 18, 21, 18, 22, 21]
2.57[19, 21, 21, 19, 21, 19, 22, 20]
2.592[20, 22, 18, 19, 20, 20, 21, 19]
2.607[20, 21, 18, 20, 20, 18, 21, 21]
2.63[19, 23, 24, 24, 20, 19, 20, 21]
2.653[19, 22, 25, 25, 19, 20, 19, 19]
2.667[19, 21, 25, 26, 19, 20, 20, 21]
2.69[16, 21, 26, 27, 20, 19, 22, 21]
2.712[17, 21, 26, 29, 18, 20, 21, 21]
2.727[17, 21, 22, 26, 20, 19, 20, 21]
2.75[17, 21, 20, 25, 19, 17, 22, 24]
2.772[15, 22, 20, 24, 19, 19, 20, 23]
2.795[17, 22, 20, 23, 17, 20, 20, 23]
2.81[17, 23, 19, 20, 18, 18, 21, 24]
2.832[17, 22, 19, 19, 17, 20, 20, 22]
2.855[19, 23, 20, 19, 19, 19, 21, 20]
2.87[20, 22, 19, 19, 18, 19, 20, 21]
2.9[20, 21, 19, 19, 20, 19, 19, 20]
2.915[20, 20, 20, 19, 21, 20, 20, 18]
2.93[20, 20, 18, 19, 23, 20, 18, 18]
2.96[17, 18, 18, 18, 23, 21, 20, 20]
2.975[16, 18, 17, 17, 23, 20, 21, 20]
2.99[16, 19, 19, 18, 22, 20, 21, 22]
3.013[17, 20, 18, 19, 20, 19, 21, 22]
3.035[18, 20, 20, 18, 19, 21, 23, 26]
3.05[18, 22, 18, 20, 17, 21, 20, 23]
3.073[19, 21, 19, 19, 19, 21, 20, 23]
3.095[17, 21, 19, 17, 20, 21, 20, 22]
3.11[17, 19, 19, 16, 20, 21, 19, 23]
3.133[17, 21, 19, 17, 19, 20, 17, 19]
3.154[18, 19, 21, 16, 20, 19, 19, 20]
3.178[18, 21, 22, 16, 20, 18, 17, 21]
3.193[19, 22, 23, 17, 20, 20, 18, 22]
3.214[18, 21, 24, 18, 20, 22, 18, 21]
3.237[18, 20, 23, 16, 20, 21, 19, 21]
3.252[17, 23, 23, 16, 19, 21, 18, 24]
3.274[18, 23, 22, 17, 18, 21, 18, 22]
3.29[18, 21, 22, 18, 20, 20, 18, 20]
3.312[18, 23, 20, 17, 19, 17, 17, 20]
3.334[18, 21, 21, 18, 21, 18, 17, 20]
3.351[18, 19, 20, 18, 19, 19, 17, 18]
3.372[18, 20, 21, 18, 20, 21, 18, 19]
3.394[19, 21, 19, 18, 17, 21, 18, 18]
3.411[18, 21, 20, 18, 20, 21, 21, 18]
3.432[18, 22, 19, 19, 19, 19, 21, 19]
3.454[18, 21, 20, 19, 21, 20, 23, 18]
3.471[16, 21, 17, 20, 19, 18, 21, 18]
3.492[16, 19, 19, 20, 20, 19, 20, 18]
3.514[17, 19, 20, 20, 20, 19, 19, 19]
3.531[19, 19, 21, 20, 19, 19, 20, 21]
3.552[20, 19, 21, 19, 21, 17, 18, 20]
3.575[20, 18, 22, 19, 22, 19, 18, 21]
3.591[20, 21, 22, 18, 21, 18, 20, 21]
3.612[21, 20, 22, 19, 20, 18, 21, 21]
3.634[19, 21, 21, 18, 21, 18, 21, 20]
3.651[20, 21, 21, 19, 21, 19, 23, 21]
3.672[22, 21, 23, 17, 23, 18, 23, 19]
3.694[23, 21, 22, 17, 22, 19, 21, 21]
3.711[20, 23, 20, 16, 22, 18, 21, 21]
3.732[22, 22, 21, 15, 22, 18, 20, 20]
3.754[21, 23, 23, 16, 21, 19, 18, 20]
3.777[18, 24, 21, 19, 18, 17, 20, 21]
3.793[19, 22, 22, 18, 18, 15, 23, 20]
3.814[19, 21, 23, 20, 20, 17, 21, 19]
3.837[17, 21, 22, 22, 20, 16, 22, 19]
3.852[21, 21, 22, 21, 19, 15, 23, 18]
3.874[21, 20, 23, 19, 20, 18, 20, 17]
3.897[20, 21, 22, 21, 22, 18, 18, 17]
3.912[20, 21, 22, 20, 20, 17, 20, 17]
3.934[21, 22, 23, 21, 19, 19, 20, 18]
3.957[18, 22, 22, 21, 21, 19, 22, 19]
3.972[19, 22, 20, 21, 21, 16, 23, 22]
3.994[18, 24, 20, 22, 20, 19, 23, 21]
4.017[18, 22, 19, 22, 20, 18, 22, 21]
4.032[19, 24, 19, 20, 21, 16, 21, 22]
4.054[20, 21, 20, 21, 19, 17, 18, 20]
4.077[20, 21, 21, 20, 19, 18, 17, 17]
4.092[20, 20, 22, 19, 18, 16, 17, 17]
4.114[21, 20, 21, 19, 19, 17, 17, 18]
4.137[21, 19, 21, 20, 22, 18, 17, 19]
4.159[19, 19, 20, 19, 23, 17, 18, 20]
4.174[18, 21, 22, 19, 23, 18, 18, 22]
4.197[17, 20, 21, 21, 23, 18, 18, 22]
4.212[16, 20, 22, 22, 22, 18, 18, 21]
4.234[17, 20, 20, 21, 19, 18, 17, 20]
4.257[18, 20, 21, 20, 18, 19, 18, 20]
4.272[18, 19, 20, 22, 18, 20, 19, 21]
4.294[18, 18, 20, 20, 17, 21, 21, 20]
4.317[18, 17, 22, 19, 16, 20, 22, 20]
4.332[17, 18, 22, 19, 18, 20, 25, 22]
4.354[17, 18, 20, 19, 17, 22, 24, 22]
4.377[17, 17, 19, 18, 17, 19, 22, 19]
4.392[17, 17, 20, 18, 17, 19, 20, 21]
4.414[18, 19, 19, 18, 17, 19, 21, 21]
4.437[19, 19, 17, 18, 16, 18, 18, 19]
4.452[20, 18, 20, 20, 17, 16, 18, 20]
4.474[20, 18, 20, 21, 17, 17, 21, 21]
4.497[21, 21, 20, 20, 19, 16, 21, 20]
4.512[21, 20, 19, 20, 19, 18, 21, 19]
4.534[21, 21, 20, 20, 22, 18, 23, 20]
4.565[19, 23, 19, 18, 22, 20, 22, 18]
4.572[20, 23, 21, 17, 23, 20, 20, 17]
4.594[19, 22, 21, 17, 22, 21, 20, 16]
4.617[19, 23, 21, 17, 22, 25, 20, 18]
4.632[18, 22, 22, 17, 20, 25, 19, 17]
4.654[18, 22, 22, 17, 20, 25, 20, 18]
4.677[17, 22, 22, 18, 19, 25, 20, 22]
4.699[17, 23, 21, 21, 21, 25, 19, 22]
4.714[16, 22, 22, 21, 22, 21, 17, 19]
4.737[17, 21, 23, 21, 20, 19, 18, 20]
4.759[18, 20, 22, 23, 23, 21, 18, 22]
4.774[18, 21, 22, 24, 23, 21, 19, 21]
4.797[19, 19, 23, 21, 20, 21, 19, 21]
4.82[19, 20, 23, 22, 22, 22, 20, 22]
4.834[20, 19, 22, 21, 22, 22, 20, 22]
4.857[21, 20, 23, 20, 19, 21, 19, 19]
4.879[22, 20, 22, 18, 19, 23, 19, 16]
4.894[23, 21, 22, 18, 20, 22, 20, 18]
4.917[22, 21, 22, 18, 19, 23, 19, 19]
4.939[23, 22, 22, 19, 19, 24, 19, 20]
4.954[21, 21, 22, 19, 21, 22, 18, 21]
4.977[19, 22, 23, 19, 21, 21, 18, 22]
5.0[18, 21, 21, 18, 20, 20, 17, 21]
5.014[19, 21, 20, 19, 22, 19, 17, 19]
5.037[17, 23, 19, 19, 21, 20, 17, 22]
5.059[19, 24, 18, 20, 20, 20, 19, 23]
5.074[20, 23, 19, 20, 21, 21, 19, 23]
5.097[21, 22, 20, 20, 21, 22, 18, 23]
5.119[20, 23, 21, 18, 20, 21, 18, 23]
5.134[20, 21, 21, 19, 22, 20, 19, 20]
5.157[20, 20, 23, 19, 22, 20, 18, 19]
5.179[20, 21, 22, 18, 22, 19, 19, 20]
5.195[20, 22, 20, 19, 23, 18, 20, 21]
5.217[20, 20, 19, 22, 23, 19, 20, 21]
5.24[20, 20, 18, 21, 22, 19, 18, 20]
5.254[19, 18, 17, 20, 22, 21, 19, 22]
5.277[16, 18, 15, 21, 23, 20, 18, 21]
5.299[17, 19, 16, 21, 22, 27, 17, 21]
5.314[17, 20, 16, 18, 22, 28, 17, 20]
5.337[19, 21, 17, 20, 21, 29, 17, 25]
5.359[20, 23, 20, 19, 25, 26, 17, 23]
5.374[20, 23, 22, 19, 24, 26, 18, 23]
5.397[19, 23, 22, 18, 25, 20, 19, 22]
5.419[20, 24, 23, 18, 23, 18, 18, 22]
5.434[20, 24, 22, 16, 24, 17, 19, 17]
5.457[18, 23, 20, 16, 21, 21, 19, 17]
5.488[21, 21, 19, 15, 22, 25, 18, 19]
5.494[23, 21, 20, 15, 18, 25, 18, 20]
5.517[22, 19, 19, 16, 20, 26, 18, 20]
5.539[21, 18, 20, 18, 19, 27, 18, 22]
5.555[22, 19, 19, 18, 20, 27, 18, 21]
5.577[18, 19, 20, 19, 20, 25, 17, 20]
5.599[17, 19, 21, 19, 22, 26, 18, 19]
5.614[19, 20, 21, 19, 22, 31, 18, 20]
5.637[19, 20, 20, 17, 22, 30, 20, 22]
5.659[20, 20, 21, 19, 22, 27, 22, 22]
5.682[21, 20, 20, 19, 23, 29, 22, 21]
5.697[20, 19, 19, 19, 22, 28, 22, 22]
5.719[19, 20, 19, 20, 23, 24, 22, 22]
5.742[17, 18, 20, 22, 23, 24, 19, 20]
5.757[16, 18, 21, 23, 22, 25, 19, 20]
5.779[16, 20, 22, 22, 20, 21, 19, 22]
5.802[15, 21, 22, 22, 19, 20, 18, 23]
5.817[16, 22, 22, 23, 15, 18, 19, 24]
5.839[16, 23, 22, 23, 17, 17, 19, 22]
5.862[19, 22, 22, 21, 19, 16, 17, 23]
5.877[20, 23, 22, 22, 20, 18, 17, 21]
5.899[20, 22, 21, 22, 20, 18, 17, 20]
5.923[20, 19, 23, 21, 21, 22, 18, 18]
5.937[21, 20, 22, 20, 20, 22, 20, 19]
5.959[20, 20, 23, 19, 20, 23, 20, 19]
5.982[19, 19, 23, 20, 19, 23, 20, 19]
5.997[20, 18, 24, 19, 20, 23, 20, 20]
6.019[21, 19, 22, 19, 20, 20, 19, 22]
6.042[20, 16, 22, 19, 19, 20, 20, 21]
6.057[19, 18, 20, 18, 19, 19, 19, 20]
6.079[19, 19, 19, 19, 20, 19, 18, 21]
6.102[19, 20, 20, 18, 19, 20, 19, 21]
6.117[16, 21, 22, 18, 20, 20, 18, 21]
6.139[17, 23, 24, 18, 21, 20, 15, 21]
6.162[17, 21, 24, 19, 21, 20, 17, 20]
6.177[17, 20, 25, 16, 20, 21, 18, 19]
6.199[18, 23, 25, 18, 19, 21, 17, 17]
6.222[18, 22, 24, 20, 19, 19, 18, 18]
6.236[18, 20, 21, 19, 19, 18, 18, 18]
6.259[20, 21, 20, 20, 18, 18, 18, 18]
6.282[19, 22, 19, 21, 18, 16, 17, 20]
6.297[20, 19, 17, 20, 19, 19, 17, 19]
6.32[21, 21, 19, 18, 19, 20, 17, 19]
6.35[23, 23, 19, 18, 20, 20, 17, 19]
6.356[22, 22, 20, 17, 20, 20, 18, 19]
6.379[22, 21, 19, 19, 19, 20, 17, 19]
6.402[19, 20, 18, 20, 19, 19, 19, 19]
6.416[19, 20, 17, 19, 18, 20, 21, 18]
6.439[17, 18, 18, 21, 17, 22, 21, 18]
6.462[16, 18, 19, 21, 18, 21, 21, 17]
6.477[18, 19, 19, 20, 21, 21, 23, 18]
6.507[20, 22, 20, 20, 21, 21, 23, 18]
6.522[20, 20, 20, 23, 21, 19, 21, 18]
6.536[20, 20, 20, 22, 22, 17, 21, 18]
6.559[22, 20, 19, 22, 22, 18, 21, 19]
6.582[22, 19, 19, 22, 19, 17, 18, 19]
6.605[22, 16, 17, 21, 18, 15, 19, 21]
6.619[22, 17, 18, 19, 18, 15, 20, 22]
6.642[22, 18, 19, 21, 18, 16, 19, 21]
6.665[20, 19, 18, 21, 17, 16, 18, 20]
6.679[18, 19, 20, 21, 16, 17, 19, 19]
6.704[18, 19, 21, 22, 16, 18, 17, 18]
6.725[20, 19, 21, 23, 18, 18, 15, 17]
6.74[20, 17, 22, 22, 17, 19, 16, 19]
6.762[20, 18, 22, 21, 18, 20, 18, 20]
6.785[21, 18, 22, 21, 19, 18, 17, 20]
6.8[21, 17, 22, 20, 19, 18, 18, 20]
6.822[19, 18, 22, 20, 18, 18, 18, 22]
6.845[17, 18, 21, 18, 19, 17, 20, 21]
6.86[16, 18, 22, 18, 18, 17, 19, 21]
6.882[17, 19, 23, 19, 19, 17, 19, 21]
6.905[16, 21, 22, 21, 20, 18, 19, 19]
6.92[17, 19, 21, 19, 20, 17, 20, 21]
6.942[17, 19, 21, 20, 19, 19, 18, 22]
6.965[18, 18, 20, 21, 21, 19, 19, 20]
6.98[18, 18, 19, 22, 20, 20, 20, 21]
7.002[20, 16, 19, 21, 19, 19, 19, 21]
7.025[21, 16, 20, 21, 22, 20, 19, 23]
7.04[21, 19, 19, 20, 21, 18, 20, 23]
7.062[23, 19, 21, 19, 20, 19, 20, 23]
7.093[20, 21, 23, 17, 20, 18, 20, 23]
7.099[21, 20, 23, 17, 21, 19, 20, 23]
7.122[20, 20, 24, 18, 18, 19, 19, 19]
7.161[22, 22, 24, 19, 20, 20, 21, 23]
7.162[21, 22, 22, 19, 21, 19, 23, 23]
7.19[23, 21, 20, 20, 21, 19, 22, 22]
7.205[21, 21, 21, 20, 20, 19, 22, 22]
7.219[20, 22, 18, 20, 20, 19, 24, 22]
7.242[19, 21, 18, 23, 19, 19, 22, 22]
7.265[19, 21, 19, 22, 19, 18, 20, 21]
7.28[19, 19, 19, 22, 19, 19, 19, 22]
7.31[19, 20, 17, 23, 21, 17, 19, 22]
7.325[21, 18, 19, 21, 22, 17, 19, 21]
7.339[21, 17, 18, 19, 22, 19, 19, 20]
7.362[20, 19, 19, 18, 22, 18, 19, 20]
7.385[19, 19, 21, 17, 21, 18, 20, 20]
7.4[18, 20, 21, 16, 19, 20, 21, 21]
7.43[16, 20, 21, 19, 18, 20, 19, 22]
7.445[17, 21, 21, 20, 18, 18, 20, 20]
7.46[17, 20, 21, 21, 17, 19, 21, 22]
7.483[17, 20, 20, 22, 17, 21, 21, 20]
7.505[18, 21, 21, 22, 19, 20, 20, 21]
7.528[19, 20, 20, 21, 19, 19, 22, 21]
7.543[17, 18, 21, 19, 18, 19, 21, 20]
7.565[19, 22, 19, 19, 19, 18, 22, 22]
7.588[19, 22, 20, 20, 19, 17, 20, 23]
7.602[20, 21, 19, 20, 18, 16, 20, 21]
7.625[22, 22, 20, 19, 18, 18, 19, 21]
7.648[23, 24, 21, 20, 18, 20, 21, 22]
7.662[22, 20, 22, 20, 18, 21, 19, 19]
7.685[22, 20, 21, 18, 17, 21, 20, 19]
7.708[21, 20, 22, 18, 18, 21, 20, 19]
7.722[18, 19, 21, 19, 19, 21, 19, 18]
7.745[17, 17, 21, 19, 18, 19, 18, 20]
7.768[17, 17, 21, 17, 19, 19, 20, 22]
7.782[16, 17, 19, 18, 20, 18, 21, 21]
7.805[15, 16, 21, 19, 21, 18, 20, 21]
7.827[15, 17, 21, 19, 21, 17, 20, 22]
7.842[16, 19, 21, 19, 23, 16, 22, 22]
7.873[16, 19, 20, 20, 22, 15, 21, 20]
7.895[16, 19, 23, 20, 22, 15, 21, 20]
7.903[17, 20, 23, 19, 22, 16, 21, 20]
7.925[17, 21, 23, 19, 25, 16, 23, 22]
7.947[16, 20, 22, 18, 22, 17, 21, 20]
7.962[17, 20, 23, 16, 22, 17, 20, 21]
7.985[18, 19, 20, 17, 22, 18, 20, 22]
8.008[19, 20, 20, 19, 22, 17, 18, 21]
8.021[19, 19, 18, 18, 17, 17, 18, 22]
8.045[18, 19, 18, 20, 17, 18, 19, 22]
8.067[17, 19, 19, 22, 20, 21, 20, 22]
8.089[15, 19, 21, 22, 19, 21, 21, 22]
8.113[14, 20, 21, 21, 19, 21, 24, 21]
8.127[15, 18, 22, 22, 20, 22, 23, 21]
8.151[16, 20, 24, 21, 20, 22, 22, 22]
8.172[18, 21, 23, 19, 20, 19, 22, 20]
8.187[18, 21, 21, 19, 18, 17, 23, 19]
8.203[20, 21, 21, 20, 18, 18, 21, 24]
8.226[18, 21, 19, 20, 18, 18, 21, 23]
8.247[18, 20, 18, 20, 18, 18, 22, 22]
8.263[19, 17, 18, 20, 16, 21, 22, 22]
8.286[18, 17, 18, 20, 17, 21, 20, 23]
8.307[19, 16, 19, 20, 16, 22, 21, 23]
8.323[19, 17, 19, 19, 19, 23, 20, 23]
8.353[19, 16, 20, 20, 19, 22, 21, 24]
8.367[18, 17, 20, 20, 21, 20, 21, 24]
8.383[19, 17, 20, 20, 21, 21, 22, 25]
8.406[18, 16, 21, 20, 22, 19, 21, 23]
8.426[20, 16, 23, 22, 21, 19, 22, 22]
8.45[22, 20, 23, 21, 24, 18, 28, 28]
8.466[22, 19, 24, 21, 23, 18, 29, 28]
8.487[22, 22, 25, 20, 23, 19, 29, 29]
8.509[23, 24, 25, 23, 23, 19, 28, 27]
8.524[22, 25, 25, 20, 22, 18, 28, 27]
8.547[22, 23, 24, 21, 21, 19, 19, 19]
8.569[20, 23, 22, 22, 21, 18, 19, 18]
8.584[22, 21, 24, 22, 21, 16, 17, 18]
8.606[19, 21, 27, 17, 22, 17, 20, 17]
8.631[20, 20, 26, 18, 22, 17, 20, 19]
8.644[18, 22, 27, 18, 21, 17, 21, 20]
8.667[18, 22, 27, 16, 20, 17, 21, 21]
8.689[16, 23, 26, 17, 20, 19, 24, 22]
8.704[17, 23, 22, 17, 19, 17, 24, 24]
8.727[17, 21, 21, 16, 19, 18, 24, 23]
8.749[18, 20, 21, 18, 20, 20, 23, 24]
8.764[17, 21, 22, 18, 20, 20, 23, 24]
8.787[19, 20, 20, 17, 19, 18, 21, 23]
8.809[19, 21, 21, 17, 19, 18, 20, 20]
8.824[18, 23, 23, 20, 20, 18, 19, 21]
8.847[18, 21, 23, 19, 21, 18, 19, 20]
8.869[18, 21, 25, 21, 23, 17, 19, 20]
8.884[17, 21, 26, 21, 23, 20, 23, 23]
8.906[18, 22, 25, 22, 22, 20, 25, 27]
8.93[19, 22, 22, 20, 22, 19, 26, 27]
8.946[17, 23, 22, 19, 20, 19, 26, 29]
8.967[19, 23, 18, 19, 18, 19, 26, 29]
8.989[19, 25, 19, 19, 18, 18, 24, 27]
9.004[19, 23, 19, 20, 17, 18, 22, 24]
9.027[20, 21, 21, 20, 19, 19, 22, 23]
9.049[20, 21, 21, 22, 19, 18, 22, 25]
9.064[20, 21, 21, 21, 18, 22, 21, 24]
9.094[20, 22, 21, 22, 17, 23, 18, 25]
9.109[19, 22, 21, 20, 17, 24, 21, 24]
9.124[19, 22, 20, 23, 19, 24, 22, 26]
9.147[19, 22, 20, 22, 17, 24, 21, 23]
9.169[19, 20, 21, 21, 19, 21, 22, 24]
9.184[19, 18, 19, 20, 22, 21, 21, 22]
9.207[18, 19, 20, 20, 23, 21, 19, 23]
9.229[17, 20, 18, 18, 22, 20, 17, 22]
9.244[19, 19, 18, 18, 23, 20, 18, 22]
9.267[18, 21, 17, 20, 21, 19, 18, 20]
9.289[19, 22, 17, 22, 20, 17, 19, 20]
9.304[19, 21, 17, 21, 22, 16, 20, 20]
9.327[21, 22, 20, 21, 23, 16, 21, 19]
9.349[22, 24, 20, 22, 23, 17, 20, 19]
9.364[22, 23, 21, 21, 23, 16, 20, 20]
9.386[21, 23, 23, 20, 22, 17, 19, 19]
9.409[20, 24, 23, 21, 21, 18, 17, 18]
9.432[19, 23, 22, 21, 21, 19, 16, 21]
9.447[18, 21, 23, 21, 22, 19, 16, 22]
9.469[17, 21, 22, 20, 22, 21, 16, 21]
9.492[21, 21, 21, 20, 22, 23, 18, 20]
9.507[22, 21, 21, 21, 24, 29, 23, 22]
9.529[31, 33, 65, 38, 38, 53, 40, 35]
9.56[34, 34, 68, 42, 43, 86, 84, 51]
9.566[36, 37, 69, 43, 46, 97, 91, 54]
9.589[35, 38, 72, 53, 50, 102, 93, 55]
9.62[37, 42, 75, 55, 64, 106, 115, 62]
9.626[30, 37, 47, 48, 63, 114, 117, 59]
9.65[30, 40, 45, 48, 67, 126, 113, 52]
9.68[30, 42, 52, 77, 75, 138, 117, 56]
9.687[31, 42, 53, 74, 75, 154, 117, 56]
9.71[28, 37, 49, 77, 64, 159, 103, 52]
9.733[29, 35, 50, 81, 58, 151, 108, 58]
9.746[25, 32, 58, 86, 52, 141, 95, 55]
9.769[24, 28, 52, 63, 53, 151, 106, 60]
9.792[24, 27, 47, 61, 52, 144, 112, 61]
9.807[26, 27, 47, 62, 53, 163, 126, 59]
9.829[26, 27, 46, 68, 54, 165, 123, 55]
9.852[28, 30, 38, 65, 54, 162, 130, 61]
9.866[26, 32, 42, 70, 40, 153, 127, 50]
9.889[24, 35, 44, 69, 41, 154, 125, 49]
9.912[26, 34, 45, 64, 44, 145, 109, 52]
9.927[28, 36, 47, 62, 44, 168, 127, 54]
9.949[27, 33, 55, 89, 105, 160, 119, 45]
9.972[27, 31, 56, 115, 150, 146, 106, 46]
9.988[30, 29, 54, 116, 157, 139, 122, 46]
10.009[31, 29, 54, 120, 158, 168, 139, 49]
10.032[29, 31, 52, 118, 159, 172, 124, 48]
10.047[30, 33, 45, 101, 131, 175, 120, 48]
10.069[29, 31, 39, 67, 80, 177, 142, 48]
10.092[31, 31, 40, 65, 69, 221, 155, 61]
10.122[31, 34, 52, 68, 67, 205, 145, 56]
10.129[30, 32, 53, 65, 81, 185, 146, 54]
10.152[30, 28, 50, 61, 86, 186, 154, 55]
10.166[32, 28, 49, 58, 84, 204, 150, 60]
10.189[30, 30, 51, 61, 81, 158, 130, 53]
10.212[29, 28, 39, 52, 79, 148, 124, 52]
10.241[30, 29, 37, 51, 72, 146, 122, 50]
10.252[29, 29, 43, 58, 72, 157, 123, 52]
10.272[27, 28, 43, 60, 75, 148, 113, 49]
10.287[26, 29, 42, 59, 80, 168, 108, 46]
10.309[25, 29, 43, 66, 81, 157, 105, 43]
10.332[26, 27, 45, 63, 77, 159, 112, 48]
10.346[27, 31, 42, 93, 67, 146, 124, 50]
10.369[27, 31, 47, 105, 63, 130, 118, 48]
10.392[29, 30, 49, 105, 55, 98, 113, 48]
10.415[27, 29, 46, 101, 51, 95, 113, 49]
10.429[25, 30, 46, 103, 47, 83, 102, 42]
10.452[24, 30, 48, 76, 41, 80, 82, 38]
10.476[26, 31, 46, 69, 42, 84, 81, 37]
10.489[25, 29, 41, 77, 43, 80, 79, 34]
10.511[25, 29, 39, 75, 43, 77, 74, 31]
10.535[25, 28, 39, 77, 46, 96, 77, 34]
10.549[23, 23, 35, 70, 45, 111, 66, 34]
10.571[20, 23, 34, 61, 43, 109, 65, 32]
10.595[22, 24, 44, 72, 42, 105, 65, 44]
10.609[23, 23, 48, 83, 49, 106, 82, 45]
10.632[22, 22, 47, 81, 41, 90, 79, 43]
10.655[24, 24, 45, 83, 40, 75, 82, 46]
10.669[25, 24, 45, 88, 40, 77, 82, 48]
10.692[23, 24, 42, 78, 40, 77, 89, 36]
10.715[24, 23, 42, 81, 31, 75, 73, 39]
10.729[29, 29, 52, 84, 33, 106, 100, 51]
10.752[29, 30, 52, 88, 50, 103, 103, 47]
10.775[27, 32, 53, 106, 54, 102, 103, 49]
10.789[28, 33, 54, 103, 54, 106, 96, 50]
10.812[30, 35, 57, 99, 57, 112, 114, 54]
10.834[29, 36, 55, 110, 65, 90, 107, 45]
10.849[32, 35, 56, 112, 91, 106, 126, 58]
10.871[34, 33, 54, 125, 99, 120, 132, 57]
10.895[36, 33, 50, 126, 109, 123, 135, 56]
10.909[33, 40, 62, 125, 115, 121, 132, 53]
10.932[31, 38, 58, 115, 112, 115, 139, 55]
10.955[34, 44, 67, 116, 101, 98, 121, 45]
10.969[35, 45, 69, 87, 100, 81, 114, 44]
10.992[37, 46, 73, 103, 115, 79, 113, 50]
11.015[39, 38, 59, 107, 113, 76, 104, 51]
11.029[40, 37, 56, 114, 112, 77, 113, 52]
11.052[35, 32, 46, 113, 101, 76, 107, 49]
11.075[33, 32, 51, 107, 91, 80, 106, 47]
11.089[30, 34, 49, 93, 56, 75, 107, 41]
11.112[30, 40, 49, 104, 45, 73, 108, 37]
11.135[33, 51, 73, 105, 41, 77, 74, 32]
11.149[33, 50, 75, 108, 36, 78, 78, 39]
11.172[32, 48, 73, 109, 37, 69, 75, 43]
11.195[31, 46, 73, 105, 32, 67, 86, 45]
11.209[29, 41, 74, 89, 32, 69, 81, 45]
11.232[23, 28, 52, 72, 32, 63, 76, 45]
11.255[23, 27, 52, 61, 31, 57, 75, 38]
11.269[22, 28, 52, 74, 31, 60, 92, 36]
11.291[21, 29, 53, 81, 31, 57, 75, 32]
11.315[22, 30, 50, 77, 37, 62, 72, 33]
11.337[20, 30, 50, 79, 38, 61, 76, 30]
11.351[22, 29, 44, 75, 38, 62, 84, 30]
11.375[23, 29, 37, 57, 37, 60, 70, 29]
11.405[24, 27, 28, 46, 44, 68, 69, 29]
11.411[25, 28, 35, 73, 43, 64, 82, 31]
11.435[27, 26, 36, 78, 43, 64, 80, 32]
11.457[24, 26, 37, 77, 42, 64, 73, 30]
11.472[23, 25, 47, 79, 44, 63, 75, 28]
11.495[22, 23, 48, 79, 35, 51, 77, 28]
11.517[20, 23, 47, 57, 31, 55, 63, 26]
11.531[18, 24, 46, 52, 30, 53, 76, 25]
11.555[22, 28, 48, 61, 33, 52, 71, 29]
11.577[24, 28, 39, 62, 32, 51, 67, 30]
11.591[24, 29, 47, 61, 30, 56, 69, 27]
11.615[24, 27, 47, 61, 29, 54, 82, 27]
11.637[25, 27, 46, 57, 30, 54, 72, 26]
11.652[22, 24, 46, 53, 26, 53, 69, 23]
11.683[22, 23, 43, 47, 24, 51, 66, 22]
11.697[22, 22, 36, 53, 23, 47, 71, 23]
11.712[21, 20, 30, 52, 26, 42, 65, 23]
11.735[21, 23, 42, 63, 24, 41, 59, 24]
11.757[22, 22, 42, 65, 25, 46, 63, 24]
11.772[18, 23, 45, 68, 25, 58, 77, 25]
11.795[21, 24, 45, 63, 27, 64, 75, 24]
11.817[21, 27, 52, 61, 25, 64, 72, 23]
11.831[21, 26, 46, 52, 25, 70, 73, 23]
11.855[20, 27, 47, 44, 27, 70, 95, 22]
11.877[22, 28, 53, 65, 27, 60, 87, 24]
11.892[19, 29, 58, 65, 29, 75, 88, 25]
11.915[19, 29, 49, 63, 31, 79, 86, 27]
11.937[20, 29, 48, 64, 31, 75, 98, 27]
11.952[21, 32, 48, 70, 29, 76, 77, 28]
11.975[20, 31, 38, 49, 29, 77, 77, 28]
11.997[21, 31, 37, 53, 27, 64, 82, 28]
12.011[21, 29, 38, 56, 25, 77, 84, 28]
12.034[21, 29, 36, 53, 24, 81, 70, 28]
12.057[18, 25, 34, 48, 25, 77, 70, 29]
12.072[20, 25, 45, 51, 25, 81, 89, 30]
12.094[23, 23, 45, 49, 22, 82, 83, 31]
12.117[22, 24, 46, 49, 23, 67, 87, 29]
12.14[23, 24, 48, 52, 22, 61, 89, 32]
12.154[23, 23, 47, 54, 22, 64, 89, 33]
12.177[22, 22, 40, 55, 21, 56, 71, 29]
12.192[20, 24, 38, 52, 21, 60, 89, 30]
12.215[19, 24, 44, 60, 20, 60, 84, 30]
12.237[18, 22, 42, 57, 22, 59, 87, 27]
12.252[18, 22, 41, 51, 22, 57, 94, 25]
12.275[18, 22, 41, 52, 24, 74, 98, 26]
12.297[17, 23, 44, 68, 27, 79, 99, 33]
12.32[20, 24, 43, 62, 27, 96, 109, 35]
12.334[22, 27, 45, 64, 29, 105, 108, 37]
12.357[23, 27, 47, 64, 29, 104, 102, 36]
12.38[23, 27, 51, 63, 26, 94, 95, 36]
12.395[23, 27, 44, 44, 26, 88, 96, 30]
12.417[23, 26, 42, 39, 25, 69, 82, 27]
12.44[21, 24, 40, 40, 21, 54, 79, 24]
12.455[23, 24, 40, 42, 21, 54, 76, 23]
12.485[25, 24, 37, 37, 23, 55, 79, 24]
12.5[25, 23, 38, 38, 20, 41, 56, 20]
12.515[23, 22, 32, 37, 21, 39, 53, 21]
12.537[23, 21, 36, 37, 22, 41, 54, 21]
12.56[22, 24, 37, 39, 21, 40, 54, 23]
12.575[21, 23, 34, 38, 20, 42, 60, 23]
12.597[22, 23, 36, 38, 21, 48, 63, 25]
12.62[22, 24, 39, 40, 23, 48, 66, 26]
12.635[22, 25, 38, 37, 22, 49, 66, 28]
12.657[21, 23, 38, 32, 25, 53, 76, 27]
12.68[20, 24, 38, 33, 25, 53, 70, 27]
12.695[21, 26, 40, 47, 26, 51, 62, 24]
12.717[23, 24, 38, 44, 25, 50, 59, 26]
12.74[23, 23, 38, 45, 24, 51, 76, 22]
12.755[22, 23, 35, 44, 24, 45, 67, 24]
12.778[23, 23, 37, 47, 24, 60, 67, 23]
12.8[21, 22, 35, 37, 24, 63, 74, 24]
12.814[20, 24, 39, 45, 25, 64, 86, 24]
12.837[21, 23, 44, 54, 26, 64, 71, 23]
12.86[22, 24, 46, 57, 26, 66, 77, 23]
12.874[21, 27, 47, 53, 27, 54, 81, 25]
12.897[21, 26, 44, 52, 25, 49, 85, 25]
12.92[21, 25, 40, 47, 23, 49, 74, 25]
12.934[22, 26, 33, 35, 22, 47, 75, 26]
12.957[20, 25, 32, 31, 21, 44, 70, 25]
12.98[20, 21, 30, 33, 21, 37, 68, 22]
12.994[19, 20, 31, 37, 22, 32, 57, 22]
13.018[20, 23, 31, 39, 23, 29, 56, 20]
13.039[21, 23, 38, 43, 24, 33, 52, 20]
13.061[23, 20, 37, 44, 24, 40, 58, 22]
13.078[23, 21, 39, 45, 25, 51, 75, 25]
13.099[24, 23, 38, 39, 25, 52, 74, 24]
13.121[23, 22, 39, 41, 25, 55, 77, 27]
13.138[21, 22, 32, 40, 24, 56, 78, 27]
13.166[18, 24, 40, 51, 26, 54, 89, 27]
13.181[18, 23, 37, 48, 24, 47, 73, 27]
13.198[16, 21, 39, 50, 24, 48, 79, 29]
13.226[17, 21, 37, 47, 25, 45, 80, 28]
13.241[19, 23, 39, 51, 25, 42, 85, 30]
13.258[20, 21, 31, 40, 23, 40, 69, 29]
13.279[19, 24, 36, 41, 25, 36, 67, 28]
13.301[20, 25, 36, 39, 24, 35, 62, 29]
13.318[19, 23, 37, 39, 22, 33, 55, 27]
13.339[18, 22, 36, 37, 22, 34, 50, 25]
13.362[18, 23, 36, 38, 22, 33, 74, 29]
13.378[19, 20, 29, 38, 19, 31, 75, 27]
13.399[18, 22, 33, 45, 20, 46, 94, 30]
13.421[18, 22, 43, 55, 20, 62, 104, 32]
13.438[19, 22, 41, 53, 23, 63, 104, 34]
13.459[20, 23, 42, 53, 26, 70, 92, 32]
13.481[22, 28, 51, 62, 28, 72, 95, 31]
13.498[23, 27, 48, 58, 26, 62, 80, 26]
13.519[25, 27, 40, 48, 28, 53, 67, 26]
13.541[24, 27, 42, 45, 26, 61, 77, 25]
13.558[22, 26, 42, 45, 23, 55, 73, 24]
13.579[21, 22, 32, 35, 21, 53, 72, 24]
13.602[21, 22, 38, 43, 22, 56, 66, 24]
13.618[18, 22, 39, 46, 21, 54, 72, 20]
13.639[19, 22, 38, 48, 23, 53, 57, 19]
13.661[21, 23, 42, 53, 24, 54, 68, 18]
13.678[22, 24, 42, 54, 26, 54, 66, 20]
13.699[22, 24, 36, 49, 25, 58, 71, 20]
13.723[22, 25, 36, 48, 27, 59, 64, 21]
13.738[22, 24, 34, 44, 26, 51, 65, 23]
13.759[20, 24, 28, 36, 24, 51, 62, 24]
13.781[19, 23, 25, 30, 24, 52, 63, 23]
13.798[18, 22, 25, 26, 23, 45, 61, 23]
13.819[19, 21, 21, 23, 24, 44, 68, 23]
13.841[20, 21, 23, 28, 25, 55, 81, 21]
13.856[22, 21, 26, 36, 27, 62, 85, 24]
13.879[21, 21, 26, 35, 26, 65, 87, 24]
13.901[21, 22, 30, 42, 26, 68, 85, 26]
13.917[20, 22, 31, 41, 24, 69, 88, 24]
13.939[18, 23, 32, 41, 25, 61, 76, 26]
13.962[18, 23, 31, 35, 23, 55, 65, 22]
13.976[18, 23, 37, 47, 22, 51, 64, 22]
14.0[18, 21, 35, 46, 21, 48, 70, 20]
14.03[21, 22, 41, 51, 22, 49, 60, 20]
14.036[22, 23, 39, 49, 21, 47, 62, 21]
14.059[21, 23, 42, 52, 23, 49, 64, 23]
14.089[24, 24, 36, 42, 23, 48, 60, 24]
14.096[27, 24, 37, 37, 24, 49, 66, 26]
14.119[24, 22, 37, 31, 22, 43, 70, 25]
14.141[23, 22, 39, 35, 22, 41, 67, 23]
14.164[26, 24, 39, 35, 21, 38, 76, 24]
14.179[24, 23, 41, 37, 23, 38, 78, 23]
14.201[20, 24, 41, 37, 22, 39, 69, 23]
14.224[21, 25, 44, 46, 22, 37, 64, 27]
14.239[22, 24, 41, 44, 22, 45, 63, 28]
14.261[19, 21, 37, 44, 22, 44, 63, 26]
14.284[19, 23, 36, 45, 20, 48, 65, 27]
14.3[18, 23, 41, 50, 22, 50, 64, 27]
14.321[19, 22, 35, 44, 21, 50, 64, 23]
14.344[20, 23, 38, 45, 20, 46, 71, 21]
14.359[20, 21, 38, 42, 21, 46, 60, 23]
14.381[21, 21, 38, 48, 22, 41, 51, 23]
14.404[21, 22, 33, 42, 22, 45, 49, 23]
14.419[21, 21, 30, 38, 24, 48, 61, 23]
14.441[22, 22, 30, 42, 27, 49, 56, 23]
14.464[24, 24, 30, 47, 27, 50, 55, 22]
14.479[25, 26, 36, 46, 26, 49, 56, 20]
14.501[24, 25, 35, 50, 24, 41, 60, 21]
14.524[24, 25, 35, 51, 23, 45, 60, 22]
14.539[22, 24, 33, 47, 19, 42, 56, 22]
14.561[21, 24, 35, 42, 20, 45, 54, 26]
14.584[19, 25, 32, 35, 21, 48, 54, 27]
14.599[19, 27, 32, 29, 23, 59, 50, 25]
14.621[18, 27, 33, 35, 24, 61, 55, 25]
14.644[20, 27, 31, 35, 23, 62, 60, 26]
14.659[18, 27, 36, 38, 21, 63, 70, 21]
14.681[18, 25, 34, 38, 21, 68, 72, 22]
14.704[21, 25, 33, 36, 21, 61, 71, 23]
14.719[19, 25, 35, 35, 19, 54, 75, 23]
14.741[20, 27, 38, 37, 20, 55, 79, 22]
14.772[21, 27, 40, 45, 20, 49, 72, 23]
14.779[20, 28, 42, 46, 20, 36, 71, 21]
14.809[19, 26, 44, 53, 18, 34, 75, 21]
14.824[19, 26, 45, 49, 20, 35, 69, 22]
14.839[17, 25, 43, 49, 21, 37, 69, 20]
14.861[17, 23, 36, 41, 21, 38, 74, 21]
14.884[17, 23, 36, 52, 22, 44, 75, 22]
14.899[18, 23, 34, 46, 24, 46, 81, 21]
14.921[20, 23, 34, 48, 22, 46, 76, 23]
14.953[19, 23, 36, 50, 21, 42, 69, 22]
14.959[24, 22, 41, 55, 22, 45, 72, 23]
14.983[24, 23, 36, 43, 21, 44, 77, 23]
15.004[25, 24, 36, 43, 22, 56, 73, 24]
15.027[23, 25, 33, 42, 21, 62, 72, 24]
15.041[25, 25, 30, 44, 23, 65, 81, 25]
15.064[22, 26, 28, 37, 21, 66, 79, 27]
15.079[22, 25, 32, 37, 23, 68, 74, 27]
15.101[20, 25, 39, 40, 24, 56, 70, 29]
15.124[20, 27, 40, 39, 25, 50, 73, 28]
15.146[21, 26, 41, 44, 24, 53, 68, 27]
15.161[20, 25, 40, 42, 25, 56, 64, 24]
15.184[21, 24, 37, 42, 23, 50, 62, 25]
15.206[20, 26, 33, 41, 21, 51, 66, 23]
15.23[22, 24, 32, 46, 20, 50, 65, 22]
15.244[22, 23, 32, 42, 20, 46, 61, 23]
15.266[20, 23, 31, 43, 19, 35, 57, 22]
15.289[19, 23, 34, 45, 19, 38, 62, 20]
15.304[19, 20, 36, 46, 20, 48, 83, 22]
15.327[18, 18, 36, 42, 20, 53, 81, 23]
15.341[18, 21, 34, 36, 19, 51, 85, 24]
15.364[18, 23, 39, 37, 22, 53, 85, 24]
15.386[19, 23, 41, 41, 22, 54, 84, 25]
15.401[19, 24, 42, 53, 20, 49, 74, 23]
15.424[20, 25, 42, 56, 25, 53, 81, 26]
15.447[19, 24, 41, 58, 27, 61, 78, 25]
15.461[20, 23, 37, 55, 26, 60, 77, 24]
15.484[21, 24, 36, 52, 27, 59, 77, 23]
15.506[21, 24, 29, 43, 26, 54, 60, 24]
15.521[20, 24, 29, 38, 23, 50, 54, 19]
15.544[20, 23, 29, 37, 22, 45, 70, 22]
15.566[20, 28, 29, 37, 20, 60, 87, 25]
15.581[22, 26, 27, 45, 20, 68, 90, 26]
15.604[22, 25, 31, 49, 23, 73, 94, 28]
15.628[23, 28, 35, 52, 21, 71, 94, 31]
15.641[24, 30, 36, 53, 24, 69, 93, 29]
15.664[24, 26, 38, 56, 25, 58, 78, 28]
15.687[23, 25, 37, 50, 25, 58, 77, 30]
15.701[23, 27, 32, 40, 23, 55, 78, 27]
15.724[22, 24, 29, 39, 23, 56, 81, 24]
15.747[21, 24, 29, 38, 20, 58, 67, 23]
15.761[21, 23, 28, 40, 20, 62, 67, 21]
15.784[20, 25, 27, 39, 20, 61, 62, 17]
15.807[21, 24, 26, 40, 24, 63, 74, 17]
15.821[20, 23, 24, 36, 23, 69, 69, 18]
15.844[21, 23, 31, 39, 24, 76, 74, 22]
15.867[21, 24, 32, 35, 24, 73, 73, 21]
15.881[21, 22, 32, 37, 24, 72, 96, 23]
15.904[21, 23, 38, 43, 20, 68, 91, 30]
15.927[23, 25, 40, 44, 22, 62, 87, 30]
15.941[20, 25, 35, 40, 22, 52, 87, 31]
15.972[19, 22, 35, 40, 21, 48, 92, 33]
15.987[18, 22, 35, 36, 20, 41, 73, 34]
16.001[19, 25, 34, 32, 23, 42, 65, 28]
16.024[18, 23, 34, 30, 20, 38, 72, 27]
16.047[19, 23, 37, 38, 21, 38, 86, 25]
16.069[20, 24, 35, 37, 23, 43, 81, 24]
16.084[20, 26, 35, 37, 24, 47, 76, 22]
16.107[18, 25, 32, 37, 23, 46, 81, 23]
16.129[17, 26, 28, 37, 24, 48, 84, 25]
16.144[17, 26, 29, 32, 23, 47, 70, 23]
16.167[17, 27, 30, 36, 22, 44, 69, 24]
16.189[16, 26, 31, 35, 21, 46, 83, 24]
16.204[19, 23, 30, 35, 21, 46, 77, 24]
16.227[21, 23, 31, 35, 21, 44, 70, 24]
16.249[20, 21, 28, 32, 21, 48, 72, 24]
16.264[22, 21, 26, 30, 21, 53, 81, 25]
16.287[22, 21, 26, 33, 19, 47, 68, 26]
16.31[19, 25, 30, 30, 19, 51, 73, 26]
16.324[18, 25, 28, 29, 18, 52, 85, 25]
16.347[20, 25, 29, 30, 20, 55, 85, 30]
16.369[19, 23, 29, 27, 19, 55, 81, 29]
16.384[20, 25, 39, 32, 22, 61, 102, 32]
16.407[20, 23, 36, 33, 22, 65, 102, 31]
16.43[21, 23, 37, 34, 22, 63, 92, 30]
16.444[20, 24, 37, 34, 21, 60, 90, 29]
16.467[22, 24, 36, 33, 22, 56, 96, 28]
16.489[23, 37, 24, 28, 21, 56, 75, 26]
16.504[24, 45, 27, 40, 20, 78, 80, 28]
16.527[23, 49, 30, 41, 20, 87, 83, 31]
16.549[24, 49, 28, 42, 19, 85, 79, 27]
16.564[24, 50, 29, 43, 20, 87, 81, 30]
16.588[23, 40, 29, 41, 22, 87, 86, 30]
16.61[23, 29, 26, 27, 21, 67, 79, 26]
16.624[22, 23, 28, 30, 23, 61, 78, 28]
16.647[23, 25, 30, 28, 23, 62, 77, 30]
16.669[22, 26, 31, 31, 24, 60, 66, 27]
16.684[21, 27, 31, 33, 22, 56, 56, 25]
16.715[21, 26, 31, 35, 23, 48, 63, 29]
16.729[22, 25, 25, 31, 20, 42, 69, 29]
16.744[21, 23, 25, 35, 22, 41, 70, 28]
16.767[21, 21, 27, 35, 22, 38, 71, 27]
16.79[22, 22, 31, 34, 22, 48, 97, 30]
16.804[21, 21, 32, 32, 22, 48, 90, 27]
16.827[20, 21, 33, 33, 23, 48, 84, 23]
16.849[19, 22, 30, 31, 22, 47, 87, 26]
16.864[19, 21, 30, 32, 23, 47, 94, 26]
16.887[20, 21, 28, 33, 23, 44, 69, 25]
16.909[19, 21, 26, 32, 22, 55, 66, 25]
16.924[19, 22, 25, 32, 23, 58, 71, 25]
16.955[19, 24, 33, 35, 23, 58, 68, 23]
16.969[18, 24, 33, 33, 21, 58, 60, 25]
16.992[19, 23, 33, 34, 21, 51, 55, 24]
17.007[20, 24, 34, 35, 22, 46, 65, 26]
17.029[20, 25, 36, 45, 21, 43, 67, 25]
17.052[20, 23, 29, 40, 22, 50, 65, 23]
17.067[22, 22, 31, 40, 22, 53, 68, 23]
17.089[21, 22, 30, 37, 24, 57, 73, 23]
17.112[21, 21, 33, 36, 24, 61, 89, 28]
17.127[20, 19, 29, 25, 25, 66, 87, 29]
17.149[21, 19, 30, 27, 24, 59, 87, 29]
17.172[17, 19, 26, 28, 26, 60, 93, 33]
17.187[17, 20, 26, 29, 23, 55, 97, 32]
17.209[17, 20, 21, 29, 24, 46, 78, 29]
17.232[18, 21, 30, 32, 23, 47, 80, 29]
17.247[19, 21, 32, 34, 23, 49, 83, 30]
17.269[21, 20, 32, 34, 21, 50, 87, 25]
17.292[21, 21, 35, 37, 24, 56, 83, 25]
17.307[21, 21, 39, 41, 23, 58, 87, 23]
17.329[21, 22, 34, 38, 24, 55, 83, 22]
17.352[20, 22, 34, 36, 24, 53, 95, 20]
17.367[19, 23, 34, 34, 23, 52, 88, 22]
17.389[19, 23, 32, 33, 23, 52, 84, 22]
17.412[20, 22, 28, 38, 24, 53, 77, 22]
17.427[20, 21, 27, 38, 23, 55, 84, 22]
17.449[20, 25, 25, 37, 23, 56, 66, 21]
17.472[20, 24, 24, 39, 24, 51, 61, 18]
17.487[19, 23, 23, 38, 22, 45, 62, 22]
17.509[18, 25, 21, 28, 20, 52, 63, 22]
17.532[21, 26, 27, 34, 20, 47, 62, 22]
17.546[19, 22, 27, 34, 22, 47, 65, 24]
17.569[20, 22, 27, 33, 21, 47, 64, 30]
17.592[22, 21, 30, 33, 23, 50, 62, 26]
17.606[21, 21, 34, 35, 23, 42, 87, 29]
17.629[20, 21, 30, 29, 24, 42, 84, 29]
17.653[23, 21, 31, 32, 23, 46, 88, 33]
17.666[21, 23, 33, 31, 23, 50, 87, 28]
17.69[20, 24, 31, 31, 23, 50, 88, 27]
17.712[21, 24, 28, 28, 24, 46, 71, 27]
17.726[21, 25, 31, 29, 23, 45, 65, 26]
17.75[21, 27, 31, 30, 22, 42, 54, 20]
17.772[20, 26, 29, 30, 23, 41, 56, 21]
17.786[21, 28, 28, 28, 22, 43, 73, 23]
17.809[21, 28, 29, 27, 21, 42, 66, 23]
17.832[20, 29, 34, 33, 20, 44, 67, 24]
17.846[18, 28, 34, 31, 20, 44, 67, 24]
17.87[20, 27, 35, 31, 19, 43, 70, 25]
17.892[22, 26, 36, 30, 19, 43, 77, 25]
17.906[22, 23, 35, 30, 18, 54, 76, 24]
17.929[22, 20, 33, 28, 19, 56, 77, 25]
17.951[22, 19, 31, 25, 19, 57, 85, 24]
17.973[22, 18, 33, 27, 20, 56, 83, 23]
17.996[21, 18, 32, 27, 20, 54, 59, 20]
18.011[19, 19, 35, 26, 21, 43, 59, 19]
18.035[19, 22, 32, 24, 22, 49, 88, 21]
18.05[19, 22, 33, 32, 23, 52, 84, 22]
18.079[19, 22, 31, 31, 22, 50, 82, 22]
18.101[18, 23, 30, 36, 22, 49, 83, 24]
18.11[18, 25, 29, 41, 22, 54, 93, 26]
18.139[18, 22, 27, 43, 19, 52, 67, 26]
18.162[18, 22, 30, 39, 19, 56, 72, 26]
18.17[18, 22, 30, 40, 20, 58, 72, 26]
18.193[20, 22, 36, 38, 20, 57, 72, 25]
18.214[19, 22, 33, 34, 21, 55, 70, 24]
18.23[19, 23, 33, 34, 23, 53, 71, 24]
18.251[19, 26, 30, 32, 22, 43, 63, 22]
18.281[19, 26, 30, 32, 21, 43, 62, 22]
18.29[19, 31, 27, 29, 23, 44, 65, 22]
18.319[21, 60, 29, 30, 22, 42, 70, 21]
18.35[24, 62, 30, 25, 22, 35, 72, 21]
18.351[23, 65, 30, 25, 22, 34, 72, 22]
18.371[23, 69, 37, 34, 20, 31, 72, 22]
18.394[25, 67, 34, 37, 19, 35, 70, 22]
18.41[26, 43, 34, 36, 19, 39, 61, 26]
18.439[24, 41, 34, 35, 19, 46, 53, 24]
18.454[24, 34, 34, 35, 19, 47, 54, 26]
18.478[25, 28, 30, 24, 22, 49, 58, 27]
18.499[24, 25, 33, 31, 21, 47, 67, 28]
18.514[20, 23, 33, 32, 22, 45, 61, 26]
18.53[20, 24, 32, 32, 21, 38, 69, 28]
18.551[21, 24, 32, 32, 22, 39, 78, 27]
18.574[20, 26, 31, 34, 19, 44, 83, 26]
18.59[19, 34, 27, 26, 20, 47, 76, 26]
18.611[20, 49, 29, 35, 21, 46, 74, 25]
18.634[19, 50, 31, 37, 22, 44, 72, 22]
18.65[20, 75, 36, 39, 21, 42, 71, 22]
18.671[19, 79, 39, 39, 22, 39, 67, 24]
18.695[20, 77, 40, 40, 22, 38, 69, 24]
18.718[22, 68, 39, 35, 22, 44, 71, 23]
18.731[22, 66, 39, 36, 21, 43, 72, 22]
18.755[21, 47, 37, 36, 23, 45, 80, 22]
18.777[25, 39, 32, 35, 22, 42, 79, 23]
18.799[24, 47, 33, 34, 21, 40, 76, 21]
18.814[24, 70, 36, 36, 23, 32, 77, 20]
18.83[24, 74, 36, 36, 22, 35, 87, 25]
18.851[24, 80, 36, 34, 21, 35, 74, 23]
18.874[23, 84, 36, 35, 22, 37, 72, 23]
18.896[23, 86, 36, 36, 22, 48, 75, 23]
18.911[20, 73, 30, 28, 20, 52, 79, 27]
18.934[21, 71, 34, 30, 21, 58, 92, 27]
18.957[18, 57, 31, 31, 22, 58, 98, 29]
18.971[16, 50, 34, 31, 22, 56, 99, 27]
18.994[26, 54, 36, 33, 45, 49, 98, 178]
19.016[31, 59, 37, 37, 51, 45, 95, 197]
19.032[30, 59, 39, 32, 52, 36, 65, 199]
19.054[35, 58, 39, 35, 54, 41, 56, 217]
19.085[46, 70, 74, 244, 235, 69, 79, 252]
19.091[60, 63, 85, 274, 260, 76, 124, 270]
19.114[60, 57, 86, 283, 263, 79, 126, 273]
19.137[61, 68, 84, 291, 269, 78, 125, 275]
19.151[62, 68, 86, 298, 273, 76, 125, 264]
19.174[56, 56, 57, 176, 150, 53, 110, 234]
19.197[36, 52, 38, 125, 94, 37, 47, 124]
19.211[31, 48, 33, 102, 83, 33, 37, 83]
19.234[29, 29, 32, 76, 60, 33, 37, 70]
19.256[25, 27, 24, 48, 36, 31, 29, 57]
19.271[22, 29, 26, 42, 28, 28, 29, 45]
19.293[22, 27, 26, 38, 25, 27, 25, 30]
19.316[20, 26, 27, 39, 26, 25, 28, 31]
19.331[32, 28, 28, 57, 26, 24, 64, 233]
19.353[31, 28, 37, 135, 53, 24, 66, 245]
19.376[34, 28, 37, 146, 59, 27, 68, 251]
19.407[34, 32, 39, 148, 62, 29, 69, 255]
19.414[34, 53, 39, 150, 62, 28, 68, 257]
19.436[25, 53, 38, 148, 65, 28, 35, 117]
19.451[30, 54, 31, 83, 53, 30, 49, 175]
19.474[28, 55, 28, 99, 65, 29, 47, 176]
19.496[28, 55, 27, 100, 66, 27, 47, 175]
19.512[28, 35, 29, 103, 77, 29, 47, 175]
19.533[33, 34, 30, 105, 101, 30, 65, 216]
19.556[29, 34, 29, 111, 117, 30, 74, 217]
19.579[34, 31, 28, 76, 110, 30, 86, 266]
19.594[36, 27, 27, 70, 109, 31, 89, 269]
19.616[37, 27, 22, 66, 105, 34, 90, 270]
19.631[32, 27, 28, 93, 104, 37, 79, 236]
19.654[33, 27, 30, 93, 84, 38, 73, 239]
19.676[28, 24, 30, 95, 82, 37, 61, 183]
19.691[29, 24, 31, 97, 83, 39, 60, 182]
19.714[28, 23, 32, 97, 86, 38, 61, 184]
19.736[34, 27, 32, 109, 116, 37, 88, 254]
19.751[33, 28, 38, 135, 132, 38, 80, 210]
19.774[36, 29, 39, 139, 138, 40, 86, 231]
19.804[34, 28, 38, 140, 141, 37, 85, 232]
19.812[35, 29, 38, 144, 142, 38, 86, 233]
19.834[33, 28, 36, 115, 140, 37, 78, 262]
19.856[33, 27, 31, 74, 129, 36, 80, 265]
19.879[30, 27, 30, 71, 132, 35, 73, 244]
19.894[32, 28, 33, 68, 131, 36, 80, 250]
19.916[41, 32, 36, 75, 129, 32, 105, 335]
19.939[39, 30, 34, 80, 84, 33, 93, 274]
19.954[37, 31, 31, 81, 76, 33, 92, 272]
19.976[38, 29, 31, 77, 64, 34, 91, 270]
19.999[36, 27, 30, 85, 74, 34, 84, 261]
20.014[28, 24, 29, 82, 80, 37, 58, 174]
20.036[30, 22, 28, 88, 87, 34, 73, 230]
20.059[30, 19, 28, 98, 91, 38, 83, 236]
20.074[29, 23, 29, 108, 87, 36, 84, 236]
20.096[31, 22, 28, 103, 81, 36, 85, 237]
20.119[38, 30, 46, 192, 175, 45, 99, 290]
20.134[40, 34, 54, 228, 188, 50, 96, 249]
20.164[40, 33, 54, 227, 186, 49, 108, 246]
20.179[42, 34, 54, 223, 187, 49, 111, 248]
20.195[44, 35, 56, 231, 192, 51, 119, 295]
20.224[35, 27, 46, 185, 127, 41, 102, 218]
20.239[30, 23, 40, 148, 127, 37, 92, 199]
20.254[35, 27, 40, 152, 142, 35, 92, 254]
20.285[35, 27, 43, 166, 144, 35, 92, 271]
20.299[37, 28, 42, 178, 150, 35, 83, 230]
20.314[35, 30, 39, 164, 147, 34, 82, 226]
20.336[36, 29, 36, 158, 129, 33, 83, 232]
20.359[29, 27, 35, 154, 113, 32, 51, 158]
20.374[26, 25, 31, 141, 109, 30, 43, 119]
20.396[21, 23, 29, 114, 96, 28, 35, 90]
20.419[23, 22, 26, 101, 87, 30, 46, 130]
20.434[30, 21, 24, 85, 82, 30, 67, 214]
20.456[32, 21, 22, 82, 83, 29, 75, 229]
20.479[32, 23, 25, 77, 84, 30, 75, 233]
20.494[33, 24, 24, 69, 75, 29, 76, 235]
20.517[31, 25, 25, 68, 57, 28, 69, 213]
20.547[28, 26, 27, 73, 71, 30, 61, 167]
20.554[33, 29, 33, 71, 139, 30, 74, 235]
20.576[35, 30, 34, 73, 146, 31, 78, 246]
20.599[35, 31, 34, 69, 147, 30, 79, 253]
20.614[35, 29, 33, 67, 145, 29, 80, 254]
20.636[33, 30, 33, 67, 139, 27, 69, 228]
20.659[37, 28, 29, 66, 75, 26, 82, 259]
20.674[36, 25, 29, 75, 62, 24, 81, 261]
20.696[37, 27, 29, 76, 57, 26, 81, 261]
20.719[37, 28, 32, 74, 73, 26, 82, 263]
20.734[36, 26, 30, 67, 74, 28, 83, 263]
20.756[25, 25, 29, 60, 68, 27, 53, 146]
20.779[23, 26, 25, 42, 64, 28, 48, 111]
20.802[22, 21, 24, 40, 65, 26, 57, 174]
20.816[24, 22, 20, 30, 49, 27, 58, 177]
20.839[23, 21, 24, 48, 63, 26, 57, 173]
20.862[23, 22, 25, 67, 63, 26, 49, 166]
20.876[23, 23, 24, 74, 60, 26, 53, 168]
20.899[21, 23, 26, 75, 59, 26, 39, 83]
20.923[21, 22, 28, 79, 60, 34, 35, 60]
20.936[22, 22, 25, 71, 44, 33, 35, 57]
20.959[23, 24, 25, 61, 48, 34, 42, 99]
20.982[22, 22, 27, 60, 61, 36, 42, 136]
20.996[24, 22, 26, 59, 61, 37, 43, 138]
21.027[24, 21, 24, 53, 57, 29, 41, 140]
21.042[25, 21, 23, 49, 55, 26, 42, 142]
21.056[22, 20, 21, 42, 55, 26, 34, 115]
21.079[21, 20, 20, 30, 41, 24, 26, 63]
21.102[21, 20, 19, 31, 41, 23, 27, 49]
21.116[21, 21, 21, 32, 42, 24, 33, 48]
21.139[21, 22, 21, 36, 53, 25, 40, 91]
21.162[25, 22, 23, 36, 52, 26, 48, 147]
21.176[25, 21, 24, 38, 55, 25, 50, 159]
21.199[25, 19, 24, 36, 54, 26, 50, 160]
21.222[24, 19, 22, 34, 53, 26, 46, 161]
21.236[22, 20, 23, 32, 41, 26, 45, 143]
21.259[18, 17, 22, 27, 36, 23, 35, 85]
21.282[17, 17, 21, 27, 32, 24, 32, 57]
21.296[17, 20, 22, 38, 48, 23, 30, 52]
21.319[17, 21, 23, 39, 47, 22, 30, 46]
21.342[34, 21, 23, 42, 52, 24, 68, 233]
21.356[35, 22, 22, 42, 53, 26, 70, 245]
21.38[37, 23, 22, 40, 52, 27, 72, 254]
21.402[37, 22, 22, 30, 39, 28, 73, 258]
21.416[37, 23, 22, 30, 39, 28, 73, 260]
21.44[22, 22, 22, 25, 33, 26, 36, 126]
21.469[22, 24, 23, 25, 28, 25, 34, 100]
21.476[20, 24, 23, 24, 30, 23, 34, 81]
21.499[20, 24, 22, 26, 28, 24, 34, 66]
21.522[20, 22, 21, 23, 28, 24, 33, 58]
21.536[22, 25, 21, 23, 26, 24, 31, 47]
21.559[25, 22, 20, 27, 30, 24, 43, 125]
21.582[25, 22, 19, 27, 32, 28, 40, 129]
21.596[26, 22, 20, 27, 32, 26, 44, 138]
21.62[25, 22, 21, 27, 31, 27, 45, 140]
21.642[25, 19, 22, 25, 31, 26, 44, 139]
21.656[21, 19, 22, 26, 28, 26, 31, 75]
21.68[23, 24, 30, 29, 24, 22, 32, 62]
21.702[21, 23, 31, 28, 23, 23, 22, 41]
21.716[21, 23, 31, 28, 25, 23, 24, 35]
21.74[22, 22, 30, 28, 23, 24, 32, 35]
21.769[23, 25, 31, 23, 26, 23, 33, 34]
21.784[19, 20, 22, 21, 27, 23, 30, 31]
21.8[21, 21, 20, 21, 30, 22, 33, 30]
21.829[33, 22, 21, 22, 32, 25, 71, 242]
21.844[36, 23, 19, 22, 36, 25, 73, 256]
21.859[35, 20, 21, 27, 37, 27, 74, 262]
21.882[36, 23, 21, 27, 37, 29, 77, 268]
21.905[35, 23, 23, 27, 34, 28, 77, 271]
21.92[25, 22, 22, 26, 32, 26, 45, 133]
21.942[19, 22, 22, 27, 28, 26, 36, 105]
21.964[20, 23, 20, 26, 25, 26, 37, 92]
21.98[20, 21, 20, 29, 26, 23, 33, 73]
22.002[21, 21, 19, 29, 31, 23, 31, 60]
22.025[21, 23, 20, 30, 33, 24, 28, 43]
22.04[22, 21, 20, 31, 31, 22, 33, 41]
22.062[20, 20, 20, 26, 30, 20, 27, 28]
22.084[20, 21, 22, 23, 28, 22, 34, 30]
22.107[19, 20, 23, 24, 25, 22, 35, 29]
22.122[17, 20, 22, 24, 23, 19, 34, 27]
22.145[17, 20, 22, 24, 27, 19, 32, 26]
22.167[19, 22, 22, 26, 29, 27, 32, 28]
22.182[19, 21, 21, 27, 38, 26, 24, 20]
22.204[19, 22, 22, 27, 40, 26, 23, 23]
22.219[22, 20, 23, 30, 51, 27, 31, 31]
22.242[22, 22, 23, 30, 51, 27, 30, 29]
22.264[20, 21, 24, 27, 55, 27, 29, 29]
22.279[19, 23, 23, 28, 52, 27, 30, 32]
22.302[19, 23, 23, 28, 48, 28, 31, 31]
22.324[15, 25, 21, 30, 38, 29, 22, 23]
22.339[16, 24, 20, 30, 37, 29, 21, 22]
22.362[17, 24, 21, 34, 32, 27, 21, 21]
22.392[19, 22, 21, 32, 30, 27, 25, 26]
22.399[19, 23, 19, 31, 32, 26, 25, 29]
22.422[19, 22, 21, 26, 33, 26, 26, 28]
22.445[18, 22, 23, 25, 31, 25, 26, 28]
22.459[17, 22, 19, 21, 28, 22, 26, 30]
22.482[15, 23, 22, 22, 28, 23, 20, 23]
22.505[16, 21, 22, 23, 26, 22, 19, 19]
22.519[19, 20, 21, 23, 24, 22, 20, 25]
22.542[20, 24, 21, 23, 25, 22, 27, 30]
22.565[20, 23, 21, 29, 26, 21, 28, 29]
22.579[20, 23, 19, 28, 25, 19, 29, 30]
22.602[20, 22, 21, 28, 24, 23, 30, 31]
22.632[19, 25, 20, 27, 24, 24, 30, 27]
22.639[19, 21, 19, 24, 26, 26, 23, 20]
22.662[19, 20, 19, 19, 25, 26, 23, 23]
22.692[19, 20, 21, 19, 26, 26, 21, 23]
22.707[18, 21, 19, 17, 26, 25, 28, 28]
22.722[17, 22, 21, 19, 25, 22, 27, 28]
22.744[17, 21, 21, 21, 27, 20, 28, 29]
22.767[18, 21, 20, 19, 28, 23, 28, 28]
22.782[18, 22, 19, 31, 29, 23, 29, 28]
22.804[18, 24, 20, 34, 33, 22, 20, 22]
22.827[19, 20, 19, 34, 32, 23, 20, 23]
22.842[18, 22, 20, 34, 33, 22, 19, 21]
22.864[19, 23, 22, 36, 35, 23, 20, 20]
22.887[21, 22, 21, 27, 31, 25, 27, 27]
22.902[20, 23, 19, 24, 28, 26, 30, 28]
22.924[21, 25, 21, 23, 31, 25, 30, 28]
22.946[20, 26, 21, 25, 27, 26, 30, 29]
22.962[21, 25, 19, 24, 30, 24, 30, 29]
22.984[20, 25, 22, 24, 31, 21, 23, 24]
23.006[20, 23, 24, 26, 32, 21, 21, 21]
23.023[19, 23, 24, 26, 32, 21, 20, 21]
23.044[21, 21, 26, 25, 34, 20, 30, 30]
23.066[19, 23, 26, 26, 30, 21, 32, 32]
23.082[18, 23, 24, 25, 29, 23, 33, 29]
23.104[18, 23, 23, 23, 28, 22, 33, 31]
23.127[17, 22, 21, 25, 29, 21, 34, 31]
23.142[18, 22, 19, 28, 34, 22, 24, 22]
23.164[20, 20, 19, 28, 38, 22, 24, 23]
23.186[22, 21, 20, 28, 39, 23, 23, 24]
23.202[21, 21, 18, 29, 38, 23, 24, 22]
23.224[20, 21, 17, 27, 35, 25, 25, 29]
23.248[20, 23, 17, 28, 31, 24, 27, 29]
23.263[18, 22, 19, 26, 26, 24, 27, 26]
23.284[16, 20, 19, 28, 33, 22, 26, 27]
23.306[16, 24, 21, 29, 36, 22, 25, 30]
23.323[18, 21, 22, 28, 36, 18, 22, 23]
23.344[18, 19, 22, 24, 34, 21, 20, 22]
23.366[18, 22, 20, 25, 33, 21, 16, 23]
23.382[18, 25, 21, 23, 26, 20, 16, 23]
23.411[18, 22, 20, 22, 24, 20, 18, 19]
23.426[19, 23, 20, 25, 26, 20, 28, 31]
23.442[20, 24, 19, 26, 30, 19, 30, 32]
23.464[19, 22, 20, 24, 32, 19, 32, 32]
23.486[22, 21, 20, 23, 31, 19, 31, 33]
23.503[22, 20, 20, 22, 30, 22, 32, 33]
23.525[21, 20, 20, 21, 29, 21, 23, 22]
23.554[22, 21, 21, 20, 25, 19, 21, 19]
23.562[24, 22, 20, 20, 24, 20, 19, 19]
23.584[23, 24, 21, 22, 25, 20, 20, 20]
23.606[25, 26, 21, 22, 25, 19, 24, 25]
23.63[24, 26, 22, 20, 22, 20, 25, 26]
23.644[22, 25, 21, 22, 25, 22, 26, 28]
23.666[19, 23, 22, 23, 25, 24, 27, 29]
23.689[20, 20, 21, 27, 26, 24, 28, 27]
23.704[18, 19, 22, 28, 29, 23, 22, 21]
23.726[21, 21, 22, 28, 29, 24, 24, 23]
23.749[21, 22, 23, 30, 27, 23, 22, 20]
23.779[22, 23, 22, 29, 27, 22, 23, 21]
23.786[21, 25, 24, 24, 26, 21, 27, 26]
23.809[22, 25, 23, 23, 25, 22, 28, 26]
23.831[20, 22, 23, 26, 27, 21, 25, 25]
23.846[21, 22, 22, 24, 28, 22, 26, 25]
23.868[22, 23, 22, 25, 26, 22, 27, 27]
23.884[21, 24, 22, 25, 27, 23, 28, 30]
23.906[21, 23, 22, 24, 26, 24, 32, 34]
23.929[21, 23, 21, 22, 23, 25, 32, 34]
23.944[20, 23, 21, 20, 24, 26, 34, 34]
23.966[19, 22, 21, 22, 25, 24, 33, 32]
23.99[18, 21, 19, 21, 24, 23, 28, 24]
24.004[16, 20, 19, 22, 25, 22, 28, 26]
24.026[17, 21, 18, 22, 25, 22, 30, 26]
24.048[18, 20, 19, 24, 24, 21, 29, 25]
24.064[17, 25, 20, 24, 25, 21, 29, 26]
24.086[17, 22, 21, 24, 25, 23, 29, 26]
24.108[18, 22, 21, 24, 26, 24, 22, 20]
24.125[20, 22, 23, 23, 26, 23, 23, 21]
24.154[19, 24, 24, 22, 28, 22, 28, 29]
24.168[20, 19, 25, 22, 27, 22, 27, 29]
24.184[21, 21, 25, 21, 27, 22, 28, 30]
24.206[21, 22, 24, 21, 25, 20, 28, 29]
24.229[19, 23, 23, 22, 26, 20, 26, 30]
24.244[19, 22, 22, 22, 23, 19, 19, 23]
24.267[19, 24, 20, 20, 22, 18, 27, 32]
24.288[18, 23, 20, 25, 24, 16, 28, 32]
24.304[17, 22, 21, 26, 23, 17, 30, 32]
24.328[17, 21, 21, 23, 22, 19, 30, 31]
24.348[20, 21, 23, 25, 22, 24, 31, 31]
24.364[19, 19, 24, 26, 22, 26, 24, 23]
24.386[18, 19, 24, 21, 19, 26, 30, 29]
24.408[19, 20, 24, 20, 22, 25, 28, 29]
24.424[19, 20, 23, 21, 22, 24, 27, 28]
24.446[18, 19, 22, 20, 20, 22, 28, 28]
24.468[19, 21, 20, 19, 21, 21, 29, 28]
24.484[20, 20, 20, 22, 23, 20, 22, 21]
24.513[19, 22, 18, 23, 22, 22, 23, 22]
24.529[20, 21, 19, 22, 23, 21, 28, 31]
24.544[19, 21, 20, 21, 24, 21, 28, 31]
24.574[18, 19, 20, 21, 24, 20, 27, 30]
24.589[18, 22, 21, 20, 21, 20, 27, 30]
24.611[17, 22, 21, 19, 20, 22, 25, 30]
24.634[16, 22, 21, 19, 21, 20, 19, 19]
24.649[16, 24, 20, 20, 22, 19, 29, 33]
24.671[19, 24, 20, 20, 23, 21, 30, 34]
24.686[19, 24, 19, 18, 25, 25, 30, 34]
24.709[21, 22, 22, 18, 25, 26, 31, 34]
24.731[22, 23, 23, 17, 24, 28, 31, 34]
24.746[22, 20, 23, 18, 23, 28, 23, 21]
24.769[21, 20, 25, 20, 23, 29, 23, 22]
24.791[20, 18, 24, 20, 24, 30, 30, 30]
24.806[18, 18, 23, 20, 25, 27, 30, 29]
24.828[20, 19, 23, 20, 25, 26, 30, 31]
24.851[22, 19, 23, 17, 24, 26, 30, 31]
24.866[21, 22, 22, 16, 26, 22, 28, 29]
24.889[22, 22, 22, 18, 25, 20, 21, 22]
24.911[24, 23, 22, 20, 26, 20, 20, 21]
24.926[22, 22, 21, 20, 26, 21, 27, 28]
24.949[21, 23, 21, 22, 28, 20, 27, 28]
24.971[20, 20, 20, 22, 27, 22, 27, 28]
24.986[21, 22, 20, 22, 28, 56, 28, 28]
25.009[20, 21, 21, 23, 28, 65, 28, 29]
25.031[19, 21, 23, 23, 29, 68, 23, 22]
25.046[20, 23, 22, 23, 27, 70, 23, 22]
25.068[22, 25, 24, 24, 25, 71, 23, 21]
25.091[21, 23, 24, 21, 25, 49, 27, 26]
25.106[19, 23, 23, 19, 22, 38, 28, 26]
25.137[19, 23, 21, 20, 21, 33, 25, 26]
25.159[20, 19, 20, 18, 23, 28, 25, 26]
25.166[19, 18, 19, 18, 23, 27, 25, 27]
25.189[20, 19, 19, 19, 22, 23, 20, 21]
25.211[21, 19, 18, 20, 23, 22, 21, 23]
25.227[20, 18, 18, 20, 25, 22, 25, 29]
25.249[20, 20, 19, 20, 24, 22, 24, 29]
25.271[18, 20, 20, 22, 23, 22, 26, 29]
25.286[17, 21, 21, 22, 22, 21, 25, 30]
25.309[17, 22, 20, 24, 23, 20, 23, 28]
25.331[18, 22, 21, 23, 22, 18, 20, 21]
25.346[17, 21, 21, 23, 21, 21, 21, 24]
25.377[18, 24, 22, 22, 22, 23, 18, 23]
25.391[20, 23, 20, 23, 23, 25, 26, 26]
25.407[20, 22, 22, 20, 24, 25, 27, 27]
25.428[20, 23, 22, 20, 23, 25, 27, 27]
25.451[20, 23, 22, 22, 24, 23, 26, 25]
25.466[19, 19, 22, 20, 23, 23, 28, 27]
25.488[17, 21, 23, 20, 23, 21, 21, 22]
25.511[19, 22, 22, 20, 21, 21, 22, 22]
25.535[18, 22, 20, 21, 19, 20, 19, 22]
25.548[19, 21, 21, 18, 20, 21, 21, 21]
25.571[19, 20, 21, 20, 20, 19, 25, 25]
25.594[19, 20, 21, 19, 19, 20, 26, 26]
25.609[16, 20, 21, 20, 19, 20, 26, 27]
25.631[18, 20, 23, 21, 22, 23, 27, 29]
25.654[19, 22, 21, 22, 22, 24, 27, 29]
25.668[19, 22, 19, 21, 23, 24, 21, 24]
25.691[20, 20, 20, 21, 23, 24, 21, 23]
25.714[23, 19, 20, 22, 24, 24, 21, 23]
25.728[23, 20, 19, 20, 22, 22, 20, 24]
25.751[23, 20, 20, 19, 21, 22, 18, 24]
25.774[23, 19, 21, 19, 22, 20, 30, 31]
25.789[23, 20, 22, 20, 22, 24, 30, 31]
25.811[21, 21, 22, 19, 22, 22, 30, 31]
25.834[20, 20, 21, 21, 22, 23, 30, 29]
25.848[18, 19, 22, 22, 22, 22, 30, 29]
25.871[19, 19, 21, 20, 20, 21, 22, 20]
25.902[20, 20, 20, 19, 20, 19, 20, 22]
25.909[21, 18, 21, 19, 21, 22, 20, 21]
25.931[21, 17, 21, 17, 20, 21, 18, 20]
25.954[22, 18, 19, 17, 21, 27, 18, 21]
25.969[21, 22, 21, 19, 24, 28, 17, 22]
25.991[19, 21, 20, 20, 25, 27, 25, 30]
26.014[19, 21, 21, 20, 24, 25, 25, 30]
26.029[19, 23, 20, 22, 25, 25, 27, 30]
26.051[20, 23, 20, 22, 23, 20, 27, 30]
26.074[19, 18, 20, 23, 21, 18, 27, 30]
26.089[19, 21, 21, 23, 20, 18, 23, 25]
26.111[18, 21, 21, 24, 20, 20, 22, 25]
26.134[19, 20, 21, 22, 19, 20, 22, 25]
26.148[18, 24, 22, 22, 21, 22, 24, 26]
26.171[20, 25, 24, 21, 20, 26, 30, 30]
26.194[18, 23, 23, 20, 20, 25, 29, 26]
26.208[19, 23, 22, 18, 20, 24, 31, 26]
26.231[18, 23, 23, 20, 21, 24, 30, 26]
26.254[17, 19, 23, 20, 21, 23, 29, 25]
26.268[16, 19, 21, 19, 22, 18, 21, 19]
26.292[18, 19, 21, 20, 21, 18, 25, 25]
26.314[17, 23, 21, 20, 22, 19, 27, 28]
26.329[18, 24, 21, 20, 22, 19, 28, 30]
26.352[18, 25, 21, 19, 19, 19, 28, 30]
26.374[19, 26, 21, 19, 20, 19, 29, 30]
26.388[20, 26, 21, 17, 21, 20, 28, 28]
26.412[20, 24, 22, 18, 19, 21, 25, 23]
26.434[19, 23, 22, 16, 18, 21, 27, 26]
26.448[19, 22, 21, 17, 19, 19, 28, 28]
26.472[19, 19, 23, 18, 19, 19, 28, 28]
26.494[15, 21, 25, 19, 19, 19, 26, 27]
26.517[15, 22, 24, 20, 20, 18, 26, 29]
26.532[16, 24, 25, 20, 20, 16, 24, 25]
26.554[17, 25, 24, 21, 21, 18, 22, 23]
26.577[17, 24, 23, 22, 20, 17, 23, 24]
26.592[17, 24, 20, 21, 21, 18, 24, 26]
26.615[18, 21, 19, 22, 21, 19, 26, 27]
26.637[15, 18, 20, 23, 21, 20, 27, 25]
26.652[15, 17, 20, 23, 21, 20, 29, 24]
26.674[15, 21, 21, 23, 21, 21, 29, 25]
26.697[16, 20, 21, 22, 20, 19, 26, 22]
26.712[15, 21, 21, 20, 21, 18, 23, 20]
26.734[16, 22, 20, 21, 24, 17, 24, 22]
26.764[15, 23, 20, 20, 24, 18, 26, 29]
26.772[15, 20, 20, 18, 23, 17, 24, 30]
26.794[16, 19, 19, 19, 23, 19, 26, 30]
26.824[16, 18, 18, 21, 20, 19, 25, 28]
26.832[16, 20, 17, 20, 19, 20, 24, 29]
26.854[17, 20, 17, 19, 18, 18, 18, 23]
26.877[17, 20, 17, 20, 18, 19, 28, 29]
26.892[17, 20, 18, 19, 19, 19, 27, 29]
26.914[17, 22, 19, 19, 19, 20, 27, 31]
26.937[19, 20, 20, 18, 19, 20, 27, 28]
26.952[19, 19, 20, 19, 20, 20, 27, 28]
26.974[19, 21, 19, 20, 23, 20, 17, 20]
26.997[20, 21, 20, 20, 22, 22, 17, 21]
27.011[21, 22, 22, 23, 23, 22, 24, 30]
27.034[19, 22, 21, 22, 21, 23, 24, 31]
27.057[21, 22, 21, 21, 20, 23, 24, 32]
27.072[20, 20, 22, 23, 18, 22, 24, 31]
27.094[19, 21, 21, 23, 18, 27, 26, 30]
27.117[19, 18, 19, 19, 18, 27, 24, 21]
27.132[21, 20, 21, 20, 18, 26, 23, 24]
27.154[21, 20, 20, 21, 19, 26, 30, 29]
27.177[22, 20, 21, 20, 19, 25, 32, 31]
27.191[23, 21, 21, 19, 19, 19, 30, 30]
27.214[22, 21, 21, 20, 19, 16, 27, 30]
27.237[20, 20, 20, 19, 19, 19, 29, 29]
27.26[18, 21, 20, 20, 20, 19, 23, 22]
27.274[17, 21, 21, 17, 19, 19, 22, 20]
27.297[16, 18, 21, 17, 21, 20, 23, 19]
27.311[19, 20, 21, 18, 20, 20, 23, 20]
27.334[20, 20, 20, 20, 22, 21, 28, 28]
27.358[20, 19, 20, 19, 22, 23, 27, 28]
27.371[22, 20, 20, 19, 24, 24, 31, 31]
27.394[23, 23, 20, 20, 24, 24, 29, 31]
27.417[22, 23, 24, 19, 25, 25, 28, 31]
27.439[22, 22, 25, 19, 23, 23, 23, 25]
27.454[22, 23, 25, 18, 22, 21, 23, 24]
27.477[19, 23, 25, 18, 23, 21, 19, 20]
27.499[19, 22, 27, 17, 23, 21, 25, 27]
27.514[20, 21, 24, 17, 21, 22, 26, 29]
27.537[20, 22, 23, 17, 22, 22, 25, 28]
27.559[20, 22, 22, 18, 22, 22, 26, 29]
27.574[19, 21, 22, 19, 21, 19, 25, 29]
27.597[20, 22, 20, 19, 19, 21, 18, 23]
27.627[19, 24, 18, 20, 20, 18, 17, 18]
27.634[19, 23, 17, 20, 19, 17, 18, 20]
27.657[22, 22, 17, 19, 21, 16, 17, 19]
27.687[22, 23, 17, 20, 20, 18, 24, 30]
27.694[19, 21, 17, 19, 21, 21, 27, 30]
27.717[19, 19, 19, 19, 20, 22, 31, 31]
27.739[19, 20, 20, 18, 18, 26, 30, 30]
27.754[16, 21, 20, 20, 18, 28, 29, 31]
27.777[18, 21, 21, 20, 19, 27, 24, 21]
27.799[19, 23, 22, 19, 18, 25, 22, 24]
27.814[21, 21, 23, 19, 19, 25, 18, 23]
27.837[21, 21, 22, 20, 22, 22, 17, 23]
27.858[22, 20, 22, 18, 20, 20, 18, 22]
27.875[21, 21, 22, 18, 20, 20, 18, 21]
27.904[22, 18, 24, 21, 20, 19, 18, 19]
27.918[20, 21, 23, 21, 19, 20, 25, 25]
27.935[20, 21, 24, 21, 18, 19, 25, 26]
27.958[21, 21, 23, 22, 20, 20, 26, 26]
27.979[23, 21, 24, 20, 19, 25, 25, 26]
27.995[22, 21, 21, 19, 19, 26, 26, 26]
28.018[21, 19, 20, 19, 20, 24, 19, 21]
28.039[21, 22, 20, 18, 19, 23, 20, 21]
28.055[19, 22, 21, 18, 19, 26, 23, 21]
28.076[18, 21, 19, 20, 21, 23, 24, 21]
28.098[19, 22, 20, 20, 22, 22, 24, 23]
28.115[18, 22, 21, 20, 22, 23, 25, 20]
28.136[18, 19, 21, 21, 23, 24, 25, 20]
28.158[19, 18, 19, 21, 20, 21, 23, 18]
28.182[18, 19, 19, 20, 22, 21, 29, 24]
28.196[18, 18, 19, 20, 21, 21, 29, 25]
28.218[19, 19, 18, 19, 22, 20, 28, 25]
28.242[20, 21, 19, 18, 22, 21, 28, 25]
28.256[19, 24, 21, 22, 23, 22, 28, 26]
28.28[19, 24, 21, 21, 21, 21, 22, 22]
28.295[18, 24, 20, 21, 21, 21, 22, 20]
28.317[17, 24, 21, 23, 22, 20, 23, 20]
28.339[19, 23, 21, 22, 24, 19, 23, 21]
28.369[20, 21, 19, 20, 23, 18, 21, 21]
28.376[20, 22, 19, 22, 22, 19, 21, 19]
28.4[22, 22, 20, 22, 23, 20, 21, 19]
28.429[21, 21, 20, 20, 23, 20, 19, 20]
28.436[18, 20, 19, 21, 21, 19, 17, 19]
28.46[16, 21, 20, 20, 21, 19, 16, 19]
28.489[17, 19, 20, 18, 23, 19, 19, 20]
28.496[16, 20, 20, 18, 22, 17, 18, 21]
28.52[16, 21, 20, 18, 21, 16, 18, 21]
28.541[19, 21, 22, 17, 23, 18, 18, 21]
28.556[19, 20, 21, 18, 23, 18, 23, 20]
28.579[20, 20, 21, 17, 19, 19, 27, 26]
28.609[19, 19, 22, 18, 19, 23, 27, 26]
28.616[20, 17, 23, 18, 21, 28, 27, 25]
28.638[19, 22, 23, 19, 20, 27, 29, 26]
28.661[19, 23, 24, 21, 20, 27, 26, 26]
28.676[18, 22, 24, 21, 21, 26, 19, 20]
28.699[19, 23, 23, 22, 23, 23, 21, 21]
28.721[19, 23, 22, 21, 23, 18, 21, 21]
28.736[17, 18, 21, 21, 22, 19, 18, 21]
28.758[18, 18, 20, 20, 22, 21, 20, 21]
28.781[18, 19, 19, 21, 22, 23, 21, 19]
28.797[18, 20, 19, 18, 21, 26, 20, 19]
28.819[19, 20, 18, 20, 20, 25, 21, 22]
28.841[20, 22, 19, 19, 19, 28, 21, 22]
28.856[20, 22, 18, 20, 19, 26, 20, 22]
28.88[19, 23, 20, 19, 18, 25, 18, 23]
28.901[19, 21, 22, 21, 18, 22, 18, 22]
28.916[19, 22, 21, 19, 21, 22, 19, 20]
28.938[20, 21, 22, 19, 20, 20, 19, 20]
28.961[22, 22, 22, 19, 22, 21, 21, 22]
28.976[21, 22, 20, 19, 23, 21, 20, 23]
28.998[21, 22, 18, 19, 23, 21, 22, 23]
29.021[21, 21, 18, 20, 20, 23, 19, 23]
29.044[20, 19, 19, 19, 22, 20, 20, 23]
29.059[18, 20, 20, 19, 20, 20, 18, 20]
29.081[19, 21, 19, 20, 18, 21, 19, 22]
29.097[19, 20, 20, 19, 17, 22, 17, 24]
29.119[18, 20, 20, 18, 18, 20, 18, 23]
29.141[17, 20, 20, 19, 18, 21, 16, 22]
29.156[19, 20, 19, 19, 19, 21, 17, 23]
29.179[18, 21, 20, 18, 20, 21, 19, 21]
29.201[19, 21, 19, 17, 20, 20, 25, 26]
29.216[19, 21, 19, 18, 20, 20, 25, 27]
29.239[20, 21, 18, 18, 19, 20, 27, 30]
29.261[17, 20, 21, 21, 19, 19, 26, 29]
29.276[19, 20, 21, 23, 20, 20, 26, 28]
29.298[21, 20, 21, 22, 21, 21, 21, 22]
29.322[21, 21, 23, 23, 22, 20, 21, 20]
29.352[22, 20, 23, 23, 23, 21, 20, 17]
29.358[22, 19, 22, 21, 21, 20, 20, 18]
29.382[24, 23, 23, 19, 20, 20, 18, 17]
29.404[23, 22, 22, 20, 19, 23, 19, 19]
29.419[22, 24, 21, 20, 18, 24, 19, 19]
29.441[19, 26, 23, 19, 18, 22, 17, 20]
29.464[22, 26, 23, 18, 18, 24, 19, 18]
29.48[19, 21, 22, 19, 19, 23, 19, 18]
29.501[18, 22, 23, 20, 18, 22, 17, 18]
29.524[20, 20, 22, 18, 18, 20, 17, 19]
29.546[20, 21, 21, 20, 19, 21, 17, 19]
29.569[19, 22, 20, 20, 19, 20, 17, 19]
29.584[19, 22, 20, 20, 20, 21, 18, 21]
29.599[18, 22, 20, 18, 21, 19, 20, 20]
29.621[19, 21, 20, 19, 21, 18, 19, 20]
29.644[20, 18, 22, 18, 20, 20, 21, 19]
29.659[19, 19, 22, 18, 21, 20, 20, 20]
29.682[19, 19, 23, 19, 22, 20, 19, 20]
29.704[21, 19, 22, 19, 21, 21, 19, 21]
29.718[19, 19, 22, 18, 21, 22, 21, 21]
29.741[18, 21, 21, 19, 20, 21, 20, 20]
29.764[18, 20, 22, 19, 22, 21, 19, 21]
29.778[19, 21, 21, 19, 20, 21, 18, 21]
29.802[20, 20, 22, 20, 22, 22, 17, 19]
29.823[19, 21, 21, 23, 22, 21, 15, 20]
29.847[19, 20, 20, 22, 23, 20, 15, 20]
29.861[19, 20, 21, 21, 21, 20, 16, 21]
29.884[19, 20, 21, 20, 21, 18, 17, 20]
29.898[16, 21, 19, 20, 20, 19, 21, 22]
29.921[17, 19, 20, 17, 22, 19, 20, 21]
29.944[17, 20, 21, 17, 20, 20, 23, 22]
29.967[18, 21, 18, 17, 21, 21, 24, 20]
29.981[17, 24, 19, 17, 21, 21, 24, 19]
30.004[16, 23, 20, 16, 22, 19, 22, 19]
30.018[16, 24, 20, 18, 18, 20, 22, 18]
30.041[17, 22, 19, 21, 17, 23, 19, 18]
30.064[19, 25, 24, 23, 17, 29, 21, 18]
30.079[19, 22, 27, 32, 20, 30, 22, 19]
30.101[22, 27, 43, 57, 20, 34, 37, 18]
30.124[21, 28, 46, 68, 20, 34, 53, 19]
30.139[22, 31, 51, 73, 22, 46, 56, 23]
30.161[20, 29, 51, 75, 23, 49, 60, 21]
30.183[21, 31, 56, 76, 21, 54, 62, 23]
30.198[20, 27, 45, 61, 27, 57, 58, 23]
30.221[20, 26, 44, 50, 28, 62, 44, 23]
30.244[18, 24, 41, 48, 27, 55, 69, 22]
30.267[19, 25, 41, 46, 27, 52, 70, 25]
30.281[19, 24, 36, 43, 29, 58, 69, 25]
30.305[18, 24, 37, 43, 23, 56, 68, 26]
30.327[18, 26, 42, 41, 22, 52, 69, 26]
30.341[21, 27, 43, 39, 22, 56, 49, 26]
30.372[22, 27, 42, 43, 21, 56, 57, 25]
30.387[21, 26, 41, 38, 22, 53, 67, 24]
30.401[22, 25, 39, 38, 22, 52, 72, 25]
30.424[24, 26, 34, 37, 24, 50, 72, 25]
30.447[22, 25, 32, 37, 25, 47, 71, 26]
30.461[21, 23, 33, 34, 25, 43, 69, 24]
30.483[23, 24, 29, 35, 25, 35, 67, 29]
30.507[21, 24, 31, 34, 24, 65, 65, 29]
30.521[20, 22, 33, 35, 27, 73, 65, 31]
30.544[19, 26, 33, 35, 26, 84, 66, 28]
30.567[21, 26, 31, 35, 26, 88, 70, 30]
30.581[21, 26, 33, 36, 26, 90, 71, 29]
30.604[23, 26, 33, 41, 27, 73, 70, 30]
30.627[22, 25, 33, 45, 25, 91, 73, 29]
30.641[23, 21, 31, 48, 27, 92, 70, 30]
30.68[25, 21, 32, 47, 25, 96, 94, 30]
30.688[24, 22, 33, 49, 26, 105, 98, 29]
30.701[24, 22, 35, 57, 30, 103, 95, 27]
30.724[24, 23, 31, 62, 30, 82, 94, 25]
30.747[24, 24, 31, 60, 29, 69, 95, 31]
30.761[22, 23, 32, 60, 33, 65, 92, 34]
30.784[22, 23, 28, 58, 32, 68, 97, 35]
30.814[21, 22, 30, 48, 31, 81, 98, 36]
30.829[23, 22, 36, 49, 38, 96, 101, 38]
30.844[23, 21, 37, 50, 41, 100, 109, 35]
30.867[22, 23, 36, 51, 45, 100, 88, 31]
30.881[22, 22, 40, 67, 92, 103, 72, 31]
30.904[26, 22, 37, 70, 95, 105, 106, 32]
30.927[25, 24, 30, 64, 99, 111, 109, 30]
30.941[29, 26, 33, 65, 107, 131, 118, 42]
30.964[34, 28, 46, 90, 118, 166, 138, 49]
30.987[36, 32, 52, 132, 106, 193, 150, 54]
31.001[35, 35, 56, 157, 145, 194, 134, 58]
31.024[37, 34, 57, 162, 147, 188, 148, 62]
31.046[34, 36, 60, 168, 154, 174, 149, 60]
31.07[31, 33, 51, 162, 158, 145, 137, 60]
31.084[32, 33, 49, 129, 156, 118, 127, 55]
31.107[30, 30, 43, 100, 125, 113, 128, 52]
31.121[30, 31, 50, 99, 123, 111, 126, 50]
31.144[29, 33, 48, 92, 123, 112, 113, 43]
31.167[26, 32, 46, 83, 118, 139, 135, 36]
31.189[26, 32, 41, 77, 115, 122, 137, 39]
31.204[27, 31, 41, 76, 163, 128, 131, 39]
31.234[27, 30, 32, 69, 175, 135, 126, 37]
31.249[27, 28, 31, 74, 173, 158, 134, 42]
31.264[29, 32, 36, 99, 212, 134, 99, 41]
31.294[32, 41, 54, 155, 323, 151, 97, 38]
31.309[32, 45, 69, 182, 355, 149, 106, 37]
31.323[43, 48, 72, 186, 360, 142, 110, 36]
31.347[54, 47, 75, 192, 389, 134, 116, 33]
31.369[56, 46, 77, 186, 372, 131, 131, 53]
31.383[59, 48, 89, 184, 330, 162, 135, 56]
31.407[64, 52, 83, 165, 281, 159, 138, 63]
31.429[57, 52, 86, 178, 293, 164, 136, 64]
31.444[47, 53, 86, 171, 270, 150, 122, 67]
31.467[46, 55, 90, 180, 292, 156, 120, 59]
31.489[39, 46, 71, 158, 279, 103, 126, 63]
31.504[31, 37, 64, 155, 281, 99, 121, 56]
31.527[30, 35, 56, 133, 256, 89, 109, 56]
31.549[29, 33, 53, 128, 238, 94, 106, 52]
31.572[27, 28, 52, 121, 225, 90, 105, 48]
31.587[27, 28, 48, 102, 169, 86, 98, 40]
31.609[29, 31, 51, 102, 163, 91, 89, 39]
31.624[28, 36, 53, 101, 163, 88, 107, 34]
31.647[27, 37, 56, 101, 159, 78, 109, 34]
31.669[27, 36, 45, 82, 125, 90, 99, 32]
31.684[28, 37, 42, 69, 115, 93, 91, 27]
31.707[26, 35, 40, 49, 95, 87, 109, 31]
31.729[25, 31, 36, 53, 87, 88, 94, 34]
31.744[24, 31, 33, 51, 73, 85, 90, 33]
31.767[24, 32, 34, 52, 66, 74, 88, 33]
31.789[22, 29, 32, 54, 84, 66, 88, 35]
31.804[22, 29, 30, 51, 81, 77, 80, 32]
31.827[23, 28, 29, 46, 73, 80, 79, 30]
31.849[23, 26, 24, 43, 73, 84, 82, 30]
31.864[23, 24, 23, 37, 72, 75, 79, 30]
31.887[23, 24, 22, 33, 40, 73, 76, 30]
31.909[22, 23, 23, 33, 40, 64, 66, 28]
31.923[22, 24, 25, 32, 39, 60, 64, 35]
31.947[22, 25, 26, 33, 38, 54, 57, 34]
31.969[21, 24, 23, 33, 38, 54, 59, 33]
31.984[22, 23, 26, 36, 38, 58, 68, 33]
32.007[21, 26, 26, 37, 30, 60, 68, 34]
32.029[26, 25, 26, 38, 29, 63, 76, 30]
32.043[25, 24, 27, 37, 30, 71, 85, 32]
32.067[26, 25, 29, 36, 30, 87, 85, 32]
32.089[23, 24, 27, 31, 30, 84, 85, 32]
32.104[23, 22, 26, 26, 29, 81, 84, 32]
32.126[17, 21, 24, 25, 29, 78, 73, 27]
32.15[18, 22, 24, 24, 28, 77, 72, 25]
32.172[18, 21, 23, 23, 25, 56, 69, 24]
32.187[22, 25, 26, 26, 32, 63, 69, 29]
32.209[22, 25, 25, 26, 32, 64, 61, 27]
32.232[22, 25, 27, 28, 33, 67, 64, 27]
32.247[20, 24, 26, 31, 32, 66, 54, 26]
32.269[22, 23, 26, 32, 31, 86, 70, 28]
32.292[19, 21, 25, 38, 35, 88, 64, 22]
32.314[20, 25, 32, 51, 61, 87, 67, 24]
32.329[21, 26, 34, 65, 97, 86, 65, 26]
32.352[23, 25, 35, 68, 105, 87, 68, 26]
32.367[20, 26, 36, 71, 107, 76, 64, 24]
32.389[21, 26, 37, 70, 105, 74, 64, 25]
32.412[22, 25, 41, 62, 93, 85, 60, 25]
32.426[21, 22, 38, 46, 55, 94, 63, 25]
32.449[21, 24, 38, 43, 38, 91, 60, 23]
32.48[22, 22, 38, 37, 32, 84, 68, 25]
32.487[21, 24, 39, 39, 28, 80, 70, 25]
32.509[21, 21, 30, 41, 28, 78, 73, 27]
32.532[20, 23, 30, 40, 28, 65, 70, 27]
32.547[20, 23, 30, 38, 27, 65, 71, 28]
32.569[20, 24, 30, 37, 27, 60, 49, 27]
32.592[21, 25, 31, 32, 27, 65, 70, 27]
32.607[20, 25, 31, 26, 27, 60, 73, 25]
32.629[20, 26, 30, 26, 25, 60, 72, 26]
32.652[19, 24, 29, 25, 28, 57, 71, 25]
32.665[19, 24, 27, 25, 27, 59, 85, 27]
32.689[19, 21, 26, 21, 26, 56, 92, 31]
32.712[21, 22, 30, 31, 24, 54, 93, 32]
32.726[21, 21, 29, 30, 26, 60, 95, 33]
32.749[21, 24, 44, 39, 26, 86, 106, 33]
32.772[22, 24, 51, 55, 28, 90, 101, 33]
32.793[22, 26, 51, 59, 28, 88, 83, 31]
32.81[20, 23, 52, 56, 27, 85, 81, 29]
32.831[22, 24, 55, 59, 26, 82, 89, 29]
32.854[22, 24, 46, 55, 23, 61, 77, 29]
32.87[20, 24, 41, 43, 21, 57, 76, 28]
32.891[21, 24, 42, 40, 22, 58, 69, 28]
32.913[21, 24, 37, 42, 23, 56, 67, 28]
32.93[21, 24, 33, 39, 23, 56, 68, 26]
32.952[21, 24, 32, 36, 23, 54, 67, 26]
32.973[21, 24, 29, 36, 25, 53, 62, 27]
32.99[20, 22, 29, 41, 24, 49, 60, 27]
33.011[21, 23, 29, 39, 24, 49, 76, 26]
33.034[21, 22, 30, 38, 22, 44, 72, 26]
33.05[22, 23, 28, 37, 23, 47, 72, 29]
33.071[24, 23, 30, 40, 21, 56, 71, 28]
33.094[23, 22, 26, 30, 21, 59, 72, 28]
33.118[22, 22, 30, 39, 21, 72, 60, 26]
33.131[20, 21, 28, 38, 22, 74, 63, 26]
33.153[19, 19, 29, 39, 21, 69, 64, 25]
33.17[20, 21, 32, 35, 21, 72, 69, 28]
33.191[19, 21, 34, 34, 21, 77, 69, 27]
33.214[20, 22, 31, 25, 22, 66, 71, 28]
33.23[22, 24, 33, 31, 20, 71, 60, 27]
33.251[23, 24, 32, 31, 21, 80, 60, 25]
33.273[22, 22, 27, 30, 24, 77, 56, 24]
33.296[23, 22, 27, 32, 25, 73, 56, 23]
33.311[23, 23, 29, 31, 26, 79, 54, 22]
33.334[22, 19, 31, 34, 26, 74, 58, 25]
33.35[20, 20, 30, 37, 25, 80, 59, 25]
33.371[19, 19, 30, 37, 22, 85, 57, 22]
33.393[19, 19, 28, 36, 22, 95, 60, 23]
33.408[20, 18, 28, 35, 19, 97, 57, 22]
33.431[21, 20, 26, 28, 23, 103, 59, 24]
33.453[22, 19, 27, 31, 26, 99, 58, 24]
33.469[23, 20, 28, 32, 26, 91, 61, 24]
33.491[23, 23, 27, 33, 26, 81, 68, 24]
33.516[23, 22, 27, 35, 26, 77, 69, 24]
33.528[20, 22, 24, 36, 26, 83, 74, 23]
33.551[19, 23, 22, 30, 23, 92, 71, 23]
33.573[17, 24, 25, 28, 25, 94, 78, 24]
33.589[17, 22, 28, 31, 24, 93, 75, 26]
33.611[16, 22, 26, 31, 25, 90, 76, 25]
33.633[16, 23, 26, 30, 22, 80, 83, 26]
33.649[18, 23, 28, 29, 23, 58, 84, 26]
33.678[19, 21, 23, 28, 21, 54, 84, 25]
33.693[21, 22, 33, 38, 26, 70, 80, 24]
33.709[20, 23, 35, 38, 25, 75, 75, 25]
33.731[21, 25, 35, 38, 27, 74, 63, 25]
33.753[22, 24, 33, 37, 28, 82, 90, 26]
33.768[22, 25, 36, 39, 29, 80, 86, 26]
33.791[24, 26, 30, 31, 26, 68, 90, 27]
33.813[26, 26, 29, 31, 26, 59, 90, 27]
33.836[25, 26, 30, 30, 23, 61, 90, 24]
33.852[26, 27, 33, 31, 21, 48, 85, 27]
33.873[29, 29, 32, 29, 21, 61, 81, 31]
33.888[29, 31, 37, 39, 20, 58, 80, 34]
33.911[28, 30, 36, 40, 21, 63, 80, 35]
33.933[29, 29, 36, 42, 20, 58, 74, 34]
33.948[27, 28, 33, 42, 21, 69, 52, 34]
33.971[24, 26, 34, 46, 21, 91, 56, 29]
33.993[21, 22, 25, 33, 22, 98, 51, 24]
34.009[22, 22, 25, 31, 23, 97, 53, 23]
34.031[20, 22, 26, 30, 23, 97, 69, 23]
34.053[23, 21, 27, 30, 23, 90, 72, 21]
34.076[23, 22, 23, 24, 23, 62, 69, 22]
34.091[20, 22, 20, 24, 23, 55, 72, 21]
34.113[21, 21, 20, 27, 22, 62, 78, 21]
34.136[24, 23, 25, 33, 23, 69, 79, 24]
34.151[22, 23, 25, 32, 23, 72, 76, 24]
34.174[23, 22, 25, 32, 23, 67, 75, 27]
34.196[25, 20, 25, 32, 20, 58, 73, 27]
34.211[25, 23, 26, 31, 20, 49, 81, 32]
34.233[24, 21, 22, 25, 21, 40, 71, 30]
34.256[22, 21, 19, 23, 21, 36, 72, 30]
34.271[22, 21, 22, 23, 20, 40, 73, 29]
34.293[20, 21, 23, 31, 21, 56, 74, 30]
34.316[22, 21, 23, 32, 23, 59, 56, 26]
34.331[20, 21, 23, 33, 23, 62, 55, 27]
34.353[21, 22, 26, 34, 21, 70, 54, 27]
34.376[19, 22, 25, 34, 22, 69, 56, 26]
34.391[21, 24, 24, 26, 22, 92, 88, 28]
34.414[20, 21, 23, 29, 22, 98, 91, 27]
34.436[21, 24, 34, 36, 23, 95, 87, 27]
34.451[21, 23, 34, 35, 25, 92, 90, 26]
34.473[22, 25, 34, 36, 24, 95, 105, 31]
34.496[20, 22, 35, 37, 26, 70, 80, 26]
34.511[20, 23, 35, 34, 26, 59, 78, 26]
34.533[20, 20, 30, 27, 26, 60, 78, 28]
34.556[21, 20, 28, 26, 27, 55, 71, 26]
34.571[21, 19, 32, 32, 27, 46, 44, 20]
34.594[21, 20, 33, 33, 25, 46, 66, 24]
34.616[22, 21, 34, 34, 22, 49, 66, 23]
34.631[21, 21, 29, 34, 23, 48, 68, 23]
34.654[22, 24, 32, 37, 23, 50, 69, 23]
34.676[20, 22, 29, 31, 23, 51, 72, 24]
34.692[21, 24, 28, 35, 22, 47, 58, 25]
34.713[20, 24, 28, 34, 22, 49, 61, 29]
34.736[19, 23, 28, 34, 20, 49, 59, 28]
34.751[19, 22, 25, 32, 19, 48, 59, 31]
34.773[19, 27, 29, 32, 19, 46, 51, 30]
34.796[19, 25, 27, 26, 20, 41, 61, 28]
34.811[18, 24, 26, 26, 22, 35, 59, 25]
34.833[19, 24, 25, 25, 23, 36, 63, 26]
34.856[18, 25, 25, 25, 24, 38, 70, 24]
34.872[18, 21, 20, 26, 25, 41, 73, 22]
34.902[19, 23, 23, 27, 25, 45, 63, 23]
34.916[20, 23, 22, 26, 23, 47, 62, 23]
34.932[19, 24, 23, 27, 22, 48, 67, 26]
34.953[19, 23, 24, 27, 21, 46, 61, 27]
34.976[20, 23, 24, 26, 20, 43, 71, 27]
34.998[18, 22, 22, 28, 20, 45, 72, 28]
35.013[19, 22, 23, 29, 22, 46, 77, 27]
35.036[22, 24, 23, 30, 21, 46, 67, 24]
35.058[23, 21, 21, 28, 23, 47, 90, 24]
35.073[22, 22, 24, 26, 22, 49, 85, 27]
35.096[22, 21, 24, 23, 22, 43, 83, 27]
35.118[20, 21, 26, 22, 22, 39, 77, 28]
35.133[20, 22, 26, 21, 24, 38, 87, 28]
35.156[18, 22, 25, 21, 22, 37, 64, 26]
35.179[19, 24, 28, 23, 24, 40, 61, 24]
35.193[20, 23, 31, 29, 25, 38, 61, 23]
35.216[21, 23, 30, 28, 23, 41, 69, 23]
35.239[21, 20, 30, 30, 23, 49, 61, 25]
35.253[20, 23, 31, 30, 24, 49, 58, 24]
35.276[20, 21, 26, 29, 22, 45, 55, 26]
35.299[18, 22, 23, 26, 22, 50, 59, 25]
35.313[18, 23, 27, 25, 24, 49, 60, 27]
35.336[20, 25, 29, 24, 22, 39, 57, 26]
35.36[21, 23, 29, 27, 22, 38, 57, 27]
35.373[21, 23, 30, 28, 23, 40, 63, 26]
35.396[21, 23, 29, 26, 23, 47, 59, 26]
35.419[21, 25, 31, 31, 22, 48, 48, 27]
35.434[19, 25, 28, 30, 24, 49, 58, 25]
35.456[19, 25, 30, 37, 24, 50, 60, 24]
35.479[20, 25, 29, 38, 22, 52, 54, 23]
35.493[19, 27, 31, 36, 22, 42, 54, 24]
35.516[19, 26, 28, 33, 22, 40, 60, 22]
35.539[21, 25, 30, 33, 20, 46, 68, 23]
35.553[20, 25, 29, 22, 22, 50, 67, 24]
35.576[20, 25, 30, 21, 22, 45, 66, 24]
35.599[20, 23, 29, 23, 22, 44, 64, 22]
35.613[19, 22, 24, 23, 22, 43, 76, 22]
35.636[15, 20, 24, 26, 24, 46, 62, 23]
35.659[16, 21, 24, 26, 22, 44, 63, 22]
35.673[16, 20, 23, 25, 23, 45, 63, 22]
35.696[18, 23, 26, 24, 22, 45, 68, 22]
35.719[19, 24, 26, 23, 22, 44, 67, 23]
35.733[19, 25, 27, 20, 19, 35, 66, 21]
35.756[18, 25, 26, 20, 20, 34, 65, 20]
35.779[19, 26, 27, 22, 20, 36, 71, 21]
35.793[19, 23, 25, 21, 19, 39, 73, 20]
35.816[19, 23, 28, 23, 19, 40, 64, 17]
35.839[21, 24, 28, 24, 21, 44, 71, 20]
35.862[20, 23, 31, 25, 21, 43, 74, 22]
35.876[20, 22, 32, 24, 23, 49, 87, 24]
35.899[20, 22, 30, 23, 24, 86, 90, 26]
35.913[20, 23, 30, 24, 25, 96, 94, 26]
35.936[20, 23, 32, 25, 25, 96, 91, 27]
35.959[21, 24, 30, 24, 24, 96, 89, 25]
35.981[21, 23, 29, 26, 22, 96, 80, 25]
35.996[23, 23, 29, 28, 23, 67, 74, 26]
36.019[22, 22, 27, 27, 22, 52, 67, 24]
36.041[21, 20, 24, 31, 22, 54, 63, 21]
36.056[21, 19, 30, 33, 25, 79, 106, 30]
36.079[19, 19, 29, 31, 26, 78, 105, 29]
36.101[18, 20, 31, 31, 26, 76, 103, 28]
36.116[18, 22, 30, 30, 26, 77, 107, 28]
36.139[19, 21, 30, 27, 29, 77, 111, 29]
36.161[17, 21, 24, 26, 26, 58, 75, 21]
36.176[18, 23, 24, 28, 24, 59, 72, 21]
36.199[18, 22, 22, 28, 24, 59, 77, 26]
36.221[18, 20, 26, 29, 22, 61, 69, 25]
36.236[19, 22, 24, 26, 17, 57, 65, 25]
36.259[20, 23, 24, 25, 17, 51, 62, 25]
36.282[23, 21, 26, 24, 17, 45, 64, 26]
36.296[22, 23, 26, 25, 19, 42, 71, 21]
36.319[22, 24, 23, 24, 21, 45, 75, 21]
36.341[24, 22, 24, 23, 24, 49, 79, 25]
36.356[23, 21, 28, 22, 24, 47, 78, 23]
36.38[20, 22, 26, 26, 24, 54, 83, 24]
36.402[22, 22, 25, 25, 22, 58, 70, 23]
36.416[21, 22, 25, 26, 22, 70, 76, 23]
36.439[18, 22, 26, 27, 22, 68, 71, 22]
36.461[17, 22, 21, 26, 25, 77, 87, 23]
36.476[20, 22, 23, 22, 27, 72, 79, 22]
36.499[21, 21, 26, 25, 28, 70, 82, 27]
36.521[22, 21, 25, 24, 29, 54, 76, 27]
36.536[24, 22, 24, 24, 26, 54, 77, 26]
36.559[24, 23, 26, 26, 23, 47, 76, 27]
36.581[24, 22, 23, 26, 20, 46, 78, 27]
36.596[23, 21, 21, 23, 21, 51, 76, 24]
36.619[22, 21, 22, 24, 23, 50, 79, 23]
36.641[22, 21, 26, 24, 24, 53, 81, 24]
36.656[23, 20, 23, 23, 25, 50, 66, 25]
36.679[23, 22, 29, 23, 25, 59, 62, 28]
36.701[23, 24, 30, 22, 24, 59, 60, 26]
36.716[23, 23, 29, 22, 21, 59, 65, 29]
36.739[23, 21, 26, 24, 22, 54, 64, 30]
36.761[22, 22, 28, 25, 22, 54, 66, 28]
36.776[22, 21, 22, 25, 22, 46, 66, 29]
36.799[22, 20, 24, 27, 22, 45, 74, 28]
36.821[21, 23, 27, 27, 23, 47, 65, 27]
36.836[21, 23, 28, 25, 25, 47, 66, 26]
36.859[22, 24, 27, 23, 25, 47, 62, 24]
36.882[20, 25, 27, 23, 24, 48, 73, 19]
36.904[21, 26, 24, 24, 25, 46, 65, 20]
36.919[21, 24, 20, 25, 24, 42, 66, 19]
36.942[20, 23, 20, 23, 23, 42, 61, 17]
36.972[20, 21, 20, 23, 22, 42, 61, 19]
36.979[18, 21, 20, 25, 23, 38, 49, 21]
37.001[18, 22, 26, 25, 22, 36, 64, 22]
37.024[20, 21, 25, 24, 23, 45, 67, 23]
37.039[20, 22, 25, 23, 23, 53, 72, 27]
37.062[20, 23, 25, 24, 23, 56, 72, 27]
37.084[20, 24, 26, 25, 22, 63, 105, 27]
37.099[22, 22, 20, 24, 25, 63, 100, 28]
37.122[21, 24, 24, 25, 24, 59, 96, 26]
37.144[21, 23, 25, 26, 25, 54, 99, 26]
37.159[21, 23, 24, 25, 27, 52, 121, 27]
37.182[21, 21, 23, 23, 27, 49, 97, 25]
37.204[21, 20, 23, 26, 23, 57, 92, 25]
37.219[19, 18, 21, 27, 23, 56, 90, 25]
37.242[19, 19, 19, 27, 21, 52, 81, 21]
37.264[20, 21, 26, 29, 20, 48, 54, 23]
37.279[20, 20, 25, 28, 18, 41, 56, 23]
37.301[19, 20, 26, 26, 19, 38, 58, 22]
37.324[19, 21, 26, 23, 19, 48, 65, 24]
37.339[18, 20, 28, 23, 21, 58, 66, 24]
37.361[18, 20, 23, 21, 22, 60, 67, 21]
37.384[16, 23, 30, 22, 23, 61, 64, 22]
37.398[23, 24, 30, 22, 24, 60, 65, 32]
37.421[25, 25, 32, 27, 25, 54, 60, 33]
37.445[26, 25, 31, 28, 22, 47, 78, 34]
37.458[27, 23, 31, 28, 20, 45, 70, 36]
37.482[28, 23, 26, 27, 18, 43, 66, 34]
37.504[22, 23, 24, 27, 18, 36, 66, 25]
37.518[20, 20, 26, 28, 19, 37, 71, 23]
37.541[20, 22, 25, 26, 20, 34, 54, 20]
37.564[20, 22, 24, 27, 20, 39, 53, 19]
37.578[21, 21, 25, 29, 21, 40, 57, 19]
37.602[22, 21, 27, 28, 22, 42, 65, 21]
37.624[22, 21, 22, 23, 20, 39, 73, 23]
37.647[21, 19, 26, 31, 20, 39, 74, 25]
37.661[19, 18, 26, 30, 21, 35, 79, 24]
37.684[18, 22, 24, 29, 19, 38, 75, 24]
37.699[16, 22, 23, 31, 17, 46, 78, 22]
37.722[18, 22, 25, 32, 19, 49, 67, 20]
37.744[19, 21, 22, 25, 19, 55, 68, 20]
37.767[20, 23, 27, 26, 18, 56, 68, 22]
37.782[22, 20, 27, 25, 20, 54, 68, 22]
37.804[22, 21, 27, 24, 22, 48, 55, 22]
37.826[21, 22, 25, 23, 22, 49, 75, 23]
37.842[20, 22, 25, 24, 22, 45, 70, 22]
37.864[20, 21, 20, 25, 23, 43, 72, 22]
37.886[18, 21, 20, 26, 23, 42, 71, 22]
37.903[18, 19, 19, 25, 24, 38, 72, 24]
37.923[18, 17, 19, 25, 22, 32, 50, 22]
37.953[20, 19, 21, 23, 22, 36, 63, 22]
37.962[18, 20, 25, 21, 22, 41, 59, 21]
37.983[21, 21, 25, 21, 20, 41, 60, 22]
38.013[21, 21, 28, 23, 20, 44, 59, 23]
38.022[20, 20, 30, 24, 20, 44, 68, 24]
38.043[20, 21, 29, 24, 20, 42, 74, 26]
38.066[21, 20, 27, 22, 21, 39, 75, 26]
38.082[20, 19, 27, 26, 23, 41, 74, 26]
38.103[20, 22, 29, 29, 22, 40, 78, 24]
38.126[20, 23, 26, 28, 24, 51, 80, 25]
38.142[19, 22, 28, 28, 25, 51, 66, 25]
38.163[19, 21, 27, 29, 24, 51, 66, 24]
38.186[22, 23, 28, 28, 23, 49, 74, 24]
38.202[21, 21, 24, 22, 23, 53, 80, 24]
38.223[21, 21, 27, 23, 21, 46, 68, 23]
38.246[21, 20, 25, 23, 21, 50, 71, 22]
38.262[21, 22, 29, 26, 21, 49, 77, 22]
38.284[19, 21, 29, 24, 21, 49, 79, 24]
38.306[21, 21, 31, 26, 22, 51, 76, 23]
38.322[22, 20, 28, 25, 22, 54, 74, 23]
38.344[23, 21, 31, 26, 21, 49, 71, 24]
38.366[23, 20, 26, 22, 21, 64, 82, 25]
38.382[22, 22, 23, 24, 22, 68, 75, 28]
38.404[21, 21, 21, 22, 21, 63, 69, 29]
38.426[20, 22, 25, 25, 23, 61, 70, 28]
38.442[20, 22, 22, 24, 23, 59, 71, 26]
38.463[21, 23, 23, 24, 24, 43, 49, 26]
38.486[22, 20, 23, 24, 23, 38, 68, 24]
38.502[23, 22, 25, 25, 24, 44, 70, 24]
38.523[23, 23, 22, 22, 23, 48, 69, 24]
38.546[22, 23, 23, 20, 24, 47, 68, 24]
38.562[23, 22, 24, 23, 23, 47, 86, 24]
38.583[21, 21, 23, 22, 22, 52, 72, 23]
38.606[21, 22, 23, 22, 22, 50, 73, 23]
38.622[21, 21, 23, 23, 22, 46, 75, 21]
38.644[20, 23, 24, 24, 21, 46, 76, 22]
38.666[19, 21, 23, 26, 21, 48, 81, 24]
38.682[20, 23, 28, 26, 22, 44, 80, 22]
38.703[19, 23, 27, 25, 22, 41, 81, 21]
38.726[19, 22, 27, 25, 23, 37, 81, 22]
38.741[19, 24, 26, 26, 23, 37, 81, 22]
38.763[18, 25, 28, 23, 24, 35, 75, 17]
38.787[17, 24, 23, 26, 23, 40, 89, 23]
38.808[20, 25, 29, 28, 22, 50, 90, 25]
38.823[20, 26, 30, 28, 23, 55, 88, 25]
38.846[21, 23, 29, 28, 22, 54, 87, 25]
38.868[24, 24, 29, 29, 22, 53, 88, 27]
38.883[25, 24, 29, 27, 24, 47, 75, 25]
38.906[23, 23, 27, 25, 24, 38, 73, 22]
38.928[24, 23, 28, 25, 26, 37, 73, 22]
38.943[24, 24, 28, 24, 26, 38, 73, 22]
38.966[22, 22, 26, 23, 26, 40, 70, 24]
38.988[22, 23, 28, 21, 25, 39, 67, 21]
39.003[20, 25, 31, 22, 24, 43, 64, 23]
39.026[19, 23, 30, 20, 22, 40, 63, 24]
39.048[19, 23, 32, 20, 23, 41, 67, 26]
39.063[20, 24, 32, 20, 23, 42, 65, 24]
39.086[20, 24, 32, 20, 23, 45, 66, 25]
39.108[21, 23, 26, 22, 23, 38, 65, 23]
39.123[21, 22, 27, 24, 22, 37, 66, 24]
39.146[22, 23, 26, 25, 21, 40, 84, 27]
39.169[21, 25, 28, 25, 20, 42, 92, 26]
39.183[18, 25, 28, 25, 22, 42, 93, 25]
39.206[19, 25, 29, 22, 22, 42, 93, 26]
39.229[18, 24, 26, 21, 21, 41, 94, 26]
39.243[17, 23, 26, 19, 20, 39, 80, 24]
39.266[18, 23, 21, 23, 21, 34, 55, 22]
39.288[19, 22, 21, 24, 22, 40, 58, 25]
39.303[18, 20, 21, 24, 21, 43, 60, 25]
39.326[18, 19, 24, 25, 21, 42, 60, 24]
39.348[18, 22, 29, 29, 22, 47, 79, 23]
39.363[18, 20, 31, 28, 22, 45, 78, 23]
39.386[19, 19, 30, 29, 20, 60, 79, 22]
39.417[18, 22, 29, 29, 22, 61, 79, 21]
39.424[18, 22, 27, 30, 21, 61, 78, 22]
39.446[18, 21, 22, 26, 21, 58, 53, 21]
39.468[18, 22, 21, 25, 20, 58, 61, 24]
39.483[19, 24, 22, 23, 20, 36, 60, 22]
39.506[19, 22, 21, 25, 18, 47, 68, 25]
39.528[20, 23, 22, 27, 19, 51, 70, 26]
39.543[20, 24, 25, 27, 19, 55, 76, 27]
39.566[20, 22, 26, 27, 18, 56, 85, 27]
39.588[21, 22, 25, 28, 22, 60, 85, 29]
39.603[21, 24, 27, 26, 22, 61, 78, 27]
39.626[20, 22, 27, 27, 22, 60, 78, 26]
39.648[22, 21, 24, 30, 21, 58, 73, 26]
39.663[22, 21, 24, 29, 22, 59, 68, 26]
39.686[19, 23, 26, 29, 19, 58, 68, 26]
39.708[19, 21, 24, 29, 20, 45, 66, 26]
39.731[20, 22, 25, 25, 22, 42, 70, 27]
39.746[18, 23, 24, 27, 22, 41, 77, 26]
39.768[18, 26, 26, 29, 23, 36, 69, 24]
39.791[17, 23, 23, 29, 21, 30, 66, 22]
39.806[18, 23, 23, 28, 22, 30, 69, 23]
39.836[18, 24, 23, 30, 19, 30, 63, 23]
39.851[18, 24, 25, 26, 21, 26, 52, 25]
39.866[17, 21, 22, 26, 23, 28, 41, 26]
39.896[18, 23, 23, 25, 23, 27, 37, 25]
39.911[18, 24, 25, 25, 23, 27, 28, 25]
39.925[18, 23, 27, 51, 23, 27, 26, 24]
39.948[20, 22, 26, 60, 23, 25, 25, 23]
39.971[20, 23, 26, 62, 22, 27, 24, 22]
39.986[21, 22, 26, 65, 23, 28, 25, 22]
40.009[21, 20, 25, 65, 25, 30, 30, 23]
40.032[21, 20, 23, 52, 26, 31, 30, 23]
40.046[19, 21, 22, 41, 26, 31, 31, 19]
40.068[18, 22, 23, 39, 25, 29, 30, 19]
40.091[17, 22, 24, 36, 25, 29, 28, 22]
40.106[18, 23, 22, 51, 22, 24, 28, 27]
40.129[19, 24, 22, 45, 22, 23, 29, 29]
40.151[18, 21, 21, 44, 22, 24, 30, 31]
40.166[18, 20, 19, 43, 22, 22, 31, 33]
40.188[20, 21, 18, 43, 22, 23, 30, 32]
40.211[19, 20, 18, 28, 23, 23, 23, 26]
40.226[17, 21, 18, 30, 23, 23, 20, 23]
40.249[17, 25, 21, 31, 24, 23, 20, 22]
40.271[20, 25, 21, 32, 24, 22, 19, 22]
40.286[19, 25, 22, 32, 24, 21, 23, 30]
40.309[20, 25, 22, 27, 23, 22, 25, 32]
40.331[21, 25, 20, 26, 23, 21, 25, 33]
40.346[22, 22, 19, 27, 22, 21, 23, 32]
40.369[20, 21, 20, 31, 25, 23, 23, 31]
40.391[19, 21, 19, 44, 27, 24, 17, 24]
40.406[19, 22, 21, 48, 29, 25, 19, 32]
40.429[33, 21, 22, 48, 29, 28, 63, 243]
40.451[35, 21, 21, 47, 31, 28, 73, 263]
40.466[36, 23, 20, 46, 29, 27, 74, 269]
40.488[37, 22, 19, 37, 31, 27, 76, 273]
40.512[38, 21, 18, 35, 31, 27, 75, 275]
40.526[25, 21, 18, 35, 30, 23, 46, 137]
40.548[21, 23, 22, 34, 29, 24, 30, 95]
40.572[19, 21, 21, 32, 29, 24, 26, 78]
40.586[17, 22, 22, 27, 25, 23, 24, 63]
40.609[15, 23, 22, 27, 24, 26, 28, 50]
40.632[16, 24, 23, 23, 27, 24, 28, 36]
40.646[17, 20, 18, 23, 25, 25, 29, 33]
40.668[18, 21, 20, 24, 24, 25, 29, 31]
40.691[19, 21, 20, 23, 22, 24, 29, 30]
40.714[19, 19, 22, 19, 22, 21, 23, 24]
40.728[19, 20, 22, 21, 22, 22, 21, 22]
40.751[19, 20, 23, 22, 25, 20, 18, 28]
40.774[22, 19, 23, 21, 27, 21, 27, 110]
40.788[22, 20, 23, 24, 27, 21, 27, 117]
40.812[23, 19, 22, 29, 35, 24, 37, 157]
40.834[23, 20, 22, 30, 41, 26, 40, 165]
40.848[23, 21, 22, 30, 41, 28, 40, 169]
40.872[21, 21, 20, 30, 42, 26, 38, 137]
40.894[23, 20, 19, 33, 45, 27, 49, 173]
40.909[22, 21, 20, 31, 42, 28, 44, 149]
40.932[22, 21, 19, 37, 45, 27, 43, 144]
40.954[22, 21, 20, 37, 44, 27, 43, 141]
40.969[22, 23, 22, 38, 44, 28, 42, 137]
40.991[20, 24, 23, 37, 45, 27, 30, 85]
41.014[23, 24, 26, 60, 119, 30, 46, 141]
41.036[23, 23, 28, 88, 121, 30, 47, 148]
41.051[24, 25, 31, 98, 123, 30, 48, 146]
41.074[23, 23, 30, 104, 127, 31, 48, 147]
41.088[25, 22, 32, 106, 126, 31, 48, 149]
41.112[26, 23, 30, 99, 72, 28, 47, 134]
41.134[31, 23, 28, 74, 73, 30, 59, 176]
41.148[32, 22, 25, 62, 94, 31, 62, 183]
41.172[33, 24, 28, 82, 91, 31, 63, 185]
41.194[34, 24, 29, 86, 103, 31, 71, 226]
41.209[34, 24, 29, 87, 99, 32, 77, 243]
41.232[29, 24, 30, 110, 97, 31, 68, 211]
41.254[29, 22, 30, 133, 81, 29, 69, 212]
41.268[28, 23, 29, 122, 83, 28, 68, 210]
41.292[26, 23, 24, 123, 86, 27, 59, 163]
41.314[22, 21, 24, 120, 82, 22, 36, 83]
41.329[24, 23, 23, 101, 82, 19, 45, 139]
41.352[26, 23, 23, 66, 76, 20, 41, 132]
41.374[26, 21, 20, 55, 71, 22, 41, 136]
41.389[26, 19, 24, 40, 50, 23, 40, 136]
41.412[26, 20, 21, 41, 53, 24, 43, 135]
41.434[31, 21, 30, 66, 139, 35, 57, 143]
41.448[32, 23, 33, 71, 152, 40, 65, 169]
41.472[33, 23, 32, 74, 158, 39, 70, 204]
41.494[33, 25, 30, 81, 161, 39, 75, 210]
41.508[34, 25, 32, 81, 160, 38, 73, 212]
41.532[27, 23, 27, 75, 109, 31, 56, 169]
41.561[23, 21, 26, 78, 94, 25, 45, 140]
41.568[27, 22, 26, 76, 85, 23, 56, 171]
41.592[28, 20, 26, 71, 79, 24, 53, 195]
41.621[29, 22, 27, 69, 78, 25, 56, 199]
41.636[30, 22, 24, 49, 47, 24, 57, 202]
41.652[31, 21, 23, 50, 34, 23, 58, 205]
41.674[27, 23, 24, 54, 37, 25, 40, 139]
41.697[24, 22, 24, 51, 37, 24, 34, 86]
41.719[25, 20, 24, 50, 34, 24, 39, 126]
41.734[33, 22, 25, 52, 52, 24, 58, 233]
41.756[32, 23, 24, 37, 53, 25, 60, 244]
41.779[32, 21, 24, 29, 55, 24, 61, 248]
41.794[34, 23, 24, 27, 53, 23, 62, 249]
41.816[33, 22, 23, 29, 56, 23, 56, 230]
41.831[24, 23, 23, 25, 42, 22, 32, 115]
41.854[23, 22, 23, 25, 42, 22, 27, 84]
41.876[22, 23, 22, 25, 35, 22, 30, 69]
41.892[17, 22, 23, 27, 36, 21, 30, 60]
41.914[17, 22, 24, 26, 32, 21, 30, 48]
41.937[18, 21, 22, 27, 33, 22, 30, 41]
41.951[18, 21, 22, 27, 31, 19, 30, 37]
41.974[29, 22, 25, 41, 64, 22, 56, 227]
41.997[32, 22, 25, 44, 68, 23, 59, 240]
42.011[33, 24, 26, 48, 89, 24, 61, 245]
42.034[34, 24, 27, 48, 88, 25, 62, 250]
42.057[33, 23, 26, 48, 88, 26, 62, 252]
42.072[25, 20, 24, 36, 69, 23, 36, 119]
42.094[22, 20, 22, 32, 65, 23, 29, 91]
42.117[21, 19, 21, 27, 31, 22, 29, 93]
42.131[22, 17, 19, 23, 35, 22, 39, 126]
42.155[26, 20, 22, 25, 34, 21, 39, 127]
42.176[26, 22, 27, 25, 33, 21, 39, 125]
42.191[25, 22, 28, 23, 32, 20, 39, 126]
42.214[24, 22, 29, 22, 34, 19, 37, 115]
42.236[21, 22, 30, 23, 25, 19, 23, 59]
42.251[18, 22, 28, 21, 25, 20, 27, 50]
42.274[17, 19, 23, 22, 27, 19, 26, 42]
42.297[17, 19, 21, 24, 31, 19, 27, 34]
42.311[19, 21, 19, 24, 30, 17, 27, 32]
42.334[19, 22, 17, 23, 29, 17, 27, 29]
42.356[20, 20, 19, 23, 29, 16, 20, 25]
42.371[21, 22, 20, 22, 27, 16, 21, 23]
42.394[22, 22, 20, 21, 24, 17, 28, 29]
42.417[20, 20, 23, 20, 22, 18, 27, 27]
42.431[19, 19, 24, 21, 23, 17, 27, 26]
42.454[17, 19, 23, 19, 22, 19, 30, 30]
42.484[19, 18, 23, 21, 22, 17, 29, 29]
42.499[18, 20, 22, 20, 22, 17, 21, 22]
42.514[18, 21, 21, 18, 23, 17, 22, 24]
42.536[18, 21, 22, 19, 23, 19, 22, 25]
42.551[20, 20, 22, 19, 24, 18, 18, 20]
42.574[17, 20, 21, 19, 25, 20, 17, 20]
42.597[18, 17, 21, 21, 24, 21, 19, 21]
42.619[18, 17, 21, 21, 22, 22, 20, 20]
42.634[17, 16, 21, 20, 22, 22, 28, 27]
42.657[15, 17, 19, 19, 22, 23, 29, 26]
42.679[15, 20, 19, 21, 22, 20, 29, 27]
42.695[17, 23, 18, 19, 23, 18, 30, 28]
42.716[16, 23, 16, 19, 23, 18, 29, 26]
42.738[18, 22, 17, 20, 24, 16, 21, 20]
42.754[22, 22, 18, 22, 24, 17, 21, 20]
42.776[21, 18, 21, 20, 23, 16, 23, 22]
42.798[21, 17, 23, 20, 23, 17, 26, 28]
42.814[22, 17, 23, 22, 23, 17, 26, 32]
42.836[21, 19, 24, 20, 20, 18, 27, 32]
42.86[17, 20, 23, 19, 18, 17, 28, 33]
42.875[18, 19, 23, 21, 17, 18, 27, 32]
42.896[19, 18, 21, 21, 16, 18, 23, 26]
42.918[20, 20, 21, 22, 18, 19, 24, 22]
42.935[19, 20, 20, 22, 19, 19, 22, 22]
42.956[20, 21, 20, 22, 21, 20, 31, 35]
42.978[20, 22, 20, 21, 22, 20, 31, 35]
42.995[18, 23, 20, 22, 26, 21, 31, 36]
43.016[16, 22, 21, 21, 26, 21, 32, 35]
43.038[17, 21, 22, 20, 26, 20, 32, 36]
43.055[17, 18, 22, 20, 24, 20, 23, 23]
43.076[19, 19, 21, 21, 24, 34, 22, 21]
43.098[19, 18, 22, 21, 23, 33, 22, 21]
43.115[20, 17, 21, 20, 22, 34, 18, 22]
43.136[21, 18, 20, 20, 22, 36, 19, 19]
43.166[21, 21, 21, 21, 25, 35, 19, 21]
43.174[18, 21, 22, 19, 25, 23, 22, 20]
43.197[19, 21, 21, 18, 22, 24, 23, 18]
43.218[21, 22, 21, 20, 23, 22, 32, 27]
43.235[20, 23, 21, 20, 23, 19, 33, 27]
43.256[19, 21, 18, 17, 21, 21, 32, 27]
43.278[20, 20, 19, 19, 26, 20, 30, 28]
43.295[19, 20, 21, 23, 26, 18, 29, 30]
43.317[17, 18, 21, 21, 25, 20, 20, 23]
43.338[18, 20, 21, 20, 27, 20, 19, 24]
43.355[18, 22, 22, 23, 26, 21, 19, 22]
43.376[17, 22, 20, 22, 22, 21, 19, 22]
43.399[16, 22, 21, 19, 23, 22, 21, 23]
43.414[17, 23, 21, 21, 22, 20, 21, 22]
43.436[18, 22, 21, 22, 22, 22, 27, 26]
43.458[19, 20, 21, 20, 23, 21, 28, 27]
43.474[18, 22, 21, 19, 23, 20, 29, 28]
43.496[20, 22, 22, 20, 21, 19, 28, 25]
43.518[19, 23, 22, 21, 21, 18, 27, 26]
43.541[18, 21, 22, 21, 21, 16, 21, 22]
43.556[17, 21, 21, 22, 21, 15, 20, 20]
43.578[20, 20, 24, 23, 23, 15, 21, 22]
43.601[19, 20, 23, 22, 23, 14, 21, 23]
43.616[20, 19, 24, 21, 23, 19, 20, 22]
43.638[20, 21, 23, 19, 23, 19, 21, 22]
43.661[21, 19, 24, 21, 24, 19, 20, 22]
43.676[19, 18, 22, 19, 21, 21, 19, 22]
43.698[19, 16, 22, 20, 22, 22, 17, 21]
43.721[20, 18, 20, 20, 24, 19, 20, 21]
43.736[21, 15, 21, 20, 24, 20, 25, 27]
43.758[22, 17, 19, 20, 24, 18, 26, 28]
43.782[22, 18, 21, 20, 23, 17, 26, 28]
43.796[21, 20, 20, 19, 25, 17, 27, 28]
43.818[19, 19, 20, 19, 23, 16, 25, 27]
43.842[18, 19, 20, 19, 23, 15, 19, 21]
43.856[18, 20, 20, 17, 21, 17, 19, 20]
43.878[17, 19, 18, 19, 21, 17, 19, 17]
43.901[18, 20, 20, 19, 22, 17, 19, 21]
43.916[20, 20, 22, 22, 22, 16, 19, 21]
43.94[20, 21, 24, 22, 20, 15, 19, 22]
43.961[19, 20, 23, 22, 22, 14, 19, 21]
43.977[20, 21, 24, 21, 22, 15, 21, 20]
43.998[19, 19, 22, 21, 20, 15, 23, 17]
44.029[18, 22, 21, 19, 22, 17, 23, 21]
44.036[19, 22, 18, 18, 22, 17, 24, 19]
44.058[19, 23, 19, 18, 21, 16, 23, 19]
44.081[19, 22, 18, 19, 21, 16, 22, 19]
44.096[21, 22, 20, 18, 20, 16, 19, 19]
44.118[21, 22, 20, 19, 20, 13, 21, 20]
44.141[20, 22, 22, 20, 20, 15, 18, 19]
44.156[21, 21, 22, 21, 21, 17, 18, 21]
44.186[21, 22, 22, 21, 23, 18, 18, 21]
44.201[19, 23, 21, 22, 23, 18, 17, 20]
44.216[20, 21, 21, 20, 22, 20, 17, 21]
44.238[20, 21, 22, 19, 25, 20, 18, 21]
44.261[21, 21, 21, 18, 25, 18, 19, 21]
44.276[21, 22, 24, 19, 23, 18, 17, 21]
44.306[21, 23, 25, 19, 23, 18, 19, 22]
44.321[20, 23, 25, 20, 25, 17, 17, 20]
44.336[20, 25, 23, 21, 23, 16, 16, 20]
44.358[19, 24, 24, 22, 22, 17, 16, 19]
44.381[19, 23, 21, 20, 23, 18, 18, 19]
44.396[19, 22, 19, 21, 22, 18, 18, 18]
44.427[20, 25, 20, 21, 22, 20, 18, 16]
44.449[22, 24, 19, 20, 21, 21, 19, 17]
44.463[22, 25, 20, 19, 20, 21, 18, 17]
44.478[21, 24, 21, 20, 21, 20, 16, 16]
44.501[21, 23, 21, 19, 20, 21, 15, 18]
44.523[21, 21, 22, 20, 18, 19, 17, 20]
44.539[19, 22, 21, 18, 20, 18, 18, 19]
44.561[19, 22, 19, 20, 21, 18, 19, 20]
44.583[20, 20, 19, 19, 20, 19, 19, 21]
44.598[20, 21, 19, 21, 19, 17, 19, 21]
44.621[18, 21, 19, 20, 19, 17, 18, 18]
44.644[18, 21, 19, 21, 19, 18, 18, 19]
44.658[18, 20, 21, 19, 18, 17, 18, 19]
44.681[18, 20, 19, 18, 19, 16, 19, 18]
44.704[17, 22, 19, 17, 19, 17, 19, 20]
44.718[17, 22, 18, 17, 21, 17, 19, 20]
44.741[18, 21, 20, 20, 22, 16, 18, 20]
44.763[17, 21, 20, 20, 23, 16, 21, 19]
44.778[17, 21, 21, 20, 22, 17, 21, 20]
44.801[19, 19, 23, 21, 23, 16, 21, 16]
44.823[20, 20, 23, 20, 20, 17, 20, 17]
44.838[21, 21, 24, 17, 19, 18, 19, 16]
44.861[22, 21, 25, 18, 18, 17, 17, 16]
44.883[23, 22, 25, 18, 17, 16, 16, 15]
44.898[21, 24, 26, 18, 17, 18, 18, 16]
44.921[20, 22, 27, 19, 19, 17, 19, 19]
44.943[19, 21, 24, 19, 21, 17, 20, 19]
44.958[20, 21, 21, 20, 19, 20, 23, 20]
44.981[18, 21, 21, 20, 19, 20, 23, 20]
45.004[18, 18, 18, 20, 19, 19, 20, 19]
45.018[20, 21, 18, 21, 19, 20, 22, 18]
45.041[19, 21, 19, 23, 18, 21, 22, 18]
45.063[19, 19, 20, 21, 20, 20, 20, 18]
45.078[20, 21, 21, 21, 20, 20, 20, 17]
45.109[19, 22, 20, 22, 20, 19, 20, 19]
45.123[19, 21, 21, 21, 18, 20, 19, 23]
45.138[18, 21, 20, 20, 20, 18, 18, 23]
45.161[17, 23, 20, 22, 20, 19, 17, 23]
45.183[19, 21, 19, 24, 20, 17, 15, 25]
45.198[21, 22, 20, 22, 21, 18, 18, 25]
45.221[20, 20, 20, 21, 23, 16, 17, 22]
45.244[22, 22, 19, 21, 20, 16, 18, 23]
45.258[24, 23, 21, 18, 20, 15, 18, 23]
45.281[22, 23, 21, 17, 20, 16, 19, 20]
45.304[22, 22, 20, 20, 19, 16, 18, 19]
45.318[23, 22, 19, 21, 19, 17, 19, 18]
45.341[22, 23, 19, 19, 19, 18, 21, 17]
45.363[21, 22, 19, 20, 19, 18, 21, 19]
45.378[22, 21, 21, 21, 20, 18, 22, 18]
45.401[21, 22, 21, 20, 21, 18, 20, 19]
45.423[19, 23, 21, 18, 20, 18, 21, 19]
45.446[19, 19, 22, 19, 19, 16, 18, 17]
45.461[18, 18, 21, 19, 18, 17, 19, 16]
45.483[17, 20, 22, 18, 20, 18, 17, 16]
45.506[17, 19, 24, 17, 19, 18, 17, 15]
45.521[18, 19, 25, 17, 20, 20, 16, 15]
45.544[18, 20, 25, 19, 20, 21, 17, 17]
45.566[18, 22, 25, 18, 22, 21, 16, 17]
45.581[19, 21, 22, 18, 20, 19, 17, 19]
45.604[18, 21, 22, 20, 20, 19, 17, 18]
45.626[19, 20, 20, 19, 20, 18, 17, 19]
45.641[20, 22, 18, 19, 20, 17, 17, 18]
45.663[22, 21, 19, 18, 17, 17, 18, 20]
45.686[20, 24, 21, 19, 19, 18, 18, 19]
45.701[21, 23, 20, 17, 19, 18, 22, 19]
45.723[20, 23, 23, 18, 18, 17, 21, 20]
45.746[17, 21, 24, 18, 20, 16, 22, 21]
45.761[16, 22, 24, 21, 22, 18, 22, 18]
45.784[18, 19, 23, 20, 20, 20, 22, 20]
45.806[17, 20, 22, 20, 21, 20, 19, 21]
45.821[18, 18, 21, 20, 22, 20, 21, 20]
45.843[19, 18, 22, 19, 21, 23, 20, 20]
45.866[19, 19, 22, 18, 20, 20, 19, 21]
45.881[17, 20, 23, 21, 21, 19, 19, 20]
45.904[18, 22, 23, 22, 21, 20, 19, 19]
45.926[17, 23, 20, 22, 20, 21, 17, 18]
45.941[17, 23, 21, 21, 18, 20, 19, 17]
45.964[17, 24, 20, 20, 19, 21, 19, 17]
45.986[18, 21, 18, 18, 19, 19, 19, 15]
46.0[17, 22, 19, 16, 18, 19, 20, 16]
46.024[17, 20, 20, 18, 20, 18, 20, 16]
46.046[18, 21, 18, 18, 21, 18, 20, 17]
46.061[18, 23, 17, 18, 21, 17, 19, 15]
46.084[18, 23, 19, 17, 23, 18, 19, 16]
46.107[20, 23, 18, 19, 23, 18, 18, 16]
46.129[20, 22, 19, 15, 22, 17, 18, 18]
46.144[20, 21, 21, 17, 22, 18, 18, 18]
46.166[20, 19, 22, 18, 21, 20, 19, 20]
46.181[19, 19, 21, 19, 19, 20, 19, 20]
46.204[19, 18, 22, 18, 20, 20, 20, 20]
46.226[19, 20, 22, 20, 19, 22, 19, 20]
46.241[17, 21, 20, 21, 20, 20, 19, 19]
46.264[17, 21, 21, 22, 21, 19, 19, 18]
46.286[18, 22, 22, 21, 23, 17, 18, 19]
46.3[17, 23, 23, 21, 22, 18, 17, 19]
46.324[17, 22, 22, 21, 23, 19, 18, 18]
46.346[17, 22, 23, 21, 22, 20, 16, 20]
46.369[19, 22, 21, 21, 20, 20, 15, 20]
46.384[20, 21, 20, 22, 18, 20, 16, 19]
46.406[20, 19, 19, 21, 18, 21, 15, 20]
46.429[21, 18, 18, 21, 15, 17, 15, 20]
46.444[21, 17, 18, 19, 17, 19, 15, 19]
46.466[20, 18, 19, 19, 18, 19, 16, 19]
46.497[19, 19, 19, 18, 18, 21, 16, 19]
46.504[22, 21, 18, 17, 20, 19, 18, 20]
46.526[22, 19, 19, 17, 21, 20, 18, 18]
46.557[23, 23, 18, 18, 21, 19, 19, 19]
46.564[23, 22, 20, 18, 21, 19, 19, 19]
46.586[24, 24, 20, 17, 21, 17, 19, 19]
46.617[21, 23, 20, 18, 20, 19, 17, 16]
46.624[21, 23, 20, 18, 20, 19, 18, 18]
46.646[19, 22, 22, 17, 18, 18, 18, 17]
46.669[18, 23, 19, 17, 20, 20, 19, 17]
46.684[18, 21, 21, 18, 20, 19, 20, 16]
46.706[18, 23, 22, 18, 20, 18, 21, 16]
46.729[20, 23, 23, 18, 20, 20, 21, 17]
46.744[21, 23, 23, 19, 21, 20, 20, 17]
46.774[19, 22, 24, 18, 22, 19, 20, 17]
46.789[19, 22, 22, 19, 21, 20, 19, 18]
46.804[19, 20, 21, 20, 21, 19, 18, 20]
46.834[15, 20, 19, 21, 21, 18, 19, 18]
46.849[16, 20, 20, 20, 19, 20, 19, 17]
46.863[16, 20, 20, 21, 21, 20, 22, 19]
46.886[15, 21, 20, 21, 22, 19, 21, 18]
46.909[17, 22, 20, 22, 22, 22, 21, 16]
46.923[18, 22, 23, 23, 22, 21, 21, 20]
46.946[19, 22, 22, 23, 23, 20, 22, 22]
46.969[18, 23, 21, 23, 21, 19, 20, 21]
46.983[19, 21, 23, 21, 21, 19, 21, 23]
47.006[20, 21, 24, 21, 20, 17, 21, 24]
47.029[19, 23, 24, 21, 20, 20, 21, 22]
47.043[20, 25, 22, 23, 21, 20, 18, 21]
47.067[20, 25, 25, 22, 19, 21, 18, 20]
47.089[21, 25, 24, 22, 20, 21, 16, 18]
47.104[20, 25, 24, 20, 21, 20, 17, 19]
47.126[20, 23, 21, 19, 22, 18, 16, 18]
47.149[19, 20, 21, 18, 22, 17, 18, 19]
47.171[18, 18, 19, 19, 24, 17, 19, 19]
47.186[18, 18, 19, 18, 23, 17, 19, 19]
47.209[17, 17, 19, 21, 21, 19, 19, 16]
47.223[18, 17, 20, 21, 20, 19, 20, 16]
47.249[18, 20, 22, 20, 20, 21, 21, 18]
47.269[19, 21, 23, 20, 18, 23, 20, 18]
47.283[17, 22, 22, 21, 19, 23, 20, 19]
47.306[17, 22, 22, 18, 19, 20, 21, 21]
47.331[17, 22, 20, 17, 19, 21, 21, 23]
47.352[16, 22, 20, 19, 19, 20, 20, 21]
47.366[16, 22, 20, 20, 18, 19, 20, 21]
47.389[16, 22, 21, 20, 18, 20, 21, 19]
47.411[19, 21, 19, 22, 19, 21, 20, 18]
47.426[19, 21, 21, 23, 19, 21, 19, 16]
47.449[19, 19, 21, 22, 19, 22, 19, 17]
47.471[19, 18, 21, 20, 20, 22, 19, 17]
47.486[18, 18, 20, 19, 20, 21, 19, 18]
47.509[15, 18, 21, 18, 20, 20, 20, 20]
47.532[16, 19, 19, 18, 21, 20, 21, 21]
47.546[16, 22, 19, 21, 22, 20, 20, 21]
47.576[16, 22, 18, 21, 23, 19, 21, 21]
47.591[19, 22, 20, 21, 22, 20, 20, 21]
47.606[22, 22, 19, 21, 22, 20, 20, 24]
47.629[22, 22, 20, 22, 25, 21, 19, 24]
47.65[25, 18, 20, 18, 24, 19, 20, 22]
47.667[27, 18, 22, 23, 23, 20, 19, 23]
47.695[28, 22, 20, 25, 22, 20, 18, 24]
47.71[25, 25, 20, 25, 20, 20, 17, 19]
47.727[24, 26, 19, 24, 17, 19, 18, 19]
47.748[21, 28, 18, 26, 20, 20, 23, 19]
47.771[19, 28, 18, 21, 20, 21, 26, 17]
47.794[18, 25, 18, 18, 20, 21, 27, 18]
47.808[18, 21, 20, 18, 21, 22, 26, 18]
47.831[23, 20, 20, 20, 18, 21, 29, 18]
47.854[27, 18, 21, 19, 14, 22, 27, 17]
47.868[28, 17, 20, 19, 13, 20, 25, 19]
47.891[30, 19, 21, 19, 15, 18, 26, 17]
47.914[30, 18, 19, 18, 16, 20, 26, 19]
47.928[26, 20, 20, 18, 18, 20, 22, 25]
47.951[21, 21, 19, 19, 18, 20, 20, 28]
47.967[20, 21, 18, 21, 21, 19, 19, 32]
47.988[17, 20, 16, 22, 19, 20, 17, 37]
48.011[16, 22, 19, 24, 27, 18, 21, 38]
48.043[19, 21, 21, 22, 28, 18, 36, 35]
48.048[21, 20, 19, 22, 32, 17, 43, 33]
48.072[25, 20, 22, 24, 31, 16, 53, 28]
48.087[28, 20, 23, 42, 32, 16, 57, 21]
48.108[28, 21, 24, 46, 27, 15, 56, 18]
48.132[27, 21, 24, 51, 25, 16, 53, 14]
48.147[30, 23, 25, 62, 19, 16, 54, 18]
48.168[27, 24, 25, 71, 23, 16, 45, 20]
48.192[22, 23, 25, 67, 25, 16, 41, 24]
48.207[23, 21, 22, 67, 23, 15, 39, 25]
48.228[24, 21, 21, 63, 22, 14, 33, 27]
48.252[19, 21, 21, 52, 23, 15, 29, 26]
48.281[21, 20, 19, 36, 20, 18, 36, 26]
48.288[20, 22, 21, 26, 24, 19, 38, 23]
48.312[20, 22, 22, 20, 26, 21, 45, 24]
48.334[18, 22, 21, 18, 26, 24, 47, 33]
48.35[19, 21, 21, 18, 26, 26, 49, 37]
48.378[20, 21, 21, 20, 25, 26, 45, 35]
48.393[22, 23, 19, 18, 19, 26, 48, 35]
48.408[21, 23, 22, 18, 22, 27, 42, 33]
48.431[21, 23, 24, 20, 27, 27, 44, 22]
48.453[23, 23, 26, 20, 31, 26, 38, 22]
48.468[22, 22, 26, 21, 43, 24, 38, 22]
48.49[20, 19, 26, 23, 45, 30, 34, 25]
48.513[20, 19, 24, 25, 44, 28, 37, 27]
48.53[23, 16, 23, 24, 44, 27, 35, 27]
48.558[26, 31, 21, 25, 42, 28, 34, 21]
48.574[28, 32, 21, 23, 30, 32, 39, 21]
48.596[34, 33, 23, 20, 30, 26, 38, 18]
48.612[46, 35, 23, 17, 30, 28, 43, 14]
48.633[49, 35, 21, 16, 27, 28, 41, 17]
48.656[47, 28, 22, 18, 27, 28, 44, 19]
48.67[46, 28, 24, 17, 29, 26, 39, 21]
48.693[45, 29, 23, 20, 26, 28, 40, 24]
48.708[35, 30, 25, 20, 25, 28, 34, 24]
48.731[32, 32, 26, 21, 24, 30, 31, 25]
48.753[32, 35, 24, 20, 24, 30, 28, 26]
48.768[36, 37, 22, 20, 23, 29, 24, 27]
48.791[38, 35, 23, 19, 23, 28, 25, 26]
48.813[37, 34, 20, 20, 28, 26, 22, 27]
48.828[37, 32, 20, 19, 31, 24, 23, 25]
48.85[37, 31, 20, 20, 30, 26, 26, 23]
48.873[33, 28, 25, 20, 29, 32, 25, 32]
48.888[27, 31, 26, 22, 29, 31, 25, 34]
48.911[28, 30, 38, 20, 25, 38, 30, 34]
48.941[24, 30, 42, 21, 26, 37, 31, 36]
48.948[25, 22, 44, 19, 26, 33, 30, 39]
48.971[25, 23, 41, 20, 28, 34, 31, 30]
48.994[27, 26, 40, 19, 28, 35, 29, 27]
49.008[27, 25, 30, 21, 27, 28, 23, 26]
49.031[27, 24, 24, 20, 24, 27, 25, 24]
49.054[29, 24, 18, 21, 23, 28, 25, 17]
49.068[27, 25, 19, 19, 26, 19, 32, 18]
49.091[28, 24, 21, 19, 25, 22, 32, 18]
49.113[27, 27, 24, 18, 24, 25, 33, 18]
49.128[31, 28, 25, 18, 24, 25, 35, 20]
49.152[28, 29, 26, 20, 26, 26, 36, 19]
49.181[29, 30, 26, 19, 20, 24, 32, 19]
49.196[30, 26, 28, 21, 23, 32, 34, 17]
49.218[32, 23, 26, 20, 23, 30, 33, 19]
49.241[26, 23, 24, 21, 24, 31, 27, 20]
49.256[29, 23, 26, 21, 24, 33, 25, 20]
49.27[29, 22, 25, 22, 24, 35, 22, 20]
49.301[23, 22, 23, 20, 23, 26, 20, 23]
49.316[21, 23, 24, 22, 22, 26, 26, 22]
49.332[25, 22, 24, 22, 22, 30, 25, 21]
49.361[26, 28, 21, 23, 21, 27, 25, 23]
49.376[26, 28, 22, 22, 22, 26, 28, 26]
49.392[28, 26, 19, 21, 22, 29, 26, 26]
49.413[28, 25, 18, 20, 21, 28, 25, 26]
49.436[24, 25, 18, 21, 21, 24, 26, 25]
49.45[19, 18, 18, 18, 22, 23, 25, 23]
49.473[21, 19, 20, 18, 20, 24, 24, 22]
49.495[19, 18, 20, 21, 21, 21, 27, 18]
49.511[22, 23, 24, 22, 25, 24, 28, 17]
49.533[23, 26, 23, 21, 27, 35, 27, 16]
49.556[22, 25, 23, 22, 25, 37, 27, 17]
49.579[20, 26, 24, 23, 26, 36, 27, 18]
49.593[21, 28, 23, 21, 25, 36, 27, 20]
49.616[18, 24, 19, 21, 24, 35, 25, 19]
49.631[25, 23, 19, 22, 22, 25, 25, 19]
49.653[26, 24, 21, 22, 22, 22, 25, 20]
49.684[27, 23, 19, 21, 26, 22, 24, 19]
49.69[26, 22, 22, 20, 25, 23, 22, 18]
49.713[26, 23, 23, 20, 25, 22, 24, 18]
49.735[18, 25, 24, 19, 24, 21, 27, 18]
49.75[18, 26, 23, 20, 25, 24, 27, 20]
49.773[21, 28, 22, 22, 21, 23, 24, 21]
49.795[21, 27, 22, 21, 20, 25, 25, 21]
49.81[21, 27, 22, 22, 21, 24, 25, 21]
49.833[23, 24, 21, 22, 21, 25, 23, 20]
49.855[25, 24, 23, 23, 20, 22, 24, 18]
49.871[22, 23, 22, 21, 24, 23, 25, 24]
49.893[21, 24, 21, 22, 26, 21, 25, 41]
49.916[24, 23, 20, 22, 22, 22, 20, 48]
49.931[23, 21, 21, 20, 23, 20, 22, 49]
49.953[19, 23, 20, 20, 24, 18, 25, 49]
49.975[19, 23, 22, 20, 20, 21, 25, 46]
49.992[21, 23, 22, 18, 21, 19, 26, 31]
50.013[17, 26, 25, 19, 21, 24, 26, 18]
50.044[18, 26, 23, 20, 21, 27, 23, 16]
50.052[21, 22, 24, 19, 21, 28, 26, 15]
50.073[20, 21, 23, 19, 21, 29, 24, 16]
50.104[20, 23, 23, 19, 20, 29, 25, 18]
50.111[21, 21, 20, 18, 21, 23, 26, 19]
50.133[25, 21, 21, 19, 22, 24, 26, 21]
50.156[23, 22, 21, 19, 22, 23, 20, 21]
50.179[23, 21, 19, 21, 23, 19, 20, 21]
50.193[22, 21, 19, 21, 22, 20, 19, 20]
50.216[21, 22, 21, 22, 21, 22, 20, 21]
50.239[17, 23, 21, 20, 20, 21, 20, 19]
50.253[18, 22, 20, 22, 21, 20, 22, 21]
50.276[19, 22, 20, 21, 20, 20, 21, 20]
50.299[20, 21, 21, 22, 20, 21, 24, 22]
50.321[21, 21, 20, 22, 20, 21, 25, 23]
50.336[21, 21, 21, 22, 20, 19, 24, 22]
50.359[21, 24, 22, 20, 19, 21, 21, 20]
50.381[22, 27, 24, 21, 18, 21, 22, 21]
50.396[22, 25, 23, 22, 22, 21, 19, 19]
50.419[23, 24, 23, 20, 21, 21, 19, 18]
50.441[21, 24, 22, 21, 22, 20, 19, 19]
50.456