[24, 32, 21, 28, 28, 29, 34, 25]
1.712[25, 32, 22, 27, 27, 30, 37, 25]
1.736[25, 33, 24, 25, 24, 29, 38, 25]
1.749[27, 39, 23, 26, 25, 37, 43, 24]
1.772[27, 37, 24, 21, 25, 35, 44, 25]
1.795[28, 40, 24, 21, 24, 38, 38, 32]
1.809[26, 40, 23, 22, 24, 38, 34, 31]
1.835[26, 43, 23, 23, 25, 37, 31, 30]
1.854[25, 40, 23, 24, 27, 29, 29, 33]
1.869[24, 41, 30, 26, 26, 31, 28, 34]
1.892[22, 36, 30, 27, 28, 25, 26, 26]
1.915[22, 39, 30, 26, 30, 27, 26, 29]
1.929[22, 39, 30, 26, 29, 27, 28, 29]
1.958[26, 38, 31, 23, 29, 31, 27, 29]
1.975[25, 36, 25, 22, 30, 30, 29, 26]
1.99[23, 38, 25, 20, 29, 30, 31, 27]
2.012[26, 37, 26, 21, 29, 29, 34, 23]
2.034[27, 35, 24, 24, 29, 29, 34, 24]
2.049[24, 37, 27, 26, 24, 27, 32, 19]
2.072[28, 43, 24, 25, 22, 27, 30, 21]
2.095[29, 42, 24, 25, 21, 26, 28, 21]
2.109[28, 42, 25, 24, 21, 27, 30, 20]
2.132[28, 43, 25, 22, 24, 26, 30, 23]
2.155[30, 42, 24, 20, 27, 24, 29, 22]
2.169[28, 35, 29, 19, 28, 24, 28, 20]
2.192[27, 38, 28, 19, 28, 23, 31, 26]
2.213[27, 41, 27, 19, 26, 21, 26, 27]
2.238[24, 38, 29, 18, 24, 24, 23, 27]
2.252[21, 38, 26, 19, 28, 23, 23, 26]
2.273[22, 45, 23, 19, 28, 28, 25, 29]
2.289[25, 42, 23, 21, 28, 28, 23, 24]
2.312[26, 38, 23, 21, 28, 28, 25, 27]
2.334[27, 41, 22, 23, 30, 26, 27, 25]
2.35[27, 41, 21, 22, 24, 28, 31, 28]
2.372[25, 39, 20, 24, 24, 27, 32, 27]
2.393[22, 39, 22, 24, 23, 27, 32, 26]
2.416[19, 47, 23, 23, 23, 26, 33, 23]
2.432[20, 46, 23, 22, 20, 29, 33, 27]
2.461[23, 45, 24, 22, 19, 26, 34, 24]
2.476[25, 44, 23, 21, 18, 25, 30, 26]
2.492[26, 45, 21, 21, 20, 25, 31, 27]
2.513[27, 41, 25, 21, 20, 26, 28, 28]
2.552[28, 40, 24, 21, 21, 22, 29, 26]
2.553[27, 42, 24, 22, 20, 25, 29, 27]
2.573[27, 41, 26, 24, 22, 24, 31, 25]
2.596[27, 43, 27, 24, 20, 24, 30, 24]
2.618[27, 41, 24, 23, 22, 25, 30, 25]
2.633[25, 42, 26, 22, 22, 29, 29, 26]
2.656[27, 38, 25, 21, 23, 28, 24, 24]
2.678[27, 39, 24, 23, 22, 29, 22, 26]
2.693[27, 35, 23, 23, 23, 29, 25, 24]
2.716[26, 35, 25, 25, 24, 28, 26, 22]
2.739[26, 35, 24, 26, 24, 27, 25, 22]
2.753[26, 34, 26, 25, 24, 26, 25, 23]
2.776[23, 35, 27, 22, 24, 26, 25, 20]
2.798[24, 41, 29, 21, 25, 28, 26, 23]
2.813[24, 39, 28, 18, 21, 28, 26, 23]
2.836[26, 45, 29, 19, 24, 27, 26, 22]
2.858[25, 44, 28, 21, 22, 26, 25, 22]
2.875[26, 43, 27, 20, 24, 24, 25, 23]
2.896[26, 37, 24, 20, 22, 23, 21, 22]
2.919[27, 40, 27, 20, 23, 25, 24, 22]
2.941[27, 35, 25, 20, 19, 25, 27, 25]
2.956[25, 42, 27, 21, 22, 25, 24, 26]
2.978[23, 40, 26, 21, 24, 25, 23, 26]
3.001[23, 44, 29, 23, 24, 22, 27, 26]
3.017[24, 52, 28, 25, 24, 23, 22, 28]
3.039[26, 50, 28, 25, 25, 22, 22, 26]
3.061[27, 45, 28, 23, 25, 21, 23, 26]
3.077[30, 45, 29, 23, 22, 25, 26, 24]
3.098[31, 47, 26, 22, 22, 25, 24, 23]
3.121[29, 37, 22, 21, 23, 24, 27, 22]
3.136[25, 37, 21, 20, 23, 24, 24, 23]
3.158[27, 42, 23, 21, 23, 24, 25, 21]
3.181[24, 43, 22, 21, 24, 23, 23, 24]
3.196[21, 38, 24, 20, 24, 25, 21, 23]
3.218[22, 41, 25, 20, 23, 24, 20, 22]
3.241[24, 43, 26, 22, 24, 25, 21, 21]
3.256[21, 37, 25, 21, 25, 25, 25, 24]
3.278[23, 37, 25, 20, 22, 23, 24, 22]
3.301[23, 36, 24, 21, 25, 20, 24, 23]
3.316[24, 34, 24, 20, 26, 23, 23, 24]
3.339[26, 34, 24, 17, 24, 23, 25, 22]
3.361[26, 39, 23, 17, 23, 23, 22, 23]
3.377[25, 38, 24, 19, 28, 22, 24, 21]
3.399[28, 40, 24, 18, 26, 25, 25, 23]
3.421[27, 43, 25, 20, 24, 24, 25, 22]
3.436[24, 42, 24, 21, 24, 22, 24, 24]
3.458[26, 39, 24, 22, 25, 23, 24, 22]
3.489[25, 41, 26, 22, 21, 25, 21, 22]
3.497[24, 42, 25, 24, 22, 21, 22, 22]
3.518[23, 36, 23, 23, 23, 21, 21, 24]
3.541[25, 42, 24, 24, 25, 22, 22, 22]
3.556[24, 42, 23, 22, 24, 22, 22, 22]
3.579[26, 42, 21, 23, 25, 21, 24, 22]
3.601[25, 39, 21, 20, 25, 21, 22, 20]
3.616[27, 46, 23, 21, 25, 22, 23, 17]
3.639[25, 40, 22, 20, 24, 22, 22, 20]
3.661[26, 44, 22, 21, 24, 22, 20, 21]
3.676[26, 42, 21, 21, 24, 23, 22, 20]
3.698[27, 44, 19, 23, 25, 23, 22, 20]
3.721[26, 43, 20, 24, 26, 23, 22, 19]
3.736[27, 44, 21, 24, 25, 25, 22, 17]
3.759[29, 40, 21, 24, 26, 25, 22, 19]
3.781[27, 42, 20, 23, 26, 24, 20, 20]
3.796[29, 42, 22, 23, 25, 25, 20, 22]
3.818[27, 38, 21, 20, 23, 21, 21, 22]
3.841[28, 41, 21, 21, 22, 16, 21, 25]
3.863[25, 42, 23, 22, 20, 16, 24, 22]
3.88[25, 40, 25, 22, 20, 18, 24, 24]
3.901[21, 40, 25, 22, 18, 16, 23, 24]
3.924[21, 37, 26, 24, 18, 20, 24, 24]
3.938[20, 38, 25, 23, 21, 21, 23, 20]
3.962[24, 44, 26, 23, 21, 21, 23, 22]
3.983[25, 45, 26, 23, 20, 22, 23, 20]
3.999[26, 45, 25, 23, 22, 25, 24, 18]
4.021[27, 47, 26, 24, 24, 23, 22, 19]
4.044[28, 48, 27, 23, 22, 25, 24, 20]
4.059[24, 38, 25, 26, 21, 25, 23, 19]
4.081[24, 44, 27, 26, 23, 27, 22, 19]
4.104[25, 43, 29, 25, 22, 26, 20, 24]
4.119[23, 41, 27, 23, 19, 25, 19, 23]
4.141[23, 37, 28, 23, 20, 23, 24, 23]
4.164[24, 40, 28, 21, 23, 25, 23, 23]
4.179[24, 37, 25, 22, 20, 21, 22, 24]
4.201[21, 36, 23, 23, 18, 20, 23, 20]
4.224[26, 43, 23, 23, 20, 22, 24, 21]
4.239[26, 45, 22, 22, 20, 22, 21, 25]
4.262[26, 43, 22, 23, 18, 20, 23, 24]
4.284[25, 42, 21, 20, 17, 20, 24, 23]
4.299[31, 45, 22, 23, 22, 22, 25, 23]
4.322[28, 39, 23, 22, 22, 22, 24, 25]
4.344[29, 34, 24, 21, 22, 22, 23, 19]
4.359[29, 35, 23, 22, 26, 22, 23, 20]
4.381[32, 37, 25, 23, 27, 24, 23, 21]
4.404[27, 33, 27, 20, 24, 23, 22, 20]
4.419[28, 33, 25, 23, 24, 24, 21, 18]
4.441[28, 37, 23, 22, 26, 23, 24, 23]
4.464[28, 39, 24, 22, 22, 25, 23, 22]
4.479[30, 33, 21, 21, 21, 22, 22, 22]
4.509[32, 40, 21, 23, 23, 24, 22, 24]
4.524[30, 43, 23, 23, 23, 22, 22, 24]
4.539[29, 45, 24, 22, 22, 21, 24, 22]
4.561[29, 44, 27, 23, 21, 21, 24, 22]
4.584[25, 48, 29, 23, 22, 22, 24, 22]
4.599[24, 46, 28, 21, 20, 19, 24, 21]
4.621[25, 45, 27, 22, 21, 22, 24, 20]
4.644[23, 41, 28, 22, 23, 24, 21, 18]
4.659[22, 45, 26, 23, 22, 23, 23, 19]
4.681[25, 43, 27, 26, 22, 23, 23, 20]
4.705[25, 39, 25, 26, 23, 24, 22, 19]
4.719[26, 36, 26, 24, 23, 20, 22, 20]
4.741[26, 38, 24, 23, 20, 24, 24, 21]
4.764[26, 31, 24, 23, 21, 25, 23, 22]
4.779[23, 30, 23, 20, 22, 25, 22, 22]
4.801[26, 32, 23, 20, 19, 26, 22, 25]
4.824[27, 35, 22, 22, 20, 26, 23, 24]
4.847[28, 35, 21, 21, 19, 19, 17, 26]
4.861[28, 36, 22, 21, 19, 20, 17, 25]
4.884[28, 40, 20, 22, 19, 18, 19, 24]
4.907[23, 39, 20, 22, 18, 20, 20, 21]
4.921[21, 36, 23, 21, 22, 20, 18, 22]
4.944[23, 39, 23, 22, 23, 20, 19, 20]
4.967[23, 39, 21, 22, 22, 23, 22, 20]
4.982[25, 37, 23, 21, 22, 25, 23, 21]
5.004[26, 40, 27, 22, 23, 26, 23, 21]
5.027[27, 42, 24, 23, 20, 26, 23, 20]
5.042[25, 41, 26, 23, 19, 27, 24, 20]
5.064[26, 40, 27, 24, 20, 25, 22, 20]
5.087[26, 43, 27, 24, 19, 22, 22, 17]
5.101[25, 40, 24, 23, 19, 19, 21, 18]
5.124[24, 43, 25, 24, 20, 20, 22, 20]
5.155[23, 41, 23, 22, 20, 22, 22, 17]
5.161[22, 43, 23, 20, 21, 22, 22, 20]
5.184[22, 42, 23, 19, 21, 24, 19, 22]
5.207[21, 44, 22, 20, 21, 26, 20, 22]
5.221[22, 39, 21, 18, 20, 25, 22, 21]
5.244[23, 41, 25, 19, 21, 26, 22, 22]
5.267[21, 45, 25, 19, 21, 27, 22, 25]
5.281[21, 41, 25, 19, 20, 28, 23, 24]
5.304[22, 40, 26, 21, 21, 25, 25, 24]
5.327[22, 41, 26, 23, 22, 25, 24, 23]
5.341[22, 40, 23, 24, 23, 23, 24, 24]
5.364[23, 41, 23, 24, 22, 22, 22, 21]
5.387[27, 44, 23, 25, 24, 19, 25, 21]
5.401[28, 45, 23, 25, 23, 21, 24, 26]
5.432[30, 46, 24, 22, 21, 20, 26, 25]
5.447[29, 45, 24, 22, 21, 20, 26, 26]
5.461[28, 39, 23, 21, 21, 21, 28, 26]
5.484[25, 43, 21, 20, 19, 21, 24, 26]
5.508[26, 43, 20, 18, 21, 19, 26, 22]
5.521[23, 44, 21, 21, 21, 21, 27, 23]
5.545[25, 45, 21, 23, 21, 21, 27, 21]
5.567[26, 45, 25, 23, 23, 21, 26, 22]
5.581[26, 42, 27, 26, 24, 21, 29, 23]
5.605[25, 40, 27, 27, 22, 22, 28, 22]
5.627[26, 42, 27, 28, 23, 22, 27, 23]
5.641[23, 40, 27, 28, 20, 22, 27, 23]
5.665[23, 39, 25, 29, 19, 22, 27, 24]
5.688[21, 34, 25, 28, 19, 21, 24, 23]
5.701[23, 45, 23, 28, 21, 21, 26, 23]
5.725[23, 42, 24, 25, 21, 20, 25, 26]
5.747[24, 42, 23, 23, 23, 19, 24, 29]
5.769[24, 43, 23, 22, 23, 18, 22, 27]
5.785[27, 53, 22, 23, 23, 22, 24, 27]
5.807[25, 48, 22, 20, 22, 25, 26, 27]
5.829[29, 48, 22, 22, 22, 26, 24, 26]
5.845[30, 51, 23, 23, 22, 26, 26, 23]
5.867[33, 52, 21, 23, 24, 29, 28, 24]
5.889[31, 43, 20, 22, 23, 29, 26, 23]
5.905[31, 42, 20, 23, 24, 26, 23, 21]
5.928[28, 46, 21, 20, 23, 24, 24, 21]
5.95[26, 42, 20, 19, 21, 27, 21, 20]
5.965[22, 39, 21, 19, 19, 25, 20, 22]
5.988[23, 38, 21, 20, 19, 24, 20, 22]
6.01[24, 37, 21, 21, 17, 25, 17, 25]
6.025[26, 34, 22, 23, 21, 27, 20, 23]
6.047[27, 37, 21, 23, 23, 26, 20, 24]
6.07[26, 36, 20, 25, 24, 26, 21, 22]
6.085[25, 38, 22, 25, 24, 24, 23, 24]
6.107[26, 38, 23, 24, 26, 26, 25, 23]
6.129[23, 34, 22, 25, 24, 26, 23, 24]
6.145[25, 39, 23, 25, 24, 27, 26, 25]
6.167[26, 39, 24, 25, 24, 28, 26, 25]
6.19[26, 39, 22, 32, 24, 30, 26, 24]
6.205[24, 42, 22, 48, 22, 30, 26, 27]
6.227[23, 44, 21, 50, 21, 31, 26, 24]
6.25[18, 40, 25, 50, 21, 31, 24, 25]
6.264[20, 41, 30, 50, 22, 32, 27, 24]
6.287[25, 51, 32, 47, 23, 30, 26, 26]
6.31[24, 47, 31, 30, 24, 28, 24, 23]
6.324[24, 45, 30, 24, 23, 28, 25, 26]
6.347[25, 44, 27, 25, 23, 25, 27, 24]
6.37[27, 46, 23, 25, 21, 26, 27, 25]
6.384[25, 36, 21, 21, 19, 25, 25, 25]
6.407[26, 35, 23, 21, 21, 27, 24, 25]
6.43[27, 41, 26, 21, 23, 27, 28, 25]
6.452[28, 41, 26, 21, 22, 27, 27, 26]
6.468[24, 39, 24, 24, 22, 23, 25, 26]
6.49[23, 40, 24, 23, 24, 25, 27, 24]
6.504[23, 43, 27, 24, 22, 23, 28, 24]
6.527[24, 43, 25, 23, 22, 23, 22, 22]
6.55[24, 45, 29, 24, 23, 25, 19, 22]
6.564[25, 44, 29, 24, 23, 24, 19, 20]
6.588[21, 42, 28, 23, 24, 25, 19, 21]
6.609[22, 41, 23, 23, 24, 25, 20, 21]
6.632[24, 37, 24, 24, 23, 24, 22, 22]
6.648[26, 39, 23, 24, 21, 23, 26, 22]
6.669[26, 39, 24, 24, 20, 23, 27, 23]
6.692[27, 41, 25, 25, 18, 24, 25, 23]
6.708[27, 40, 26, 24, 18, 22, 25, 25]
6.729[25, 39, 25, 24, 20, 24, 25, 26]
6.752[27, 39, 24, 25, 22, 23, 21, 25]
6.768[26, 38, 26, 21, 23, 24, 24, 25]
6.789[27, 36, 27, 22, 25, 20, 28, 25]
6.812[31, 43, 27, 25, 26, 23, 28, 23]
6.828[29, 40, 27, 23, 26, 23, 27, 23]
6.849[29, 37, 28, 23, 25, 24, 30, 23]
6.872[31, 49, 26, 25, 24, 25, 29, 27]
6.888[31, 49, 24, 25, 23, 25, 27, 27]
6.909[27, 46, 25, 22, 21, 23, 29, 27]
6.932[29, 56, 26, 24, 21, 20, 29, 25]
6.948[26, 58, 22, 23, 21, 22, 29, 29]
6.969[23, 51, 22, 22, 22, 22, 25, 23]
6.992[27, 57, 22, 22, 23, 22, 27, 26]
7.008[25, 57, 23, 21, 25, 23, 29, 24]
7.029[25, 50, 23, 22, 24, 25, 29, 22]
7.052[29, 55, 26, 24, 24, 23, 26, 20]
7.068[29, 53, 28, 23, 24, 23, 28, 22]
7.089[28, 45, 28, 22, 23, 23, 25, 21]
7.112[30, 45, 31, 25, 22, 23, 24, 22]
7.128[31, 43, 31, 24, 25, 21, 28, 22]
7.15[25, 37, 29, 25, 25, 22, 27, 21]
7.181[28, 42, 28, 26, 25, 24, 27, 20]
7.188[27, 42, 28, 26, 27, 25, 27, 25]
7.209[29, 49, 24, 24, 25, 22, 25, 24]
7.232[29, 51, 25, 22, 23, 24, 21, 24]
7.254[34, 52, 27, 19, 21, 25, 21, 24]
7.269[32, 51, 27, 19, 21, 24, 23, 26]
7.292[33, 53, 26, 22, 18, 25, 21, 21]
7.308[31, 45, 27, 23, 20, 26, 21, 22]
7.329[29, 44, 24, 26, 18, 25, 22, 24]
7.359[25, 42, 26, 25, 20, 23, 23, 23]
7.368[27, 45, 24, 24, 18, 21, 24, 21]
7.389[27, 41, 25, 24, 18, 21, 25, 21]
7.412[27, 44, 26, 24, 20, 22, 27, 22]
7.428[28, 42, 28, 22, 20, 22, 26, 20]
7.45[30, 51, 28, 23, 20, 21, 24, 23]
7.48[29, 47, 30, 27, 23, 21, 20, 24]
7.488[27, 49, 31, 27, 24, 20, 19, 22]
7.509[29, 56, 32, 27, 23, 19, 16, 21]
7.532[27, 58, 32, 29, 23, 18, 18, 22]
7.549[27, 53, 29, 29, 23, 20, 20, 19]
7.569[27, 51, 28, 25, 22, 21, 21, 19]
7.592[28, 51, 26, 22, 23, 20, 22, 25]
7.608[24, 42, 23, 22, 23, 22, 23, 24]
7.629[26, 43, 25, 19, 22, 23, 23, 24]
7.652[24, 42, 25, 20, 23, 23, 23, 24]
7.674[23, 43, 25, 21, 23, 21, 24, 25]
7.689[23, 41, 26, 21, 21, 22, 23, 18]
7.712[23, 45, 27, 23, 23, 20, 24, 24]
7.734[21, 49, 23, 23, 23, 20, 22, 23]
7.749[21, 49, 23, 22, 22, 22, 23, 25]
7.772[23, 48, 21, 22, 22, 22, 22, 25]
7.795[25, 53, 23, 23, 25, 21, 23, 26]
7.809[27, 48, 23, 23, 24, 22, 22, 21]
7.832[27, 45, 24, 24, 24, 22, 25, 22]
7.854[27, 47, 24, 23, 24, 19, 24, 21]
7.871[28, 48, 25, 21, 26, 21, 24, 19]
7.892[28, 42, 23, 22, 23, 21, 23, 19]
7.914[28, 43, 22, 21, 23, 21, 23, 19]
7.929[31, 47, 23, 20, 22, 20, 20, 20]
7.952[32, 47, 24, 21, 24, 20, 21, 19]
7.974[29, 48, 25, 22, 21, 21, 21, 20]
7.989[27, 49, 24, 20, 21, 21, 20, 22]
8.012[28, 50, 23, 20, 19, 19, 19, 23]
8.035[23, 45, 24, 21, 20, 20, 21, 23]
8.049[23, 42, 24, 21, 17, 21, 21, 24]
8.072[23, 39, 25, 19, 19, 18, 21, 23]
8.095[22, 38, 24, 20, 18, 19, 22, 22]
8.109[20, 34, 29, 18, 19, 19, 22, 23]
8.132[21, 38, 28, 18, 19, 20, 23, 22]
8.154[22, 38, 28, 17, 23, 19, 25, 24]
8.169[23, 40, 27, 19, 23, 19, 23, 24]
8.192[26, 41, 27, 20, 24, 18, 26, 23]
8.214[26, 40, 23, 20, 26, 19, 27, 22]
8.23[26, 39, 21, 20, 27, 18, 27, 22]
8.252[26, 39, 20, 21, 24, 18, 25, 23]
8.276[28, 38, 21, 22, 26, 19, 26, 22]
8.289[27, 40, 24, 22, 24, 21, 22, 24]
8.32[26, 43, 24, 23, 24, 21, 21, 24]
8.334[25, 39, 27, 22, 24, 22, 20, 23]
8.349[25, 38, 29, 22, 23, 23, 23, 20]
8.372[23, 37, 28, 21, 21, 22, 23, 24]
8.394[21, 36, 27, 21, 23, 25, 24, 23]
8.409[20, 35, 30, 21, 22, 25, 24, 23]
8.432[23, 37, 28, 20, 20, 23, 26, 22]
8.454[23, 39, 29, 21, 22, 24, 24, 24]
8.47[24, 40, 30, 20, 21, 25, 25, 21]
8.492[27, 40, 28, 19, 20, 23, 25, 22]
8.515[28, 40, 24, 20, 22, 23, 24, 22]
8.529[26, 41, 27, 22, 24, 24, 22, 23]
8.552[26, 40, 25, 22, 24, 23, 21, 21]
8.575[26, 40, 25, 23, 25, 25, 18, 23]
8.597[24, 46, 25, 24, 25, 23, 19, 27]
8.621[25, 45, 25, 25, 23, 23, 19, 27]
8.635[26, 47, 21, 25, 21, 23, 18, 26]
8.657[24, 47, 37, 25, 23, 24, 20, 29]
8.672[25, 48, 47, 26, 23, 21, 21, 28]
8.694[26, 42, 48, 26, 21, 22, 20, 22]
8.717[25, 42, 48, 25, 22, 23, 22, 22]
8.732[26, 42, 50, 23, 22, 21, 21, 22]
8.755[28, 43, 40, 21, 21, 20, 22, 21]
8.777[26, 38, 26, 22, 23, 19, 21, 22]
8.792[25, 37, 24, 20, 24, 21, 23, 22]
8.814[26, 41, 24, 21, 22, 19, 23, 23]
8.837[27, 40, 23, 24, 23, 21, 23, 25]
8.852[25, 37, 23, 24, 24, 23, 23, 21]
8.875[25, 41, 24, 22, 22, 23, 25, 23]
8.897[26, 43, 25, 23, 23, 23, 24, 23]
8.912[25, 40, 25, 20, 25, 23, 21, 21]
8.935[22, 35, 26, 19, 23, 25, 23, 22]
8.957[25, 37, 26, 21, 22, 24, 22, 24]
8.972[24, 38, 31, 21, 23, 24, 20, 24]
8.994[22, 35, 32, 22, 23, 23, 21, 24]
9.017[23, 34, 33, 23, 23, 24, 25, 25]
9.032[23, 40, 32, 24, 24, 23, 24, 24]
9.055[20, 38, 34, 24, 23, 24, 24, 25]
9.077[22, 36, 34, 24, 22, 25, 24, 22]
9.092[22, 37, 33, 23, 21, 25, 24, 25]
9.115[24, 38, 30, 23, 19, 25, 20, 25]
9.137[23, 32, 30, 23, 17, 22, 20, 25]
9.152[24, 37, 32, 23, 19, 22, 21, 24]
9.175[24, 41, 30, 23, 19, 19, 21, 24]
9.197[24, 40, 32, 23, 20, 22, 18, 21]
9.212[24, 39, 33, 22, 21, 19, 19, 24]
9.235[28, 42, 32, 20, 25, 20, 20, 22]
9.257[30, 41, 33, 21, 22, 19, 19, 23]
9.272[30, 37, 32, 21, 22, 23, 18, 22]
9.295[31, 38, 29, 22, 22, 22, 21, 22]
9.317[31, 42, 32, 24, 22, 23, 22, 20]
9.332[27, 41, 34, 25, 20, 22, 19, 20]
9.355[24, 37, 32, 25, 22, 23, 20, 20]
9.377[23, 39, 33, 26, 23, 21, 21, 21]
9.393[26, 44, 33, 26, 24, 21, 20, 22]
9.415[23, 39, 30, 26, 23, 20, 19, 22]
9.437[24, 40, 35, 24, 22, 23, 21, 23]
9.453[25, 41, 35, 23, 22, 21, 21, 23]
9.475[26, 38, 37, 23, 21, 21, 20, 24]
9.499[22, 31, 37, 22, 22, 21, 20, 24]
9.512[24, 35, 38, 21, 22, 20, 20, 23]
9.535[23, 35, 37, 21, 24, 19, 20, 23]
9.558[23, 32, 36, 23, 23, 22, 18, 23]
9.581[23, 33, 33, 22, 24, 22, 17, 23]
9.595[23, 38, 33, 23, 23, 24, 18, 22]
9.618[22, 42, 33, 26, 24, 23, 18, 23]
9.64[23, 42, 33, 27, 23, 26, 20, 23]
9.655[28, 47, 33, 26, 22, 24, 22, 24]
9.678[28, 48, 34, 28, 21, 26, 23, 24]
9.701[31, 44, 35, 27, 20, 24, 23, 25]
9.715[31, 40, 36, 27, 19, 24, 22, 24]
9.738[32, 41, 35, 27, 19, 23, 20, 25]
9.76[28, 45, 37, 27, 19, 21, 18, 22]
9.775[29, 43, 45, 25, 19, 20, 18, 22]
9.798[25, 44, 49, 24, 20, 21, 18, 20]
9.821[25, 47, 71, 24, 21, 23, 18, 19]
9.836[32, 51, 84, 26, 23, 23, 23, 22]
9.859[56, 80, 193, 47, 27, 25, 24, 24]
9.88[74, 97, 203, 51, 29, 29, 27, 32]
9.895[143, 120, 228, 80, 35, 31, 48, 67]
9.918[224, 171, 319, 260, 128, 37, 82, 104]
9.94[238, 243, 416, 414, 170, 45, 94, 108]
9.955[264, 299, 447, 542, 217, 57, 128, 122]
9.978[351, 402, 458, 563, 237, 76, 248, 154]
10.0[479, 430, 472, 634, 254, 128, 442, 252]
10.023[508, 444, 542, 614, 228, 152, 536, 275]
10.038[535, 435, 486, 569, 278, 160, 538, 286]
10.06[654, 453, 436, 600, 330, 163, 552, 307]
10.075[705, 436, 434, 755, 364, 163, 535, 310]
10.098[633, 441, 411, 778, 386, 129, 393, 237]
10.12[642, 441, 230, 767, 393, 101, 249, 213]
10.143[640, 448, 226, 816, 394, 101, 240, 208]
10.158[513, 458, 213, 810, 354, 95, 192, 176]
10.18[381, 455, 197, 723, 332, 94, 155, 176]
10.195[396, 511, 212, 753, 341, 99, 151, 170]
10.226[327, 527, 208, 771, 348, 102, 147, 155]
10.24[294, 527, 197, 700, 293, 90, 149, 156]
10.255[332, 493, 191, 642, 272, 87, 152, 161]
10.279[328, 460, 200, 630, 258, 79, 114, 125]
10.3[296, 375, 192, 697, 243, 70, 130, 142]
10.315[306, 346, 196, 717, 257, 73, 134, 170]
10.338[306, 324, 178, 784, 274, 69, 146, 169]
10.36[251, 317, 186, 884, 326, 84, 153, 196]
10.375[302, 334, 204, 914, 321, 78, 152, 212]
10.398[322, 378, 193, 898, 292, 75, 138, 213]
10.42[313, 399, 185, 898, 264, 67, 145, 201]
10.435[335, 409, 183, 869, 248, 69, 148, 197]
10.458[353, 408, 173, 836, 200, 49, 134, 163]
10.48[344, 418, 147, 831, 199, 47, 122, 154]
10.504[322, 377, 150, 751, 225, 57, 126, 147]
10.518[336, 348, 169, 739, 234, 59, 115, 128]
10.541[347, 375, 176, 770, 248, 61, 100, 122]
10.563[332, 370, 181, 794, 251, 66, 101, 129]
10.578[300, 358, 165, 818, 271, 73, 118, 133]
10.601[286, 360, 158, 763, 247, 65, 106, 121]
10.623[259, 403, 155, 776, 247, 66, 99, 126]
10.638[223, 377, 173, 712, 238, 66, 105, 137]
10.66[261, 409, 174, 568, 218, 73, 122, 131]
10.683[298, 422, 178, 489, 194, 68, 106, 119]
10.698[298, 465, 179, 551, 199, 74, 110, 122]
10.721[275, 421, 161, 532, 202, 75, 131, 125]
10.743[262, 487, 146, 624, 223, 71, 128, 108]
10.758[224, 509, 146, 660, 226, 62, 126, 105]
10.78[169, 471, 148, 626, 224, 62, 128, 98]
10.803[168, 483, 167, 591, 220, 54, 126, 93]
10.818[168, 508, 166, 577, 213, 48, 102, 79]
10.841[149, 442, 153, 518, 183, 52, 92, 75]
10.864[151, 437, 151, 475, 161, 49, 79, 85]
10.878[156, 456, 139, 473, 160, 50, 76, 83]
10.901[166, 436, 122, 522, 179, 51, 70, 82]
10.923[173, 456, 126, 523, 175, 50, 75, 88]
10.938[203, 506, 127, 483, 169, 50, 89, 112]
10.961[194, 454, 116, 447, 167, 49, 80, 100]
10.983[182, 449, 125, 517, 181, 57, 78, 96]
10.998[195, 401, 133, 459, 166, 63, 84, 104]
11.021[192, 363, 130, 433, 160, 69, 85, 102]
11.043[158, 276, 137, 488, 173, 66, 68, 76]
11.057[165, 274, 153, 533, 177, 66, 114, 107]
11.081[175, 357, 145, 468, 172, 65, 119, 119]
11.103[160, 381, 140, 522, 167, 57, 118, 126]
11.118[161, 360, 134, 564, 164, 51, 115, 123]
11.141[177, 380, 138, 531, 151, 49, 124, 125]
11.163[173, 377, 115, 536, 158, 55, 92, 102]
11.178[170, 363, 115, 523, 133, 45, 85, 91]
11.201[181, 364, 128, 463, 128, 48, 81, 82]
11.223[187, 364, 132, 429, 134, 50, 89, 92]
11.237[185, 352, 129, 424, 151, 55, 99, 97]
11.261[194, 379, 139, 423, 149, 52, 91, 104]
11.283[193, 364, 143, 456, 156, 55, 95, 106]
11.297[171, 337, 133, 472, 156, 53, 99, 97]
11.321[157, 342, 132, 489, 158, 56, 95, 87]
11.343[159, 339, 134, 554, 183, 55, 84, 79]
11.357[169, 344, 141, 541, 185, 51, 91, 70]
11.381[160, 295, 141, 543, 199, 54, 100, 72]
11.403[155, 304, 132, 518, 198, 54, 104, 72]
11.417[158, 306, 132, 494, 194, 49, 103, 71]
11.441[151, 312, 125, 431, 154, 43, 99, 72]
11.464[131, 290, 124, 443, 148, 46, 90, 74]
11.486[130, 312, 124, 404, 134, 43, 86, 65]
11.501[140, 347, 140, 530, 156, 51, 107, 76]
11.524[146, 350, 136, 533, 166, 52, 107, 76]
11.546[134, 344, 144, 555, 172, 51, 103, 76]
11.561[146, 345, 136, 604, 217, 53, 104, 73]
11.583[152, 330, 133, 617, 220, 55, 96, 72]
11.605[146, 285, 115, 635, 222, 51, 71, 64]
11.622[145, 290, 126, 620, 213, 50, 69, 73]
11.643[144, 293, 116, 593, 212, 49, 70, 70]
11.665[141, 318, 114, 550, 177, 48, 68, 69]
11.681[145, 335, 107, 526, 176, 52, 76, 71]
11.703[151, 336, 110, 441, 153, 47, 74, 76]
11.725[150, 353, 104, 460, 160, 47, 70, 64]
11.742[153, 353, 104, 443, 151, 49, 65, 62]
11.763[143, 317, 99, 430, 126, 46, 74, 72]
11.785[136, 349, 110, 444, 125, 43, 71, 72]
11.802[144, 414, 110, 438, 139, 44, 60, 65]
11.823[147, 405, 104, 455, 146, 46, 63, 65]
11.845[152, 390, 118, 466, 148, 48, 97, 86]
11.862[157, 402, 120, 432, 145, 47, 94, 79]
11.883[156, 364, 114, 423, 135, 42, 90, 77]
11.907[145, 299, 105, 433, 126, 45, 95, 79]
11.922[143, 277, 105, 429, 112, 42, 98, 79]
11.944[152, 284, 86, 412, 113, 38, 77, 77]
11.965[147, 306, 92, 430, 117, 42, 70, 76]
11.982[148, 315, 101, 456, 109, 43, 82, 76]
12.003[162, 302, 109, 405, 107, 46, 76, 73]
12.025[192, 289, 107, 384, 110, 51, 75, 78]
12.042[194, 293, 106, 448, 122, 58, 79, 63]
12.063[190, 362, 101, 514, 166, 63, 83, 62]
12.085[195, 341, 89, 602, 201, 66, 73, 67]
12.102[186, 361, 101, 621, 199, 62, 77, 70]
12.123[154, 383, 99, 619, 200, 58, 98, 79]
12.145[135, 376, 102, 574, 196, 50, 89, 78]
12.162[129, 287, 111, 513, 177, 47, 86, 80]
12.183[120, 273, 117, 473, 159, 42, 91, 77]
12.205[109, 253, 103, 475, 172, 51, 92, 81]
12.222[101, 255, 108, 479, 174, 53, 95, 72]
12.243[119, 262, 110, 525, 172, 55, 97, 71]
12.266[141, 255, 97, 511, 163, 50, 98, 72]
12.282[138, 257, 96, 429, 145, 53, 94, 75]
12.303[143, 250, 103, 424, 129, 43, 91, 66]
12.325[152, 213, 99, 417, 121, 41, 107, 62]
12.342[154, 202, 92, 344, 117, 40, 109, 64]
12.363[141, 207, 101, 386, 110, 41, 107, 64]
12.385[137, 234, 101, 469, 166, 47, 107, 59]
12.408[140, 238, 111, 552, 185, 51, 108, 70]
12.423[154, 272, 123, 569, 198, 53, 85, 71]
12.445[159, 284, 123, 605, 206, 57, 90, 71]
12.468[167, 296, 123, 602, 207, 57, 90, 67]
12.483[179, 309, 117, 545, 166, 52, 92, 74]
12.505[176, 328, 118, 432, 153, 53, 93, 65]
12.528[163, 303, 111, 398, 145, 56, 77, 69]
12.543[142, 305, 110, 362, 133, 51, 69, 70]
12.565[131, 310, 115, 319, 123, 48, 76, 73]
12.588[118, 281, 122, 346, 147, 50, 77, 68]
12.603[105, 265, 104, 386, 144, 52, 78, 67]
12.625[110, 269, 110, 413, 139, 47, 80, 70]
12.648[115, 335, 115, 416, 141, 49, 73, 82]
12.663[120, 306, 108, 440, 148, 53, 69, 81]
12.685[134, 288, 105, 432, 148, 56, 71, 84]
12.708[134, 303, 106, 414, 150, 51, 67, 86]
12.723[132, 311, 105, 458, 163, 53, 72, 81]
12.745[145, 242, 101, 444, 165, 55, 78, 67]
12.768[141, 284, 100, 477, 194, 60, 77, 71]
12.783[125, 302, 96, 474, 187, 53, 72, 77]
12.805[130, 292, 103, 504, 196, 57, 74, 88]
12.828[125, 281, 95, 491, 193, 56, 83, 87]
12.843[134, 277, 95, 514, 194, 56, 80, 87]
12.865[137, 238, 97, 518, 167, 50, 86, 87]
12.888[157, 225, 97, 495, 162, 52, 109, 79]
12.903[154, 209, 95, 518, 148, 47, 108, 65]
12.925[150, 246, 105, 643, 161, 47, 93, 62]
12.948[124, 249, 102, 628, 157, 46, 93, 65]
12.963[138, 306, 98, 660, 173, 43, 96, 74]
12.985[134, 307, 95, 725, 182, 39, 78, 77]
13.008[133, 304, 90, 687, 187, 41, 75, 75]
13.023[141, 293, 76, 537, 166, 41, 74, 77]
13.046[136, 311, 79, 585, 190, 42, 73, 74]
13.068[160, 275, 82, 488, 169, 44, 63, 62]
13.083[164, 275, 86, 403, 151, 44, 52, 56]
13.105[171, 297, 88, 406, 147, 42, 53, 69]
13.128[174, 282, 93, 407, 146, 42, 55, 73]
13.143[183, 276, 93, 510, 166, 41, 66, 71]
13.165[163, 279, 104, 527, 181, 42, 68, 76]
13.188[168, 284, 112, 515, 178, 42, 74, 83]
13.203[170, 271, 112, 568, 181, 41, 76, 77]
13.225[162, 259, 115, 588, 184, 41, 78, 73]
13.248[159, 237, 120, 477, 136, 37, 65, 72]
13.263[141, 264, 109, 515, 139, 34, 71, 66]
13.285[140, 323, 114, 531, 150, 38, 71, 64]
13.308[155, 337, 121, 473, 138, 39, 72, 66]
13.323[172, 370, 127, 486, 144, 38, 73, 64]
13.347[182, 387, 134, 456, 163, 46, 75, 67]
13.368[186, 385, 137, 456, 151, 48, 71, 68]
13.39[178, 375, 130, 472, 155, 47, 79, 69]
13.405[157, 382, 122, 481, 150, 49, 89, 76]
13.428[143, 355, 107, 480, 149, 47, 87, 78]
13.45[171, 341, 93, 503, 133, 41, 87, 88]
13.465[168, 300, 86, 472, 136, 41, 93, 92]
13.488[157, 242, 78, 479, 134, 42, 86, 85]
13.51[158, 217, 81, 443, 138, 40, 73, 75]
13.533[168, 237, 87, 455, 149, 44, 76, 87]
13.548[137, 235, 85, 436, 156, 48, 77, 83]
13.571[131, 236, 88, 429, 147, 48, 64, 77]
13.585[130, 232, 89, 423, 139, 53, 78, 88]
13.608[153, 281, 86, 427, 144, 55, 101, 114]
13.631[154, 265, 89, 378, 124, 51, 98, 103]
13.645[145, 282, 93, 403, 122, 48, 98, 97]
13.668[160, 291, 88, 420, 124, 46, 96, 102]
13.69[177, 294, 88, 380, 123, 37, 92, 91]
13.705[169, 250, 94, 432, 133, 38, 78, 69]
13.728[155, 249, 90, 429, 132, 39, 86, 70]
13.75[152, 213, 86, 409, 133, 38, 84, 68]
13.765[138, 192, 84, 395, 149, 43, 84, 62]
13.788[127, 234, 78, 419, 155, 43, 78, 67]
13.811[125, 211, 78, 446, 147, 39, 72, 65]
13.825[140, 215, 74, 451, 153, 40, 64, 66]
13.848[144, 271, 88, 483, 161, 42, 65, 67]
13.871[157, 301, 115, 520, 150, 37, 65, 68]
13.885[154, 281, 124, 504, 146, 37, 61, 67]
13.908[194, 282, 121, 439, 145, 40, 70, 57]
13.931[203, 276, 124, 446, 140, 39, 71, 55]
13.945[207, 238, 118, 426, 128, 37, 75, 58]
13.968[196, 202, 103, 360, 117, 35, 79, 56]
13.991[190, 195, 101, 351, 113, 34, 74, 54]
14.006[137, 192, 98, 381, 114, 33, 89, 64]
14.028[109, 195, 90, 355, 109, 32, 89, 64]
14.051[100, 213, 84, 365, 112, 35, 87, 63]
14.065[97, 233, 82, 383, 131, 40, 86, 62]
14.088[103, 229, 79, 425, 135, 44, 98, 75]
14.12[105, 266, 76, 374, 123, 41, 94, 71]
14.125[119, 270, 86, 362, 121, 42, 99, 75]
14.148[113, 243, 105, 319, 111, 40, 97, 74]
14.171[117, 227, 108, 344, 103, 37, 102, 75]
14.186[120, 265, 105, 300, 100, 38, 92, 65]
14.208[133, 239, 104, 306, 104, 37, 72, 61]
14.231[125, 257, 97, 371, 110, 37, 67, 62]
14.246[139, 255, 80, 393, 121, 38, 78, 66]
14.268[144, 248, 70, 382, 114, 35, 70, 63]
14.291[144, 212, 79, 406, 136, 36, 85, 72]
14.314[159, 241, 88, 440, 136, 39, 85, 77]
14.328[156, 222, 93, 426, 143, 39, 99, 84]
14.351[152, 220, 104, 421, 148, 45, 93, 81]
14.374[159, 249, 103, 419, 148, 47, 96, 85]
14.396[159, 252, 99, 392, 132, 45, 85, 76]
14.411[137, 230, 96, 431, 166, 47, 79, 67]
14.434[150, 233, 96, 460, 173, 47, 63, 68]
14.448[144, 253, 79, 444, 168, 44, 62, 70]
14.471[136, 259, 79, 427, 163, 43, 63, 68]
14.494[155, 247, 80, 443, 173, 44, 70, 68]
14.508[172, 238, 81, 376, 151, 41, 84, 76]
14.531[166, 239, 82, 315, 135, 41, 83, 63]
14.554[166, 226, 87, 320, 125, 37, 88, 61]
14.568[160, 193, 86, 309, 132, 37, 85, 61]
14.591[147, 237, 89, 342, 123, 37, 81, 56]
14.614[140, 255, 88, 343, 112, 39, 73, 54]
14.628[132, 254, 94, 367, 127, 39, 74, 57]
14.651[155, 251, 93, 359, 127, 38, 68, 58]
14.674[165, 258, 100, 436, 127, 37, 69, 59]
14.688[156, 229, 97, 385, 117, 36, 68, 59]
14.711[151, 200, 95, 396, 117, 35, 67, 70]
14.734[159, 182, 85, 353, 96, 37, 66, 71]
14.748[142, 190, 97, 380, 94, 37, 69, 72]
14.771[132, 189, 91, 315, 105, 39, 81, 72]
14.794[141, 185, 95, 355, 116, 41, 79, 74]
14.808[123, 184, 95, 325, 120, 43, 77, 58]
14.831[110, 190, 95, 325, 127, 42, 70, 52]
14.854[108, 177, 84, 293, 130, 43, 70, 54]
14.868[106, 205, 100, 305, 135, 41, 59, 55]
14.891[120, 213, 93, 247, 125, 41, 66, 53]
14.914[131, 212, 92, 292, 125, 37, 66, 54]
14.937[130, 213, 93, 332, 126, 36, 70, 60]
14.951[126, 227, 96, 362, 138, 41, 66, 56]
14.974[128, 208, 80, 360, 124, 41, 64, 55]
14.988[121, 232, 101, 463, 160, 43, 54, 56]
15.011[110, 253, 115, 518, 170, 46, 50, 59]
15.034[115, 257, 115, 532, 174, 51, 50, 56]
15.048[131, 253, 119, 534, 160, 45, 67, 63]
15.071[156, 262, 121, 530, 167, 47, 68, 64]
15.094[149, 273, 117, 497, 148, 47, 72, 69]
15.108[154, 265, 106, 457, 143, 43, 75, 68]
15.132[150, 263, 106, 484, 144, 39, 87, 70]
15.154[137, 250, 95, 459, 147, 43, 89, 72]
15.168[112, 229, 96, 540, 150, 41, 90, 76]
15.192[100, 179, 83, 512, 143, 39, 89, 69]
15.214[100, 165, 81, 520, 134, 39, 89, 68]
15.244[101, 212, 78, 466, 123, 38, 81, 63]
15.251[129, 218, 81, 464, 128, 35, 64, 57]
15.274[130, 213, 82, 399, 121, 37, 65, 55]
15.297[151, 247, 86, 410, 128, 39, 63, 57]
15.311[151, 257, 82, 380, 130, 42, 67, 59]
15.334[158, 232, 84, 399, 136, 41, 79, 60]
15.357[144, 240, 90, 520, 174, 50, 94, 55]
15.371[147, 269, 83, 504, 167, 49, 92, 55]
15.394[129, 231, 72, 486, 156, 46, 93, 53]
15.417[131, 213, 81, 492, 153, 43, 90, 52]
15.432[138, 192, 88, 521, 169, 48, 76, 54]
15.454[133, 186, 81, 407, 132, 44, 62, 54]
15.476[126, 137, 84, 385, 136, 44, 71, 52]
15.491[133, 148, 83, 403, 138, 44, 71, 57]
15.514[136, 164, 73, 399, 139, 43, 70, 64]
15.536[124, 182, 67, 384, 118, 38, 78, 61]
15.551[137, 181, 75, 402, 116, 34, 76, 61]
15.574[147, 203, 84, 414, 128, 41, 66, 59]
15.596[140, 205, 91, 413, 142, 44, 76, 60]
15.611[152, 212, 92, 386, 145, 44, 80, 51]
15.634[175, 204, 96, 371, 143, 44, 70, 62]
15.657[164, 213, 90, 356, 144, 44, 71, 67]
15.672[187, 199, 80, 345, 128, 39, 83, 74]
15.694[186, 198, 73, 318, 115, 33, 80, 71]
15.717[168, 179, 74, 338, 123, 36, 75, 69]
15.731[151, 203, 68, 340, 123, 39, 73, 60]
15.754[162, 191, 64, 343, 115, 38, 71, 53]
15.776[130, 195, 60, 342, 117, 37, 58, 44]
15.791[145, 196, 60, 363, 114, 38, 57, 44]
15.814[142, 215, 69, 378, 115, 40, 65, 50]
15.836[131, 228, 62, 357, 105, 37, 65, 51]
15.859[126, 241, 70, 363, 103, 37, 62, 53]
15.874[114, 239, 75, 420, 117, 42, 65, 55]
15.896[102, 239, 79, 410, 112, 42, 59, 64]
15.911[104, 247, 72, 395, 99, 40, 49, 60]
15.934[99, 222, 77, 412, 106, 40, 50, 58]
15.957[91, 229, 78, 394, 114, 40, 57, 58]
15.971[107, 222, 77, 362, 109, 38, 54, 59]
15.995[124, 212, 72, 369, 119, 38, 56, 51]
16.017[124, 201, 73, 430, 125, 41, 78, 59]
16.031[127, 192, 78, 435, 133, 45, 89, 64]
16.054[131, 194, 88, 449, 138, 50, 138, 63]
16.076[135, 256, 91, 482, 142, 50, 145, 69]
16.091[139, 257, 93, 489, 141, 54, 144, 68]
16.114[141, 286, 101, 430, 133, 52, 134, 64]
16.137[137, 280, 100, 412, 127, 49, 128, 63]
16.151[132, 260, 93, 396, 116, 44, 82, 66]
16.174[157, 204, 91, 326, 97, 44, 73, 60]
16.197[141, 201, 93, 367, 92, 38, 79, 64]
16.219[140, 168, 86, 365, 112, 43, 84, 63]
16.234[151, 184, 89, 362, 112, 42, 84, 59]
16.257[163, 204, 91, 373, 113, 42, 75, 61]
16.279[135, 194, 90, 396, 120, 38, 78, 61]
16.294[131, 189, 87, 325, 124, 40, 90, 67]
16.317[136, 194, 84, 373, 109, 32, 89, 70]
16.339[147, 184, 82, 408, 108, 31, 90, 75]
16.354[133, 161, 69, 434, 113, 32, 89, 71]
16.377[130, 186, 73, 415, 116, 36, 89, 87]
16.399[141, 201, 74, 413, 109, 35, 76, 85]
16.414[142, 175, 79, 418, 109, 41, 77, 85]
16.437[145, 229, 84, 413, 122, 43, 73, 86]
16.459[146, 240, 90, 389, 120, 48, 69, 86]
16.474[138, 254, 89, 410, 113, 46, 79, 78]
16.497[128, 263, 89, 417, 115, 45, 74, 68]
16.52[129, 273, 87, 372, 113, 43, 69, 69]
16.534[101, 239, 81, 334, 103, 44, 68, 66]
16.557[109, 233, 80, 369, 113, 38, 70, 79]
16.58[126, 197, 77, 328, 117, 39, 65, 76]
16.594[128, 195, 83, 319, 115, 41, 64, 78]
16.618[127, 169, 78, 304, 114, 40, 65, 81]
16.639[135, 149, 83, 382, 128, 40, 75, 83]
16.655[128, 173, 87, 453, 152, 47, 79, 78]
16.677[116, 204, 97, 528, 167, 48, 69, 76]
16.699[116, 194, 93, 544, 170, 46, 79, 82]
16.715[108, 222, 100, 577, 181, 48, 98, 82]
16.737[103, 238, 99, 524, 165, 48, 90, 76]
16.758[121, 233, 105, 482, 138, 39, 87, 73]
16.783[126, 238, 97, 401, 113, 37, 86, 73]
16.796[144, 229, 95, 377, 113, 38, 118, 83]
16.819[158, 216, 89, 365, 100, 39, 104, 76]
16.835[177, 200, 82, 364, 106, 38, 105, 81]
16.856[169, 193, 72, 295, 110, 41, 108, 80]
16.878[188, 171, 81, 414, 129, 41, 117, 81]
16.901[180, 182, 80, 421, 135, 41, 78, 70]
16.916[174, 173, 81, 389, 133, 40, 105, 84]
16.939[156, 183, 81, 421, 131, 38, 108, 86]
16.955[151, 213, 91, 421, 123, 35, 105, 83]
16.976[129, 224, 86, 308, 113, 34, 94, 84]
16.999[115, 226, 120, 375, 107, 34, 112, 90]
17.015[109, 244, 121, 389, 102, 31, 93, 89]
17.036[115, 261, 122, 366, 101, 32, 89, 85]
17.059[129, 252, 112, 426, 116, 33, 95, 85]
17.075[122, 253, 119, 473, 116, 39, 104, 80]
17.096[141, 256, 84, 417, 107, 39, 92, 74]
17.119[159, 233, 84, 412, 114, 42, 90, 66]
17.141[151, 220, 94, 454, 144, 46, 91, 64]
17.156[138, 220, 102, 514, 165, 50, 90, 66]
17.179[143, 211, 92, 494, 164, 48, 82, 69]
17.201[129, 216, 97, 531, 177, 46, 72, 68]
17.216[134, 221, 101, 525, 171, 43, 74, 67]
17.239[138, 224, 93, 517, 157, 41, 75, 69]
17.261[141, 208, 79, 448, 122, 35, 78, 69]
17.276[132, 206, 72, 414, 118, 36, 77, 62]
17.299[136, 195, 68, 379, 104, 38, 80, 60]
17.321[107, 186, 64, 397, 115, 39, 72, 53]
17.336[120, 193, 62, 370, 104, 39, 91, 55]
17.359[127, 200, 90, 314, 108, 42, 83, 55]
17.381[129, 198, 91, 337, 110, 38, 84, 60]
17.396[135, 212, 97, 412, 113, 39, 80, 56]
17.419[133, 236, 97, 400, 108, 42, 102, 76]
17.441[136, 212, 98, 390, 106, 39, 88, 80]
17.456[122, 207, 76, 425, 121, 41, 85, 78]
17.479[140, 211, 75, 427, 123, 39, 83, 78]
17.502[131, 205, 68, 390, 129, 40, 89, 79]
17.518[136, 202, 67, 449, 136, 36, 79, 61]
17.539[127, 223, 75, 526, 156, 37, 74, 51]
17.561[140, 219, 73, 500, 142, 33, 76, 54]
17.576[121, 214, 78, 501, 143, 34, 75, 52]
17.6[137, 202, 85, 508, 148, 37, 76, 50]
17.621[136, 187, 83, 465, 138, 34, 65, 52]
17.636[129, 167, 79, 480, 151, 40, 65, 51]
17.659[129, 165, 80, 468, 152, 42, 64, 51]
17.681[147, 165, 79, 472, 152, 41, 70, 57]
17.696[138, 202, 78, 485, 156, 35, 70, 61]
17.719[141, 229, 81, 494, 165, 37, 63, 63]
17.741[138, 253, 75, 455, 149, 32, 63, 64]
17.756[161, 271, 78, 480, 154, 33, 75, 65]
17.779[151, 271, 78, 457, 149, 36, 77, 64]
17.801[157, 244, 84, 538, 172, 45, 69, 59]
17.816[178, 233, 90, 599, 197, 48, 80, 61]
17.839[186, 230, 96, 563, 190, 47, 94, 65]
17.861[166, 201, 93, 565, 185, 45, 88, 67]
17.876[163, 186, 95, 578, 186, 43, 82, 62]
17.899[149, 215, 86, 453, 150, 34, 84, 72]
17.923[115, 200, 78, 363, 104, 31, 75, 68]
17.936[123, 169, 68, 357, 96, 32, 58, 68]
17.959[121, 204, 78, 379, 105, 32, 57, 67]
17.982[120, 216, 76, 436, 114, 33, 57, 67]
18.004[150, 216, 76, 450, 115, 33, 69, 57]
18.019[151, 223, 79, 467, 116, 33, 78, 57]
18.041[138, 218, 84, 495, 114, 34, 75, 58]
18.056[133, 221, 79, 452, 109, 35, 73, 58]
18.079[143, 223, 76, 400, 94, 38, 90, 61]
18.101[133, 191, 73, 400, 112, 42, 86, 69]
18.124[147, 221, 73, 401, 112, 42, 84, 72]
18.139[151, 234, 83, 372, 113, 41, 85, 69]
18.161[152, 202, 81, 440, 118, 40, 87, 71]
18.184[151, 244, 94, 427, 118, 39, 79, 70]
18.199[136, 262, 98, 530, 119, 38, 75, 60]
18.221[120, 231, 100, 508, 120, 38, 71, 56]
18.244[121, 249, 93, 490, 119, 39, 73, 57]
18.259[134, 255, 94, 453, 112, 38, 75, 55]
18.281[136, 211, 83, 460, 122, 36, 71, 62]
18.304[135, 215, 92, 358, 115, 38, 73, 65]
18.319[143, 231, 97, 428, 124, 39, 70, 69]
18.341[131, 232, 95, 463, 128, 40, 73, 73]
18.364[128, 226, 104, 469, 139, 45, 77, 70]
18.379[129, 228, 107, 547, 148, 48, 74, 75]
18.401[133, 230, 111, 548, 145, 48, 75, 84]
18.424[127, 218, 100, 482, 133, 47, 79, 81]
18.439[135, 191, 103, 449, 131, 45, 91, 79]
18.461[129, 208, 93, 473, 118, 40, 83, 83]
18.484[124, 218, 96, 372, 103, 39, 79, 73]
18.499[120, 189, 80, 364, 104, 33, 90, 72]
18.523[142, 194, 84, 474, 128, 37, 98, 90]
18.544[147, 209, 84, 504, 138, 40, 87, 95]
18.559[150, 207, 82, 482, 145, 44, 90, 92]
18.581[149, 182, 74, 490, 144, 46, 96, 94]
18.612[154, 184, 85, 494, 146, 48, 83, 88]
18.619[143, 247, 85, 433, 127, 44, 69, 74]
18.641[133, 243, 80, 391, 107, 40, 60, 65]
18.664[126, 233, 82, 349, 97, 36, 56, 64]
18.679[126, 239, 94, 363, 93, 29, 52, 60]
18.701[157, 265, 90, 305, 90, 36, 58, 61]
18.724[162, 253, 95, 249, 105, 40, 60, 61]
18.739[163, 239, 96, 328, 116, 42, 65, 60]
18.761[160, 252, 95, 383, 132, 43, 75, 57]
18.784[170, 254, 104, 371, 134, 46, 77, 61]
18.8[147, 248, 104, 376, 125, 41, 70, 57]
18.821[130, 207, 104, 387, 119, 36, 64, 52]
18.844[144, 215, 106, 343, 112, 39, 72, 59]
18.859[157, 198, 110, 315, 100, 38, 64, 59]
18.881[141, 212, 97, 328, 94, 35, 63, 61]
18.904[132, 270, 95, 332, 89, 34, 69, 57]
18.919[139, 277, 91, 350, 102, 36, 78, 66]
18.941[148, 298, 91, 356, 100, 35, 73, 72]
18.964[144, 301, 83, 330, 91, 35, 73, 81]
18.979[152, 288, 83, 350, 96, 39, 72, 81]
19.001[158, 238, 87, 400, 121, 43, 72, 81]
19.032[154, 216, 83, 399, 111, 44, 91, 77]
19.047[146, 187, 79, 399, 124, 44, 87, 77]
19.062[143, 187, 83, 398, 127, 45, 87, 70]
19.084[136, 241, 80, 357, 126, 42, 88, 67]
19.107[135, 234, 69, 305, 104, 37, 84, 67]
19.121[144, 258, 86, 300, 110, 37, 54, 70]
19.144[131, 272, 85, 398, 125, 37, 59, 60]
19.167[153, 290, 87, 408, 125, 36, 56, 60]
19.182[152, 261, 87, 443, 150, 39, 54, 60]
19.204[147, 257, 89, 474, 160, 43, 52, 58]
19.228[148, 246, 78, 474, 165, 41, 49, 50]
19.241[146, 264, 100, 409, 158, 43, 48, 46]
19.264[118, 273, 97, 405, 162, 46, 57, 50]
19.287[147, 314, 103, 444, 142, 45, 74, 53]
19.302[148, 321, 106, 452, 142, 42, 81, 61]
19.324[133, 318, 114, 435, 126, 43, 87, 59]
19.347[147, 305, 100, 509, 124, 39, 91, 66]
19.361[142, 279, 102, 514, 122, 37, 89, 66]
19.384[118, 228, 101, 483, 121, 38, 76, 73]
19.407[126, 218, 101, 480, 113, 37, 80, 68]
19.421[135, 213, 94, 552, 135, 38, 75, 69]
19.444[122, 186, 89, 468, 121, 37, 69, 65]
19.467[160, 188, 92, 526, 153, 40, 67, 64]
19.482[184, 173, 82, 510, 154, 39, 63, 58]
19.504[202, 155, 75, 485, 162, 43, 62, 62]
19.528[243, 185, 73, 409, 152, 42, 61, 61]
19.542[283, 191, 79, 404, 150, 42, 68, 63]
19.564[266, 209, 73, 346, 117, 38, 67, 63]
19.587[255, 215, 79, 344, 114, 39, 71, 59]
19.602[242, 210, 75, 346, 112, 37, 65, 54]
19.624[201, 194, 70, 370, 106, 35, 71, 58]
19.647[161, 181, 62, 357, 105, 36, 61, 59]
19.662[168, 150, 67, 312, 96, 36, 77, 66]
19.684[171, 180, 63, 322, 90, 32, 74, 65]
19.715[165, 185, 72, 322, 94, 30, 70, 65]
19.722[158, 168, 70, 268, 90, 69, 206, 94]
19.744[131, 180, 71, 254, 88, 101, 356, 127]
19.768[114, 178, 65, 248, 87, 104, 412, 129]
19.781[88, 134, 60, 174, 83, 125, 533, 152]
19.804[82, 121, 48, 83, 51, 166, 645, 207]
19.828[81, 112, 49, 68, 40, 160, 675, 201]
19.85[79, 109, 51, 64, 40, 147, 625, 184]
19.872[79, 105, 58, 54, 37, 147, 607, 181]
19.888[96, 104, 92, 48, 34, 133, 524, 168]
19.902[106, 107, 134, 94, 30, 83, 400, 104]
19.924[113, 116, 188, 120, 40, 77, 324, 136]
19.948[118, 221, 258, 128, 44, 67, 328, 158]
19.97[129, 231, 262, 130, 45, 66, 307, 162]
19.984[116, 238, 261, 132, 46, 58, 273, 161]
20.008[96, 254, 249, 106, 46, 47, 243, 155]
20.03[89, 252, 239, 97, 45, 37, 202, 118]
20.044[120, 163, 186, 113, 45, 33, 139, 93]
20.068[110, 148, 256, 138, 46, 30, 104, 94]
20.09[119, 136, 266, 145, 46, 33, 102, 124]
20.104[123, 97, 299, 144, 48, 31, 103, 124]
20.127[142, 81, 340, 150, 55, 35, 91, 128]
20.15[111, 65, 375, 140, 57, 41, 91, 122]
20.164[110, 60, 340, 121, 55, 43, 91, 122]
20.187[122, 63, 371, 114, 56, 41, 83, 100]
20.21[126, 56, 374, 128, 54, 40, 69, 103]
20.224[106, 62, 346, 149, 45, 36, 55, 103]
20.247[127, 64, 340, 152, 37, 31, 50, 102]
20.27[125, 70, 351, 153, 38, 31, 45, 90]
20.284[103, 61, 313, 153, 38, 31, 38, 82]
20.308[90, 59, 278, 149, 39, 34, 34, 76]
20.33[86, 60, 332, 143, 33, 33, 34, 66]
20.344[81, 68, 304, 135, 36, 31, 28, 66]
20.368[112, 76, 324, 139, 40, 31, 33, 72]
20.39[113, 77, 324, 136, 38, 30, 29, 60]
20.404[115, 79, 332, 135, 37, 27, 30, 56]
20.428[113, 74, 247, 93, 35, 26, 30, 55]
20.451[94, 63, 230, 87, 30, 25, 31, 46]
20.464[51, 53, 168, 67, 21, 21, 26, 33]
20.487[47, 54, 152, 64, 22, 20, 26, 31]
20.51[37, 52, 154, 41, 22, 20, 23, 27]
20.524[36, 50, 148, 33, 21, 20, 20, 25]
20.547[35, 50, 197, 37, 20, 22, 18, 25]
20.57[33, 48, 190, 34, 22, 20, 17, 23]
20.584[31, 51, 189, 35, 22, 22, 17, 23]
20.607[30, 51, 164, 32, 21, 21, 20, 23]
20.63[32, 49, 166, 32, 22, 22, 21, 24]
20.644[38, 58, 89, 36, 23, 22, 23, 26]
20.668[34, 52, 72, 36, 21, 23, 25, 27]
20.69[34, 44, 65, 35, 22, 23, 25, 27]
20.704[34, 46, 60, 39, 22, 23, 24, 25]
20.727[32, 48, 46, 40, 21, 23, 25, 24]
20.75[31, 55, 41, 35, 23, 22, 23, 24]
20.764[32, 56, 43, 34, 24, 21, 23, 24]
20.787[33, 59, 44, 37, 25, 20, 23, 21]
20.81[33, 57, 43, 34, 26, 22, 22, 23]
20.824[43, 69, 45, 38, 28, 22, 23, 25]
20.847[39, 58, 45, 43, 26, 20, 22, 23]
20.87[38, 56, 42, 46, 27, 21, 22, 20]
20.884[37, 56, 37, 45, 24, 22, 22, 22]
20.908[36, 56, 48, 70, 27, 21, 22, 22]
20.93[26, 48, 49, 72, 26, 22, 20, 19]
20.952[26, 43, 43, 69, 26, 22, 20, 20]
20.967[26, 44, 43, 68, 25, 21, 20, 23]
20.99[26, 44, 43, 67, 26, 20, 20, 21]
21.012[29, 48, 33, 42, 24, 20, 20, 23]
21.028[35, 53, 31, 34, 24, 22, 22, 24]
21.05[33, 53, 40, 47, 23, 22, 21, 22]
21.072[34, 52, 40, 45, 23, 22, 21, 21]
21.088[33, 51, 41, 45, 22, 22, 22, 24]
21.11[31, 52, 40, 44, 21, 24, 21, 23]
21.133[27, 56, 43, 49, 21, 22, 20, 23]
21.147[29, 60, 50, 66, 21, 23, 20, 25]
21.17[29, 61, 51, 70, 22, 23, 20, 25]
21.192[29, 62, 51, 72, 23, 24, 20, 24]
21.207[31, 67, 51, 74, 24, 23, 20, 24]
21.23[27, 52, 45, 70, 24, 21, 19, 23]
21.253[25, 46, 30, 47, 25, 22, 20, 21]
21.268[24, 46, 33, 44, 24, 24, 20, 21]
21.29[26, 48, 32, 40, 24, 22, 19, 19]
21.313[26, 44, 35, 38, 26, 23, 19, 20]
21.335[26, 44, 34, 37, 25, 24, 19, 19]
21.35[27, 48, 33, 33, 24, 23, 19, 21]
21.373[29, 47, 30, 32, 23, 20, 18, 20]
21.387[29, 49, 29, 33, 26, 21, 17, 21]
21.41[27, 43, 26, 30, 22, 21, 17, 20]
21.433[26, 44, 28, 34, 24, 21, 18, 20]
21.447[25, 39, 28, 33, 23, 20, 19, 17]
21.47[27, 45, 28, 30, 24, 22, 21, 21]
21.492[24, 41, 29, 27, 22, 23, 22, 23]
21.507[23, 40, 28, 28, 25, 20, 23, 23]
21.53[23, 39, 26, 22, 24, 20, 23, 25]
21.552[26, 44, 26, 26, 24, 22, 22, 25]
21.567[22, 42, 29, 26, 23, 21, 20, 26]
21.591[25, 39, 30, 26, 24, 20, 17, 25]
21.612[27, 38, 29, 27, 20, 20, 16, 25]
21.634[31, 43, 30, 26, 23, 21, 17, 25]
21.651[27, 43, 31, 24, 22, 20, 19, 26]
21.672[29, 45, 27, 23, 23, 18, 20, 22]
21.695[27, 45, 24, 24, 20, 19, 20, 20]
21.718[27, 44, 24, 23, 21, 21, 20, 22]
21.732[24, 47, 28, 27, 19, 20, 19, 24]
21.754[25, 46, 24, 28, 21, 20, 18, 24]
21.771[22, 41, 25, 27, 20, 22, 17, 25]
21.792[24, 46, 28, 26, 21, 21, 20, 26]
21.815[26, 52, 29, 26, 21, 18, 21, 27]
21.831[27, 51, 24, 25, 21, 19, 22, 25]
21.852[27, 54, 27, 25, 20, 20, 27, 25]
21.875[27, 54, 26, 27, 21, 19, 27, 26]
21.897[29, 51, 25, 27, 21, 22, 25, 27]
21.912[27, 45, 22, 26, 23, 23, 24, 23]
21.934[25, 43, 24, 24, 24, 23, 25, 23]
21.951[22, 36, 21, 25, 24, 26, 19, 22]
21.972[23, 43, 24, 24, 23, 27, 19, 20]
21.994[20, 42, 24, 24, 23, 25, 19, 18]
22.011[25, 52, 25, 26, 22, 26, 21, 20]
22.032[27, 53, 26, 26, 22, 26, 20, 22]
22.054[29, 54, 25, 26, 24, 23, 22, 22]
22.071[29, 49, 22, 26, 25, 21, 23, 22]
22.092[28, 47, 24, 26, 24, 21, 23, 22]
22.115[25, 45, 25, 23, 24, 21, 23, 22]
22.131[22, 41, 25, 24, 23, 19, 23, 18]
22.152[23, 41, 27, 25, 22, 21, 22, 22]
22.174[23, 44, 28, 25, 22, 21, 21, 21]
22.191[25, 46, 28, 25, 24, 22, 21, 25]
22.213[25, 42, 24, 29, 24, 21, 21, 25]
22.235[25, 40, 24, 28, 25, 24, 20, 25]
22.251[23, 39, 24, 27, 23, 23, 19, 22]
22.272[23, 39, 26, 27, 21, 23, 20, 23]
22.295[26, 44, 27, 29, 20, 23, 20, 19]
22.309[24, 41, 29, 25, 20, 23, 20, 19]
22.332[25, 43, 29, 26, 19, 20, 20, 19]
22.355[27, 45, 31, 27, 21, 21, 22, 19]
22.369[27, 45, 29, 26, 22, 21, 21, 21]
22.393[27, 42, 27, 23, 21, 20, 22, 22]
22.416[26, 38, 26, 25, 21, 22, 21, 21]
22.43[27, 37, 27, 24, 21, 22, 21, 21]
22.452[26, 37, 26, 22, 22, 23, 23, 22]
22.474[28, 44, 28, 21, 22, 22, 24, 21]
22.489[24, 45, 28, 21, 22, 23, 25, 21]
22.512[24, 50, 27, 21, 23, 23, 26, 20]
22.536[24, 53, 29, 21, 22, 22, 25, 20]
22.549[24, 51, 27, 22, 20, 21, 24, 20]
22.572[25, 45, 25, 24, 21, 20, 23, 18]
22.595[26, 47, 26, 26, 22, 21, 22, 16]
22.617[27, 44, 26, 25, 20, 20, 23, 19]
22.632[26, 40, 24, 26, 22, 22, 21, 18]
22.654[26, 39, 25, 25, 21, 22, 20, 18]
22.677[24, 35, 24, 25, 21, 23, 22, 20]
22.692[25, 32, 24, 24, 20, 22, 23, 23]
22.723[27, 37, 26, 23, 22, 23, 22, 21]
22.73[26, 35, 26, 22, 22, 20, 22, 23]
22.752[27, 36, 27, 23, 21, 21, 22, 24]
22.775[28, 40, 28, 22, 23, 20, 21, 21]
22.789[25, 41, 28, 21, 23, 21, 19, 20]
22.812[22, 35, 27, 22, 23, 20, 18, 20]
22.835[23, 37, 27, 21, 23, 20, 19, 19]
22.857[21, 39, 26, 20, 25, 20, 19, 18]
22.872[22, 43, 25, 25, 25, 19, 22, 20]
22.894[22, 40, 25, 24, 23, 18, 21, 19]
22.925[22, 42, 25, 25, 23, 18, 20, 19]
22.932[22, 40, 23, 25, 23, 19, 20, 19]
22.954[23, 39, 23, 25, 21, 19, 20, 21]
22.977[25, 41, 26, 21, 22, 20, 17, 20]
22.992[25, 42, 26, 25, 25, 19, 17, 20]
23.015[25, 39, 25, 23, 23, 20, 18, 20]
23.037[26, 42, 27, 22, 23, 19, 18, 19]
23.052[28, 49, 28, 24, 24, 20, 18, 20]
23.074[25, 43, 27, 25, 23, 21, 17, 21]
23.097[25, 40, 27, 23, 20, 22, 18, 21]
23.112[26, 44, 26, 24, 22, 24, 20, 21]
23.134[26, 42, 25, 24, 19, 24, 18, 21]
23.157[27, 35, 24, 24, 22, 24, 20, 18]
23.172[26, 35, 24, 26, 21, 23, 19, 18]
23.196[28, 37, 24, 25, 22, 23, 20, 18]
23.217[28, 34, 23, 24, 21, 21, 20, 20]
23.232[27, 35, 23, 24, 24, 20, 21, 21]
23.255[25, 34, 23, 25, 21, 19, 21, 21]
23.277[24, 37, 20, 21, 23, 19, 21, 21]
23.293[25, 42, 22, 24, 24, 19, 22, 21]
23.315[26, 43, 23, 26, 25, 21, 20, 18]
23.337[25, 42, 24, 27, 23, 20, 21, 19]
23.352[26, 42, 24, 25, 25, 20, 21, 18]
23.375[26, 40, 26, 25, 24, 21, 23, 20]
23.397[22, 36, 25, 25, 23, 23, 22, 20]
23.412[19, 34, 27, 24, 23, 23, 29, 23]
23.435[23, 42, 27, 27, 23, 23, 30, 25]
23.465[24, 45, 28, 28, 23, 22, 30, 25]
23.472[23, 44, 29, 27, 23, 21, 30, 23]
23.495[23, 42, 27, 26, 21, 20, 32, 24]
23.517[28, 62, 25, 28, 23, 20, 26, 22]
23.532[24, 57, 25, 25, 22, 21, 23, 20]
23.563[24, 55, 26, 25, 21, 24, 24, 21]
23.586[25, 57, 26, 31, 20, 24, 22, 24]
23.592[27, 60, 27, 30, 20, 24, 19, 23]
23.617[22, 41, 26, 27, 17, 22, 19, 22]
23.638[23, 46, 26, 28, 18, 24, 23, 25]
23.652[23, 48, 26, 29, 22, 22, 22, 24]
23.675[24, 51, 25, 22, 23, 22, 23, 22]
23.697[24, 49, 24, 25, 24, 21, 23, 22]
23.712[26, 45, 23, 25, 25, 21, 23, 21]
23.735[27, 44, 22, 25, 25, 17, 23, 17]
23.758[27, 44, 23, 23, 23, 18, 22, 18]
23.78[25, 37, 20, 23, 22, 17, 21, 17]
23.795[25, 35, 22, 19, 21, 17, 20, 18]
23.817[25, 42, 24, 23, 20, 16, 20, 18]
23.84[25, 45, 27, 22, 19, 17, 18, 21]
23.856[26, 42, 26, 22, 20, 18, 19, 19]
23.877[27, 43, 25, 24, 21, 18, 21, 19]
23.9[30, 49, 26, 24, 20, 20, 22, 19]
23.915[31, 47, 26, 22, 22, 21, 24, 20]
23.938[30, 46, 23, 21, 25, 21, 23, 18]
23.96[28, 48, 24, 23, 24, 20, 22, 19]
23.975[30, 51, 26, 23, 25, 23, 22, 19]
23.997[27, 49, 27, 24, 26, 21, 21, 19]
24.02[28, 50, 25, 22, 26, 20, 18, 19]
24.035[28, 46, 25, 24, 24, 22, 21, 19]
24.057[27, 48, 27, 26, 26, 24, 21, 19]
24.08[25, 43, 25, 26, 24, 22, 21, 19]
24.095[28, 44, 26, 26, 23, 24, 22, 18]
24.117[27, 43, 28, 28, 25, 26, 22, 20]
24.14[25, 42, 27, 28, 24, 24, 20, 20]
24.155[24, 37, 25, 26, 21, 24, 21, 20]
24.177[29, 44, 26, 30, 22, 25, 20, 21]
24.2[26, 42, 23, 29, 23, 23, 20, 21]
24.215[27, 39, 21, 29, 21, 24, 22, 21]
24.237[28, 42, 23, 29, 19, 24, 20, 22]
24.26[29, 48, 24, 29, 20, 24, 19, 22]
24.275[26, 45, 24, 24, 19, 22, 20, 22]
24.297[27, 44, 25, 23, 18, 22, 21, 22]
24.32[25, 43, 24, 23, 18, 20, 19, 22]
24.335[24, 40, 22, 20, 19, 22, 21, 21]
24.357[24, 38, 23, 21, 19, 20, 22, 21]
24.38[27, 49, 22, 24, 21, 21, 22, 22]
24.395[28, 51, 22, 25, 21, 22, 22, 22]
24.417[26, 50, 26, 25, 22, 23, 22, 22]
24.44[26, 55, 30, 27, 23, 22, 21, 22]
24.455[27, 55, 29, 25, 24, 23, 20, 21]
24.477[23, 48, 28, 23, 25, 22, 21, 18]
24.5[21, 44, 29, 23, 26, 21, 21, 18]
24.515[20, 45, 28, 24, 25, 20, 22, 18]
24.537[22, 46, 24, 21, 24, 22, 23, 18]
24.568[23, 44, 23, 23, 24, 19, 21, 20]
24.575[21, 39, 25, 24, 21, 21, 22, 21]
24.597[23, 43, 26, 24, 21, 21, 22, 20]
24.62[25, 45, 24, 24, 19, 20, 21, 18]
24.635[25, 40, 24, 26, 21, 20, 21, 19]
24.657[24, 39, 25, 26, 22, 20, 22, 19]
24.681[27, 40, 22, 24, 23, 22, 22, 19]
24.695[26, 39, 19, 22, 23, 22, 20, 19]
24.717[25, 37, 22, 19, 25, 25, 20, 19]
24.74[28, 49, 24, 25, 25, 23, 21, 18]
24.763[26, 47, 23, 24, 23, 25, 20, 16]
24.777[24, 49, 24, 26, 21, 23, 21, 17]
24.801[26, 54, 25, 28, 20, 24, 21, 20]
24.823[27, 55, 25, 29, 18, 23, 23, 21]
24.837[26, 44, 24, 24, 20, 27, 23, 21]
24.86[29, 47, 25, 23, 20, 25, 23, 23]
24.883[30, 46, 24, 25, 22, 25, 24, 23]
24.905[27, 49, 24, 24, 22, 25, 24, 21]
24.92[26, 47, 24, 23, 24, 26, 23, 20]
24.943[24, 51, 25, 21, 21, 20, 23, 21]
24.957[21, 49, 25, 23, 22, 19, 21, 21]
24.98[22, 56, 26, 22, 22, 18, 20, 21]
25.003[24, 48, 25, 22, 24, 19, 21, 26]
25.017[24, 51, 25, 23, 23, 19, 23, 27]
25.04[23, 46, 23, 24, 26, 21, 23, 26]
25.063[24, 49, 24, 23, 25, 22, 23, 24]
25.077[22, 38, 25, 21, 24, 21, 21, 26]
25.101[21, 41, 27, 21, 22, 26, 20, 21]
25.123[22, 41, 26, 21, 24, 24, 19, 19]
25.137[25, 41, 27, 21, 19, 25, 18, 20]
25.161[24, 41, 27, 21, 20, 25, 19, 24]
25.183[26, 46, 25, 23, 20, 26, 21, 22]
25.197[25, 41, 26, 25, 20, 21, 21, 22]
25.22[25, 39, 27, 24, 20, 23, 21, 25]
25.244[22, 43, 26, 25, 20, 20, 22, 24]
25.257[25, 47, 25, 26, 20, 22, 23, 24]
25.281[25, 48, 27, 33, 22, 22, 21, 25]
25.303[27, 49, 28, 34, 23, 24, 22, 26]
25.317[29, 50, 29, 36, 25, 24, 23, 23]
25.341[30, 47, 30, 39, 26, 29, 25, 23]
25.364[28, 44, 29, 44, 29, 27, 25, 21]
25.377[30, 38, 28, 40, 27, 29, 27, 22]
25.4[30, 42, 26, 40, 27, 27, 28, 22]
25.423[28, 43, 27, 40, 26, 30, 26, 24]
25.437[26, 45, 30, 36, 24, 27, 36, 25]
25.46[25, 42, 37, 27, 22, 30, 36, 24]
25.483[26, 51, 39, 25, 22, 28, 35, 23]
25.497[25, 47, 39, 27, 21, 28, 34, 22]
25.521[27, 49, 38, 32, 21, 24, 35, 20]
25.543[27, 47, 35, 31, 21, 26, 20, 19]
25.557[27, 51, 26, 32, 23, 27, 21, 23]
25.588[23, 43, 24, 33, 23, 26, 24, 25]
25.603[27, 43, 25, 31, 24, 27, 26, 25]
25.618[27, 38, 23, 27, 26, 28, 27, 29]
25.641[29, 41, 33, 28, 28, 25, 27, 28]
25.663[30, 48, 35, 55, 25, 21, 30, 26]
25.693[34, 48, 34, 68, 26, 25, 30, 25]
25.7[45, 47, 33, 71, 29, 23, 34, 26]
25.724[46, 53, 36, 73, 29, 24, 33, 22]
25.746[44, 54, 29, 74, 28, 30, 36, 23]
25.761[45, 46, 26, 59, 28, 37, 35, 21]
25.783[43, 42, 26, 63, 28, 42, 34, 26]
25.806[28, 48, 28, 60, 36, 42, 32, 28]
25.821[24, 43, 25, 61, 36, 41, 34, 27]
25.843[28, 41, 30, 62, 35, 38, 32, 29]
25.865[27, 39, 31, 60, 35, 34, 29, 31]
25.881[26, 43, 31, 37, 35, 27, 30, 29]
25.903[28, 40, 31, 34, 27, 29, 29, 27]
25.925[32, 39, 30, 32, 24, 28, 28, 29]
25.941[33, 42, 30, 29, 26, 30, 31, 31]
25.963[32, 41, 43, 30, 31, 28, 32, 31]
25.986[34, 43, 51, 34, 30, 28, 31, 33]
26.0[34, 43, 51, 33, 33, 27, 27, 32]
26.024[33, 44, 53, 30, 36, 30, 27, 34]
26.053[33, 40, 51, 30, 35, 30, 26, 31]
26.061[34, 44, 39, 28, 31, 28, 30, 33]
26.084[30, 43, 30, 34, 31, 38, 29, 35]
26.105[29, 45, 30, 36, 28, 41, 31, 37]
26.121[29, 45, 29, 39, 23, 39, 36, 33]
26.143[25, 48, 32, 39, 23, 40, 34, 31]
26.166[28, 51, 37, 46, 25, 40, 31, 28]
26.18[28, 52, 36, 41, 24, 33, 32, 20]
26.203[29, 55, 38, 42, 23, 32, 35, 24]
26.226[34, 56, 36, 44, 24, 39, 33, 24]
26.24[37, 55, 34, 45, 24, 40, 37, 26]
26.264[37, 51, 35, 38, 24, 39, 44, 29]
26.286[37, 48, 34, 36, 23, 36, 53, 29]
26.3[37, 49, 31, 30, 24, 32, 53, 26]
26.323[31, 48, 33, 23, 27, 25, 50, 26]
26.346[28, 51, 31, 23, 26, 24, 48, 28]
26.36[31, 49, 27, 30, 26, 25, 42, 25]
26.383[31, 51, 27, 32, 27, 26, 31, 29]
26.406[29, 43, 29, 32, 24, 31, 26, 34]
26.428[32, 46, 30, 34, 24, 33, 31, 33]
26.444[34, 43, 34, 33, 25, 30, 30, 35]
26.466[30, 47, 33, 30, 26, 31, 27, 36]
26.48[30, 43, 33, 27, 27, 35, 36, 36]
26.503[31, 44, 31, 29, 29, 33, 42, 32]
26.526[46, 41, 28, 26, 28, 33, 40, 32]
26.54[46, 41, 28, 26, 30, 34, 41, 27]
26.564[45, 35, 30, 26, 28, 41, 41, 26]
26.586[46, 44, 31, 26, 28, 38, 33, 25]
26.607[47, 46, 28, 29, 28, 38, 24, 24]
26.624[35, 44, 30, 29, 27, 36, 31, 23]
26.645[31, 41, 28, 31, 27, 37, 31, 26]
26.668[33, 43, 27, 29, 29, 27, 32, 28]
26.684[32, 39, 25, 32, 37, 32, 32, 25]
26.705[30, 38, 31, 28, 44, 32, 32, 26]
26.728[24, 37, 29, 28, 45, 31, 31, 29]
26.744[28, 37, 30, 27, 45, 32, 34, 28]
26.765[28, 39, 33, 27, 46, 31, 36, 27]
26.788[31, 37, 33, 26, 38, 30, 38, 27]
26.804[31, 34, 34, 24, 29, 29, 39, 28]
26.825[34, 37, 37, 28, 29, 29, 35, 24]
26.848[30, 40, 35, 25, 28, 28, 31, 25]
26.864[28, 36, 35, 27, 27, 28, 29, 27]
26.885[29, 40, 38, 26, 27, 32, 29, 26]
26.908[29, 39, 35, 26, 25, 30, 34, 26]
26.924[27, 43, 32, 24, 27, 32, 34, 29]
26.946[28, 44, 34, 25, 27, 33, 35, 26]
26.968[29, 47, 32, 26, 30, 34, 34, 32]
26.984[24, 41, 28, 24, 29, 28, 33, 33]
27.005[28, 48, 30, 27, 28, 33, 29, 33]
27.035[27, 43, 29, 26, 24, 35, 28, 33]
27.044[32, 49, 29, 32, 30, 34, 30, 36]
27.065[32, 50, 28, 29, 26, 34, 30, 28]
27.088[30, 50, 29, 28, 28, 36, 29, 27]
27.104[27, 44, 25, 29, 28, 32, 31, 24]
27.127[31, 50, 27, 30, 30, 28, 31, 22]
27.148[25, 45, 25, 26, 25, 28, 28, 22]
27.17[25, 48, 26, 26, 26, 32, 31, 20]
27.185[26, 47, 27, 27, 27, 30, 33, 19]
27.21[29, 48, 30, 30, 28, 31, 33, 23]
27.224[25, 42, 28, 29, 28, 32, 33, 24]
27.245[27, 49, 31, 30, 27, 32, 33, 24]
27.268[30, 43, 31, 29, 28, 26, 30, 24]
27.284[30, 49, 31, 30, 26, 29, 28, 26]
27.305[30, 47, 28, 25, 26, 28, 23, 24]
27.335[32, 52, 28, 25, 25, 28, 24, 25]
27.344[32, 44, 26, 20, 24, 29, 26, 25]
27.365[31, 46, 24, 21, 26, 31, 26, 24]
27.388[30, 43, 24, 21, 26, 30, 27, 26]
27.404[29, 44, 25, 22, 30, 27, 27, 29]
27.433[30, 45, 27, 22, 31, 27, 26, 27]
27.448[27, 45, 25, 22, 31, 28, 27, 25]
27.464[27, 46, 28, 21, 29, 27, 27, 28]
27.485[28, 45, 32, 23, 31, 25, 24, 27]
27.508[27, 50, 31, 24, 28, 26, 29, 24]
27.524[26, 43, 30, 23, 27, 24, 28, 25]
27.545[26, 43, 31, 28, 28, 24, 24, 27]
27.568[27, 43, 28, 33, 26, 25, 27, 26]
27.59[29, 45, 21, 32, 26, 25, 27, 26]
27.605[29, 45, 23, 33, 23, 25, 21, 25]
27.635[30, 47, 24, 33, 22, 28, 26, 28]
27.65[29, 48, 25, 32, 21, 24, 26, 27]
27.665[26, 46, 26, 27, 22, 27, 25, 26]
27.688[26, 47, 28, 25, 23, 26, 26, 25]
27.71[25, 42, 32, 23, 25, 25, 27, 25]
27.725[24, 40, 31, 26, 25, 23, 24, 22]
27.748[27, 41, 31, 24, 25, 25, 28, 24]
27.77[30, 47, 31, 24, 24, 22, 27, 24]
27.785[28, 44, 30, 24, 21, 23, 27, 24]
27.808[31, 48, 28, 23, 23, 25, 26, 27]
27.831[30, 49, 26, 20, 27, 23, 26, 27]
27.845[30, 51, 27, 23, 26, 23, 23, 27]
27.867[29, 48, 25, 23, 26, 22, 28, 27]
27.89[28, 46, 24, 23, 28, 24, 26, 27]
27.905[25, 45, 23, 24, 26, 22, 27, 24]
27.928[28, 51, 22, 25, 24, 23, 27, 26]
27.95[26, 46, 21, 22, 25, 23, 27, 25]
27.965[26, 49, 21, 21, 27, 25, 25, 25]
27.988[29, 53, 23, 21, 26, 24, 25, 25]
28.01[28, 50, 22, 24, 26, 27, 25, 25]
28.025[24, 45, 26, 22, 24, 27, 24, 24]
28.048[27, 48, 25, 23, 24, 27, 25, 23]
28.07[26, 44, 25, 23, 21, 26, 25, 25]
28.085[22, 39, 25, 22, 19, 26, 27, 26]
28.108[24, 42, 26, 23, 21, 23, 28, 26]
28.131[24, 38, 23, 23, 21, 23, 28, 28]
28.145[22, 38, 27, 23, 21, 23, 27, 26]
28.168[26, 37, 27, 23, 24, 23, 26, 23]
28.191[27, 39, 24, 24, 23, 22, 24, 22]
28.205[25, 35, 22, 23, 21, 24, 23, 25]
28.228[26, 39, 23, 23, 23, 26, 22, 23]
28.25[28, 39, 19, 21, 23, 24, 23, 24]
28.265[27, 41, 20, 23, 24, 25, 22, 25]
28.288[26, 40, 21, 22, 23, 25, 21, 25]
28.31[30, 48, 25, 20, 23, 21, 22, 22]
28.326[29, 47, 28, 21, 22, 23, 22, 22]
28.348[26, 45, 28, 21, 22, 24, 20, 24]
28.37[26, 42, 28, 21, 22, 22, 24, 25]
28.385[27, 50, 29, 23, 23, 23, 25, 25]
28.408[26, 43, 27, 22, 23, 24, 25, 25]
28.431[24, 45, 27, 23, 22, 23, 24, 24]
28.445[24, 46, 28, 23, 25, 24, 26, 23]
28.468[25, 49, 29, 22, 23, 23, 22, 22]
28.49[25, 48, 29, 24, 25, 22, 25, 24]
28.513[25, 46, 27, 26, 26, 25, 26, 24]
28.528[25, 45, 25, 25, 29, 22, 26, 27]
28.559[26, 45, 23, 26, 26, 20, 26, 25]
28.573[28, 43, 24, 27, 27, 20, 25, 24]
28.588[27, 34, 21, 24, 26, 21, 22, 24]
28.61[25, 36, 23, 24, 25, 19, 22, 23]
28.633[25, 33, 24, 25, 23, 19, 20, 20]
28.648[27, 34, 25, 26, 24, 21, 21, 19]
28.67[25, 35, 28, 25, 23, 20, 22, 21]
28.693[25, 36, 28, 25, 22, 21, 25, 20]
28.708[27, 34, 28, 23, 21, 21, 23, 20]
28.731[29, 36, 30, 20, 20, 20, 25, 20]
28.753[31, 47, 33, 20, 20, 22, 23, 22]
28.768[31, 47, 29, 20, 18, 22, 23, 21]
28.791[32, 48, 29, 24, 17, 23, 22, 21]
28.813[31, 49, 29, 23, 21, 21, 23, 20]
28.828[31, 48, 26, 25, 20, 23, 22, 23]
28.85[31, 48, 28, 23, 21, 26, 24, 23]
28.873[28, 46, 28, 25, 21, 25, 23, 23]
28.888[29, 45, 30, 22, 22, 25, 26, 24]
28.911[30, 46, 29, 23, 20, 25, 30, 25]
28.933[29, 48, 31, 24, 20, 24, 30, 22]
28.948[25, 35, 27, 24, 19, 19, 30, 23]
28.972[26, 36, 28, 25, 22, 19, 33, 22]
28.993[22, 35, 28, 23, 21, 19, 28, 21]
29.008[30, 41, 29, 24, 23, 23, 24, 23]
29.03[30, 41, 27, 22, 24, 23, 24, 24]
29.053[29, 41, 27, 21, 25, 23, 21, 21]
29.069[30, 40, 27, 22, 24, 24, 17, 21]
29.09[34, 45, 26, 24, 25, 23, 19, 22]
29.113[29, 42, 26, 22, 24, 21, 21, 18]
29.128[28, 40, 28, 25, 22, 20, 20, 19]
29.15[29, 40, 28, 25, 22, 23, 19, 18]
29.173[28, 45, 27, 21, 21, 23, 20, 19]
29.188[27, 46, 29, 24, 23, 23, 21, 22]
29.211[25, 43, 29, 25, 23, 24, 23, 22]
29.233[26, 43, 27, 22, 25, 26, 23, 21]
29.248[27, 43, 26, 24, 25, 23, 24, 20]
29.27[31, 40, 28, 24, 25, 23, 23, 20]
29.293[28, 38, 26, 21, 23, 24, 21, 14]
29.308[29, 36, 25, 21, 22, 22, 19, 17]
29.33[29, 35, 25, 21, 22, 19, 20, 18]
29.353[30, 39, 29, 21, 23, 21, 22, 19]
29.368[30, 50, 28, 24, 23, 21, 22, 20]
29.391[28, 46, 28, 22, 24, 20, 21, 22]
29.413[26, 47, 27, 22, 23, 24, 23, 20]
29.428[25, 51, 31, 24, 23, 25, 22, 19]
29.45[23, 47, 27, 24, 22, 24, 21, 21]
29.473[19, 35, 26, 23, 20, 24, 23, 20]
29.496[19, 36, 28, 25, 20, 25, 24, 18]
29.511[19, 39, 29, 26, 20, 22, 21, 19]
29.533[22, 41, 25, 24, 22, 22, 21, 20]
29.556[21, 41, 24, 21, 22, 25, 20, 21]
29.57[22, 40, 25, 23, 22, 26, 20, 22]
29.593[27, 47, 23, 24, 23, 25, 19, 23]
29.616[28, 45, 24, 22, 23, 25, 20, 25]
29.63[30, 42, 26, 25, 22, 24, 22, 23]
29.661[31, 44, 28, 30, 23, 25, 23, 22]
29.676[31, 45, 25, 36, 24, 24, 23, 22]
29.69[29, 36, 29, 34, 22, 23, 23, 20]
29.713[27, 34, 29, 35, 23, 25, 23, 19]
29.736[28, 35, 32, 34, 22, 24, 25, 21]
29.759[27, 35, 32, 32, 22, 23, 26, 19]
29.773[27, 38, 32, 26, 21, 23, 25, 21]
29.796[26, 41, 30, 25, 21, 25, 27, 26]
29.81[28, 43, 28, 26, 22, 26, 27, 28]
29.834[22, 40, 23, 24, 22, 27, 25, 27]
29.856[24, 47, 23, 24, 21, 29, 24, 30]
29.87[23, 47, 26, 22, 22, 28, 23, 28]
29.894[23, 48, 27, 24, 24, 29, 25, 25]
29.916[25, 52, 26, 26, 24, 27, 25, 23]
29.931[26, 56, 27, 28, 23, 29, 26, 27]
29.954[24, 50, 26, 28, 23, 27, 24, 26]
29.976[29, 49, 27, 28, 24, 27, 25, 26]
29.991[28, 46, 27, 30, 26, 26, 22, 29]
30.014[25, 46, 29, 29, 25, 26, 24, 28]
30.036[28, 42, 29, 28, 26, 26, 22, 24]
30.051[30, 40, 30, 29, 26, 26, 24, 23]
30.074[25, 39, 31, 28, 25, 27, 28, 26]
30.097[28, 42, 31, 29, 23, 23, 27, 23]
30.112[31, 37, 32, 28, 23, 25, 27, 24]
30.134[31, 39, 33, 27, 23, 22, 29, 23]
30.156[30, 39, 32, 25, 21, 21, 28, 23]
30.171[32, 39, 28, 25, 21, 20, 25, 22]
30.194[33, 44, 30, 20, 19, 23, 25, 26]
30.216[32, 43, 27, 20, 20, 21, 23, 26]
30.231[33, 42, 27, 23, 26, 23, 22, 26]
30.254[32, 47, 29, 23, 29, 22, 22, 28]
30.276[31, 49, 30, 22, 31, 24, 22, 27]
30.299[31, 45, 28, 24, 30, 23, 24, 25]
30.314[29, 46, 32, 24, 33, 22, 24, 25]
30.336[29, 43, 32, 29, 28, 24, 22, 25]
30.351[29, 41, 36, 31, 26, 25, 23, 26]
30.374[30, 42, 36, 30, 26, 25, 24, 26]
30.396[29, 114, 82, 38, 28, 24, 28, 23]
30.42[32, 154, 124, 38, 26, 24, 29, 25]
30.434[32, 165, 134, 36, 26, 25, 31, 25]
30.456[32, 167, 138, 40, 27, 24, 31, 24]
30.479[30, 170, 140, 42, 26, 24, 31, 24]
30.501[29, 140, 122, 37, 26, 25, 27, 27]
30.516[29, 96, 84, 36, 25, 31, 30, 29]
30.539[28, 80, 69, 34, 24, 29, 29, 31]
30.554[28, 74, 58, 30, 23, 29, 28, 33]
30.576[30, 66, 54, 29, 23, 30, 26, 34]
30.599[28, 56, 49, 27, 21, 29, 29, 34]
30.614[26, 50, 41, 27, 21, 22, 25, 35]
30.636[24, 45, 60, 28, 20, 23, 26, 32]
30.659[73, 105, 111, 44, 22, 24, 26, 33]
30.674[114, 122, 156, 161, 98, 31, 27, 44]
30.697[145, 129, 191, 248, 169, 55, 37, 62]
30.719[179, 205, 221, 331, 230, 70, 127, 93]
30.734[330, 249, 230, 491, 339, 85, 174, 133]
30.756[357, 319, 227, 671, 386, 100, 198, 196]
30.779[460, 454, 235, 721, 391, 110, 299, 300]
30.793[533, 493, 243, 913, 503, 134, 324, 441]
30.816[565, 502, 237, 948, 514, 139, 334, 450]
30.839[537, 518, 258, 983, 484, 135, 322, 452]
30.853[530, 506, 299, 1020, 472, 130, 337, 436]
30.876[461, 474, 297, 1072, 475, 124, 277, 386]
30.899[399, 446, 278, 994, 377, 106, 268, 241]
30.914[349, 453, 271, 1039, 374, 98, 239, 242]
30.936[309, 544, 243, 1038, 357, 95, 233, 232]
30.959[304, 552, 191, 921, 358, 97, 195, 240]
30.973[318, 525, 160, 1000, 378, 98, 167, 222]
30.996[308, 522, 160, 953, 346, 83, 141, 192]
31.019[317, 509, 154, 951, 313, 80, 149, 166]
31.033[309, 413, 189, 1059, 432, 113, 154, 156]
31.056[321, 448, 176, 1063, 431, 108, 163, 129]
31.079[284, 459, 172, 960, 420, 110, 164, 151]
31.093[292, 471, 161, 964, 421, 107, 172, 180]
31.116[280, 472, 161, 1046, 458, 108, 152, 174]
31.139[278, 510, 168, 920, 352, 75, 168, 173]
31.153[283, 446, 180, 958, 348, 78, 157, 179]
31.176[290, 408, 184, 963, 331, 77, 164, 171]
31.199[251, 407, 199, 1071, 357, 95, 152, 142]
31.213[239, 413, 197, 962, 304, 89, 160, 144]
31.236[213, 318, 152, 924, 271, 86, 129, 140]
31.259[164, 341, 152, 933, 257, 83, 124, 133]
31.273[127, 459, 177, 876, 248, 81, 113, 114]
31.296[131, 450, 167, 743, 215, 70, 136, 114]
31.319[156, 439, 168, 684, 203, 68, 140, 122]
31.341[151, 479, 188, 665, 209, 67, 143, 122]
31.357[157, 501, 194, 650, 222, 72, 145, 115]
31.379[164, 382, 163, 618, 213, 69, 142, 109]
31.401[160, 411, 161, 594, 179, 58, 133, 105]
31.417[171, 419, 160, 602, 190, 56, 115, 93]
31.44[183, 412, 144, 575, 184, 57, 114, 89]
31.461[212, 377, 118, 500, 188, 60, 140, 94]
31.476[204, 414, 132, 511, 190, 59, 139, 96]
31.499[216, 406, 144, 480, 194, 64, 118, 100]
31.529[198, 401, 137, 489, 185, 64, 120, 96]
31.537[200, 378, 145, 474, 186, 66, 131, 100]
31.559[174, 416, 151, 494, 144, 59, 105, 91]
31.582[177, 396, 145, 551, 188, 59, 106, 101]
31.597[191, 425, 156, 670, 218, 55, 132, 92]
31.62[185, 415, 157, 623, 211, 58, 132, 86]
31.641[180, 412, 147, 636, 209, 56, 118, 81]
31.657[174, 365, 149, 617, 222, 55, 113, 92]
31.678[181, 387, 177, 683, 216, 55, 109, 82]
31.701[146, 397, 154, 545, 187, 55, 78, 82]
31.717[159, 387, 158, 626, 195, 68, 113, 92]
31.738[180, 406, 161, 660, 208, 68, 120, 100]
31.761[182, 444, 160, 644, 193, 66, 123, 98]
31.777[169, 405, 122, 530, 170, 63, 126, 100]
31.799[173, 355, 120, 620, 220, 72, 124, 95]
31.821[162, 399, 135, 587, 235, 74, 106, 87]
31.837[152, 415, 141, 535, 221, 76, 113, 80]
31.859[145, 410, 134, 561, 214, 78, 123, 80]
31.882[146, 452, 147, 667, 236, 83, 126, 73]
31.897[150, 438, 146, 594, 185, 73, 127, 73]
31.918[151, 437, 129, 561, 153, 56, 117, 73]
31.941[129, 406, 116, 577, 156, 56, 128, 80]
31.957[139, 372, 124, 577, 173, 55, 119, 78]
31.979[148, 341, 115, 507, 133, 47, 119, 79]
32.001[136, 329, 124, 504, 139, 49, 131, 78]
32.017[140, 274, 138, 550, 160, 52, 133, 80]
32.038[137, 270, 142, 631, 196, 49, 111, 68]
32.062[119, 264, 150, 657, 192, 57, 128, 60]
32.077[115, 248, 143, 613, 190, 58, 133, 72]
32.099[111, 294, 138, 612, 192, 59, 128, 78]
32.121[129, 309, 127, 579, 174, 58, 124, 84]
32.144[138, 297, 121, 496, 132, 55, 125, 87]
32.158[134, 330, 95, 410, 117, 46, 106, 90]
32.181[137, 349, 99, 430, 144, 51, 102, 81]
32.197[161, 336, 102, 467, 154, 50, 96, 87]
32.218[162, 310, 100, 523, 202, 54, 97, 77]
32.241[162, 360, 133, 500, 205, 57, 99, 79]
32.264[168, 320, 143, 556, 213, 58, 105, 76]
32.279[168, 292, 140, 631, 205, 53, 95, 74]
32.301[158, 290, 163, 627, 204, 56, 101, 63]
32.323[149, 319, 162, 610, 175, 53, 106, 66]
32.338[162, 290, 140, 625, 191, 57, 104, 61]
32.361[163, 308, 135, 603, 182, 57, 103, 65]
32.384[161, 308, 150, 508, 169, 55, 100, 64]
32.398[156, 316, 123, 509, 172, 53, 109, 68]
32.421[144, 300, 131, 532, 178, 53, 103, 68]
32.443[141, 274, 128, 537, 165, 52, 106, 73]
32.458[136, 263, 128, 538, 166, 51, 99, 72]
32.481[129, 261, 126, 578, 178, 57, 108, 76]
32.503[134, 224, 124, 566, 174, 60, 104, 72]
32.518[135, 216, 125, 604, 181, 62, 99, 71]
32.541[118, 234, 120, 643, 186, 58, 95, 71]
32.563[118, 221, 123, 623, 195, 57, 94, 88]
32.579[115, 220, 110, 581, 188, 56, 82, 86]
32.601[98, 225, 110, 582, 179, 52, 64, 84]
32.623[108, 231, 101, 456, 149, 46, 76, 89]
32.638[102, 258, 112, 413, 133, 44, 85, 86]
32.661[101, 249, 105, 405, 116, 47, 85, 65]
32.683[128, 255, 106, 401, 107, 48, 104, 69]
32.699[146, 369, 127, 385, 101, 45, 103, 66]
32.721[142, 376, 134, 399, 100, 47, 96, 56]
32.743[160, 364, 143, 393, 120, 52, 99, 69]
32.76[157, 378, 140, 449, 130, 50, 102, 75]
32.781[148, 375, 144, 458, 131, 44, 87, 71]
32.803[139, 257, 128, 457, 135, 49, 94, 72]
32.819[137, 234, 128, 480, 151, 45, 95, 76]
32.841[150, 194, 116, 560, 159, 40, 90, 67]
32.864[150, 189, 118, 538, 156, 39, 87, 65]
32.878[143, 177, 116, 563, 160, 45, 88, 63]
32.901[141, 182, 114, 588, 167, 41, 119, 82]
32.923[145, 198, 120, 589, 164, 44, 123, 83]
32.938[125, 245, 110, 496, 149, 49, 118, 78]
32.962[132, 283, 116, 482, 150, 51, 118, 77]
32.983[130, 279, 119, 505, 158, 50, 132, 87]
32.999[134, 304, 124, 463, 163, 62, 107, 73]
33.021[138, 350, 99, 435, 156, 60, 105, 67]
33.044[126, 333, 100, 429, 153, 57, 106, 75]
33.066[134, 313, 97, 423, 159, 57, 104, 83]
33.081[148, 323, 94, 402, 160, 60, 95, 93]
33.103[143, 338, 85, 413, 144, 49, 95, 95]
33.119[131, 289, 86, 474, 163, 53, 95, 97]
33.141[141, 287, 94, 523, 164, 50, 92, 93]
33.163[140, 278, 118, 549, 161, 47, 88, 91]
33.186[139, 269, 110, 525, 156, 37, 81, 72]
33.201[150, 220, 108, 523, 151, 39, 91, 64]
33.224[166, 249, 109, 444, 122, 34, 89, 65]
33.247[164, 236, 112, 441, 132, 37, 88, 65]
33.261[162, 224, 92, 428, 125, 37, 96, 58]
33.283[156, 258, 107, 404, 117, 39, 114, 66]
33.315[160, 268, 120, 432, 125, 41, 104, 67]
33.322[165, 255, 126, 443, 136, 46, 107, 67]
33.344[159, 255, 121, 410, 135, 50, 109, 72]
33.366[157, 292, 136, 423, 140, 51, 110, 74]
33.381[159, 290, 131, 406, 132, 51, 85, 65]
33.404[150, 291, 122, 419, 135, 50, 77, 68]
33.426[149, 286, 118, 434, 139, 47, 66, 68]
33.441[151, 293, 112, 413, 126, 43, 72, 73]
33.463[164, 270, 79, 387, 125, 45, 63, 76]
33.494[172, 257, 75, 396, 129, 44, 64, 78]
33.501[165, 238, 77, 409, 131, 41, 79, 77]
33.523[142, 227, 92, 513, 185, 49, 82, 74]
33.546[144, 242, 115, 632, 224, 55, 80, 67]
33.569[133, 293, 120, 641, 223, 53, 90, 67]
33.583[109, 297, 119, 636, 229, 58, 94, 63]
33.606[122, 302, 125, 619, 229, 60, 88, 59]
33.621[130, 299, 117, 539, 191, 53, 97, 64]
33.643[124, 311, 107, 402, 134, 48, 95, 63]
33.666[110, 257, 107, 390, 133, 51, 82, 55]
33.681[120, 240, 103, 409, 124, 52, 81, 58]
33.703[157, 250, 91, 358, 109, 48, 78, 71]
33.726[154, 281, 92, 350, 95, 48, 64, 73]
33.741[167, 246, 80, 365, 113, 48, 75, 77]
33.763[170, 237, 77, 353, 112, 50, 81, 81]
33.786[162, 242, 105, 334, 115, 46, 84, 82]
33.801[124, 253, 117, 395, 124, 47, 79, 72]
33.832[119, 226, 119, 471, 130, 50, 83, 74]
33.847[110, 219, 122, 433, 121, 47, 107, 76]
33.869[106, 210, 125, 459, 122, 43, 105, 72]
33.884[136, 273, 107, 458, 114, 40, 103, 78]
33.906[153, 284, 101, 424, 111, 41, 110, 87]
33.921[154, 305, 97, 348, 131, 40, 119, 80]
33.943[153, 311, 112, 434, 166, 40, 90, 80]
33.966[169, 315, 119, 475, 183, 45, 87, 82]
33.981[152, 271, 125, 485, 186, 46, 87, 77]
34.003[132, 239, 120, 570, 203, 47, 87, 79]
34.026[136, 205, 117, 551, 188, 45, 79, 85]
34.041[133, 204, 103, 481, 158, 44, 77, 98]
34.064[126, 220, 88, 497, 151, 39, 79, 97]
34.086[130, 220, 91, 495, 147, 40, 88, 97]
34.101[145, 244, 95, 430, 129, 44, 92, 91]
34.124[142, 256, 101, 467, 123, 46, 85, 98]
34.146[148, 265, 98, 498, 121, 47, 85, 80]
34.161[146, 256, 96, 476, 128, 53, 97, 78]
34.192[139, 260, 86, 487, 129, 50, 87, 76]
34.206[126, 235, 89, 491, 125, 45, 75, 72]
34.229[126, 223, 83, 461, 125, 42, 72, 52]
34.243[117, 212, 88, 438, 127, 40, 94, 65]
34.266[126, 199, 93, 444, 106, 37, 79, 70]
34.289[126, 170, 98, 442, 109, 42, 75, 70]
34.304[124, 163, 94, 435, 114, 43, 75, 68]
34.326[127, 164, 100, 454, 123, 48, 94, 72]
34.349[123, 185, 99, 485, 133, 52, 81, 69]
34.364[114, 195, 95, 443, 130, 51, 83, 67]
34.386[114, 189, 87, 466, 137, 49, 87, 69]
34.409[120, 195, 93, 451, 134, 52, 104, 72]
34.424[139, 231, 98, 603, 167, 52, 93, 77]
34.446[138, 220, 105, 664, 171, 51, 88, 78]
34.469[127, 226, 121, 670, 175, 51, 102, 76]
34.484[133, 250, 117, 638, 169, 50, 103, 72]
34.506[136, 253, 123, 630, 163, 46, 107, 80]
34.53[126, 223, 117, 463, 118, 40, 102, 81]
34.544[136, 253, 115, 383, 115, 36, 104, 73]
34.566[135, 256, 98, 351, 107, 36, 95, 74]
34.589[124, 239, 100, 399, 104, 36, 92, 72]
34.604[128, 234, 95, 440, 117, 41, 92, 66]
34.626[116, 244, 110, 505, 125, 43, 98, 66]
34.65[116, 248, 112, 591, 137, 51, 92, 69]
34.664[117, 239, 117, 629, 150, 54, 84, 69]
34.686[124, 254, 121, 608, 150, 53, 89, 69]
34.71[130, 256, 113, 608, 172, 54, 103, 82]
34.724[133, 281, 93, 581, 190, 56, 101, 76]
34.746[122, 242, 103, 537, 179, 53, 109, 78]
34.769[124, 297, 114, 499, 169, 49, 120, 78]
34.784[136, 296, 109, 506, 176, 52, 128, 80]
34.806[118, 300, 113, 495, 154, 48, 107, 63]
34.829[145, 275, 118, 494, 144, 45, 105, 65]
34.844[146, 301, 110, 425, 142, 43, 108, 65]
34.866[147, 249, 96, 418, 145, 43, 101, 65]
34.889[137, 230, 102, 439, 142, 39, 86, 68]
34.904[139, 232, 97, 455, 148, 41, 83, 70]
34.926[105, 215, 88, 521, 159, 41, 81, 67]
34.949[108, 208, 77, 481, 147, 37, 72, 69]
34.964[150, 210, 75, 475, 147, 39, 71, 85]
34.986[152, 226, 64, 499, 154, 45, 70, 81]
35.009[165, 220, 85, 447, 151, 47, 76, 86]
35.024[206, 250, 101, 399, 121, 45, 77, 94]
35.047[210, 241, 109, 520, 145, 49, 74, 90]
35.069[182, 237, 112, 521, 141, 50, 73, 74]
35.084[178, 247, 119, 475, 131, 45, 91, 77]
35.107[169, 360, 113, 486, 123, 41, 97, 69]
35.129[123, 343, 108, 510, 166, 52, 102, 63]
35.152[126, 340, 106, 387, 149, 48, 104, 67]
35.167[132, 367, 111, 436, 164, 51, 111, 82]
35.189[136, 359, 107, 429, 173, 52, 98, 79]
35.212[130, 255, 103, 454, 175, 53, 96, 80]
35.234[132, 291, 108, 394, 143, 43, 98, 76]
35.249[123, 309, 99, 413, 147, 44, 101, 74]
35.272[128, 292, 94, 387, 133, 40, 91, 56]
35.287[120, 283, 102, 397, 127, 42, 92, 62]
35.309[118, 308, 99, 422, 132, 42, 81, 64]
35.332[148, 340, 98, 417, 126, 41, 76, 68]
35.347[148, 348, 113, 415, 124, 39, 66, 67]
35.369[141, 346, 116, 393, 128, 43, 66, 67]
35.392[147, 344, 115, 439, 140, 44, 95, 81]
35.407[153, 334, 126, 377, 144, 47, 95, 77]
35.429[125, 325, 117, 411, 143, 48, 97, 75]
35.452[133, 289, 112, 420, 154, 52, 102, 79]
35.467[144, 279, 109, 429, 159, 50, 102, 84]
35.489[145, 286, 120, 408, 139, 46, 92, 72]
35.512[142, 261, 108, 421, 135, 45, 90, 73]
35.527[140, 192, 109, 395, 137, 43, 83, 73]
35.557[128, 202, 102, 385, 121, 40, 82, 70]
35.572[132, 200, 99, 408, 113, 40, 84, 63]
35.587[139, 250, 85, 367, 117, 39, 82, 66]
35.609[145, 260, 87, 385, 111, 37, 88, 77]
35.632[166, 270, 92, 431, 118, 43, 93, 82]
35.646[190, 284, 127, 475, 127, 43, 98, 80]
35.67[193, 292, 125, 449, 127, 41, 101, 79]
35.692[180, 259, 118, 459, 122, 44, 92, 71]
35.706[173, 267, 123, 465, 125, 43, 87, 59]
35.73[152, 250, 123, 409, 106, 41, 86, 53]
35.752[121, 254, 86, 388, 108, 47, 96, 54]
35.767[124, 248, 97, 431, 103, 48, 91, 65]
35.789[160, 243, 102, 431, 114, 47, 96, 69]
35.812[169, 281, 97, 379, 107, 48, 99, 71]
35.826[183, 339, 98, 384, 117, 45, 104, 70]
35.85[195, 319, 99, 381, 103, 41, 95, 69]
35.872[177, 316, 88, 341, 104, 41, 96, 66]
35.886[148, 319, 90, 321, 92, 39, 84, 63]
35.91[135, 274, 98, 356, 100, 40, 86, 62]
35.932[123, 189, 88, 349, 129, 44, 76, 67]
35.946[109, 184, 86, 308, 143, 43, 69, 71]
35.969[104, 178, 89, 320, 146, 49, 74, 68]
35.992[113, 161, 89, 374, 149, 48, 76, 71]
36.006[124, 162, 97, 363, 150, 45, 69, 71]
36.03[114, 182, 99, 354, 124, 45, 67, 59]
36.052[144, 185, 105, 376, 107, 42, 78, 66]
36.067[146, 186, 106, 359, 111, 38, 80, 69]
36.089[145, 217, 107, 305, 112, 42, 88, 75]
36.112[145, 208, 92, 319, 115, 44, 87, 75]
36.135[148, 197, 92, 328, 129, 44, 96, 87]
36.149[134, 218, 99, 382, 140, 45, 90, 82]
36.172[139, 228, 102, 389, 131, 44, 81, 82]
36.194[133, 193, 96, 437, 146, 49, 77, 72]
36.21[129, 181, 93, 475, 138, 49, 96, 71]
36.24[145, 213, 96, 471, 124, 47, 89, 63]
36.254[167, 201, 88, 465, 135, 50, 95, 64]
36.269[167, 237, 83, 476, 140, 49, 98, 63]
36.292[166, 250, 94, 554, 157, 51, 93, 72]
36.322[168, 271, 101, 516, 158, 53, 75, 75]
36.329[167, 244, 99, 521, 154, 53, 90, 77]
36.352[153, 264, 96, 511, 148, 50, 81, 71]
36.375[165, 243, 96, 517, 151, 54, 87, 67]
36.389[168, 234, 97, 439, 138, 48, 109, 66]
36.412[176, 220, 90, 425, 138, 48, 118, 61]
36.435[159, 247, 99, 425, 142, 47, 118, 54]
36.449[151, 226, 105, 391, 142, 49, 115, 55]
36.472[142, 217, 106, 409, 146, 46, 107, 60]
36.494[148, 209, 91, 378, 134, 45, 113, 51]
36.509[131, 209, 95, 371, 131, 42, 127, 62]
36.532[135, 196, 91, 357, 134, 46, 123, 67]
36.555[125, 195, 87, 358, 127, 47, 124, 66]
36.569[121, 189, 85, 287, 111, 46, 124, 64]
36.593[107, 204, 92, 307, 110, 43, 100, 65]
36.622[105, 231, 111, 454, 139, 46, 100, 74]
36.63[96, 254, 108, 498, 143, 45, 112, 72]
36.653[92, 252, 105, 479, 139, 44, 114, 73]
36.674[101, 268, 105, 479, 139, 44, 123, 77]
36.69[102, 271, 122, 494, 140, 46, 125, 76]
36.713[125, 267, 110, 426, 122, 44, 112, 70]
36.734[131, 239, 109, 419, 126, 44, 98, 72]
36.75[141, 240, 105, 413, 125, 47, 105, 73]
36.773[137, 310, 131, 426, 128, 49, 107, 81]
36.794[150, 320, 109, 379, 119, 49, 104, 88]
36.81[134, 312, 105, 382, 133, 54, 97, 87]
36.833[138, 313, 103, 341, 119, 52, 95, 84]
36.855[136, 312, 105, 386, 120, 48, 88, 82]
36.87[155, 224, 70, 434, 125, 47, 84, 77]
36.893[140, 212, 73, 453, 126, 47, 85, 72]
36.914[139, 196, 75, 413, 108, 45, 99, 70]
36.93[131, 243, 94, 406, 103, 45, 101, 72]
36.959[119, 243, 103, 401, 100, 44, 98, 70]
36.974[95, 282, 103, 362, 92, 42, 95, 60]
36.99[102, 285, 98, 391, 105, 41, 106, 69]
37.011[107, 291, 113, 432, 108, 41, 92, 80]
37.034[126, 257, 100, 449, 121, 44, 89, 78]
37.056[130, 276, 100, 440, 133, 49, 88, 78]
37.071[141, 247, 113, 496, 152, 48, 91, 89]
37.094[149, 228, 121, 545, 147, 49, 87, 90]
37.116[152, 220, 103, 526, 151, 48, 87, 75]
37.132[137, 253, 111, 547, 155, 44, 86, 76]
37.163[145, 221, 102, 547, 152, 39, 89, 79]
37.176[128, 205, 94, 497, 136, 39, 82, 71]
37.192[138, 210, 85, 403, 129, 40, 74, 62]
37.214[135, 235, 95, 371, 118, 38, 70, 67]
37.237[144, 225, 85, 366, 112, 37, 68, 71]
37.252[148, 259, 90, 353, 103, 37, 66, 70]
37.274[143, 264, 84, 347, 100, 41, 71, 68]
37.297[144, 266, 85, 330, 96, 39, 67, 71]
37.311[146, 263, 77, 419, 120, 44, 63, 68]
37.334[138, 247, 79, 400, 116, 45, 64, 64]
37.356[126, 232, 74, 424, 125, 48, 79, 70]
37.371[128, 231, 85, 433, 131, 45, 80, 70]
37.394[106, 238, 94, 433, 138, 50, 84, 65]
37.416[118, 238, 95, 373, 120, 44, 83, 66]
37.431[147, 263, 102, 381, 120, 47, 88, 66]
37.454[186, 251, 105, 370, 126, 47, 95, 68]
37.476[213, 246, 95, 361, 130, 49, 90, 64]
37.491[212, 238, 91, 371, 128, 44, 86, 62]
37.514[213, 272, 97, 375, 129, 43, 84, 60]
37.537[196, 235, 87, 369, 125, 43, 86, 64]
37.552[156, 241, 87, 396, 120, 41, 68, 59]
37.574[120, 241, 90, 382, 103, 41, 71, 63]
37.596[122, 259, 85, 441, 106, 43, 72, 63]
37.611[105, 201, 77, 435, 107, 44, 73, 64]
37.634[117, 242, 90, 445, 120, 43, 72, 80]
37.656[116, 253, 92, 444, 125, 47, 66, 76]
37.673[135, 297, 103, 447, 128, 46, 62, 78]
37.694[136, 303, 104, 406, 126, 45, 64, 81]
37.716[137, 310, 107, 410, 129, 46, 70, 92]
37.732[161, 288, 96, 385, 127, 50, 66, 77]
37.754[162, 268, 87, 336, 113, 46, 67, 83]
37.776[143, 269, 76, 327, 110, 43, 69, 80]
37.791[153, 258, 88, 550, 192, 57, 79, 80]
37.814[159, 261, 91, 554, 193, 55, 81, 76]
37.836[125, 256, 92, 553, 192, 58, 84, 74]
37.852[143, 291, 94, 556, 196, 56, 87, 70]
37.874[153, 252, 88, 595, 210, 59, 93, 75]
37.896[145, 252, 77, 394, 139, 45, 83, 74]
37.912[149, 262, 86, 469, 149, 51, 81, 68]
37.934[161, 275, 86, 503, 156, 44, 74, 67]
37.957[140, 246, 91, 515, 152, 47, 92, 68]
37.98[133, 241, 103, 527, 147, 49, 81, 64]
37.995[144, 225, 103, 526, 147, 52, 87, 67]
38.016[125, 210, 96, 495, 132, 47, 82, 59]
38.039[109, 196, 100, 499, 139, 50, 82, 57]
38.054[117, 182, 102, 524, 158, 48, 62, 57]
38.076[121, 193, 96, 489, 148, 46, 66, 59]
38.099[113, 188, 93, 486, 148, 43, 70, 55]
38.114[115, 219, 86, 442, 151, 46, 78, 59]
38.136[118, 229, 90, 423, 126, 40, 84, 59]
38.16[112, 267, 94, 412, 113, 41, 80, 56]
38.181[125, 266, 89, 382, 112, 39, 82, 51]
38.197[119, 276, 91, 375, 118, 42, 76, 48]
38.219[118, 261, 90, 424, 119, 39, 63, 46]
38.234[120, 258, 97, 481, 127, 40, 65, 48]
38.256[139, 219, 101, 493, 123, 44, 80, 52]
38.287[153, 219, 112, 554, 136, 47, 89, 58]
38.294[149, 244, 113, 574, 134, 45, 86, 57]
38.317[151, 241, 110, 523, 126, 42, 87, 55]
38.339[144, 231, 98, 435, 118, 43, 90, 63]
38.354[147, 234, 85, 381, 106, 38, 80, 59]
38.377[127, 260, 80, 304, 98, 36, 64, 55]
38.399[152, 273, 88, 243, 83, 35, 79, 57]
38.414[159, 282, 91, 304, 90, 37, 93, 73]
38.437[162, 275, 91, 379, 95, 41, 92, 76]
38.459[163, 306, 99, 432, 113, 44, 86, 79]
38.474[178, 283, 101, 440, 113, 43, 89, 89]
38.499[161, 241, 90, 444, 126, 44, 78, 91]
38.519[162, 210, 94, 418, 123, 43, 74, 88]
38.534[170, 225, 101, 381, 127, 48, 86, 82]
38.556[156, 220, 92, 336, 123, 49, 99, 83]
38.579[128, 260, 90, 359, 126, 52, 105, 76]
38.602[136, 275, 103, 413, 137, 54, 106, 79]
38.617[136, 278, 104, 425, 141, 55, 103, 71]
38.64[124, 274, 107, 477, 136, 47, 93, 67]
38.655[135, 258, 108, 482, 129, 48, 82, 73]
38.677[144, 217, 116, 466, 122, 46, 83, 74]
38.699[139, 212, 110, 464, 106, 45, 97, 74]
38.714[152, 221, 110, 489, 115, 44, 105, 82]
38.737[162, 241, 104, 444, 120, 50, 102, 86]
38.759[157, 299, 99, 444, 124, 47, 100, 78]
38.774[147, 298, 86, 506, 137, 48, 98, 73]
38.797[152, 303, 92, 471, 139, 50, 86, 76]
38.819[136, 329, 97, 551, 165, 55, 69, 69]
38.834[122, 331, 98, 538, 166, 51, 67, 65]
38.857[125, 286, 102, 552, 171, 53, 79, 66]
38.879[146, 278, 102, 503, 162, 50, 75, 68]
38.895[164, 273, 95, 522, 162, 46, 76, 71]
38.917[185, 240, 92, 447, 147, 45, 75, 75]
38.94[192, 224, 93, 451, 140, 49, 101, 83]
38.963[200, 200, 97, 524, 161, 49, 96, 81]
38.977[186, 214, 99, 557, 188, 62, 93, 78]
38.999[167, 209, 107, 537, 192, 67, 98, 70]
39.022[173, 221, 107, 504, 181, 68, 113, 64]
39.037[172, 216, 103, 517, 188, 66, 112, 54]
39.059[159, 232, 104, 429, 162, 67, 114, 55]
39.083[202, 245, 100, 359, 121, 54, 114, 60]
39.097[218, 232, 88, 406, 116, 47, 107, 56]
39.119[198, 214, 99, 548, 144, 48, 100, 58]
39.143[191, 241, 99, 564, 136, 45, 82, 58]
39.157[189, 238, 102, 600, 143, 42, 95, 66]
39.18[150, 221, 106, 598, 155, 43, 114, 68]
39.203[122, 240, 106, 580, 153, 43, 128, 72]
39.217[113, 241, 95, 528, 146, 42, 129, 79]
39.239[137, 217, 100, 529, 154, 41, 131, 83]
39.262[146, 225, 97, 622, 209, 54, 121, 88]
39.277[137, 217, 103, 642, 212, 58, 109, 86]
39.299[163, 207, 107, 622, 210, 60, 96, 82]
39.323[176, 199, 108, 607, 205, 58, 87, 77]
39.337[163, 215, 103, 579, 204, 63, 100, 84]
39.359[147, 229, 93, 444, 153, 55, 101, 76]
39.384[154, 232, 82, 433, 140, 50, 93, 75]
39.397[134, 234, 77, 479, 158, 54, 91, 76]
39.419[115, 240, 71, 427, 153, 54, 90, 75]
39.443[113, 205, 75, 432, 150, 51, 71, 72]
39.457[154, 163, 80, 430, 158, 47, 66, 70]
39.479[149, 170, 84, 437, 166, 49, 66, 68]
39.503[133, 147, 79, 390, 150, 42, 60, 62]
39.517[131, 138, 76, 345, 135, 38, 70, 62]
39.54[133, 138, 74, 354, 136, 38, 67, 52]
39.563[103, 156, 76, 336, 128, 35, 67, 48]
39.577[103, 142, 68, 344, 139, 43, 71, 48]
39.6[104, 152, 68, 349, 140, 47, 73, 49]
39.623[145, 152, 64, 372, 142, 48, 70, 50]
39.637[145, 170, 61, 350, 135, 45, 67, 43]
39.659[131, 144, 47, 314, 115, 51, 65, 39]
39.683[126, 150, 47, 283, 89, 45, 61, 37]
39.697[133, 144, 52, 272, 86, 42, 64, 40]
39.719[96, 143, 51, 230, 88, 43, 57, 54]
39.743[104, 165, 58, 228, 97, 46, 54, 58]
39.757[108, 179, 67, 260, 97, 40, 54, 59]
39.779[118, 170, 68, 233, 91, 38, 56, 59]
39.803[114, 167, 68, 240, 85, 39, 50, 61]
39.825[105, 163, 67, 247, 73, 34, 45, 45]
39.839[84, 116, 58, 220, 53, 48, 53, 40]
39.863[151, 84, 46, 175, 51, 110, 186, 51]
39.885[147, 80, 41, 153, 47, 122, 202, 54]
39.899[146, 76, 32, 97, 38, 122, 206, 51]
39.923[146, 73, 33, 65, 34, 125, 210, 50]
39.945[157, 60, 32, 46, 30, 121, 209, 70]
39.96[131, 63, 34, 41, 27, 71, 112, 74]
39.983[144, 62, 34, 38, 26, 50, 80, 89]
40.005[144, 59, 35, 39, 24, 47, 68, 97]
40.019[189, 68, 46, 41, 25, 43, 62, 110]
40.043[194, 122, 51, 46, 25, 39, 53, 110]
40.065[172, 137, 79, 51, 23, 35, 42, 107]
40.079[180, 144, 193, 75, 26, 29, 41, 109]
40.103[183, 147, 216, 83, 30, 27, 38, 112]
40.125[137, 144, 254, 84, 30, 24, 29, 107]
40.139[124, 107, 262, 94, 32, 26, 29, 102]
40.162[162, 119, 277, 104, 36, 30, 41, 152]
40.185[141, 122, 290, 104, 52, 38, 39, 154]
40.199[137, 122, 293, 107, 51, 39, 41, 149]
40.223[149, 125, 308, 116, 50, 41, 45, 146]
40.253[154, 122, 341, 123, 50, 39, 44, 144]
40.259[114, 85, 348, 137, 51, 36, 36, 106]
40.284[133, 75, 338, 143, 37, 32, 36, 97]
40.305[144, 75, 364, 142, 36, 38, 36, 94]
40.32[135, 66, 349, 144, 39, 38, 33, 99]
40.343[128, 71, 322, 140, 37, 40, 35, 105]
40.365[127, 78, 344, 136, 39, 41, 34, 99]
40.379[108, 76, 328, 126, 37, 45, 37, 101]
40.403[99, 81, 317, 122, 37, 40, 36, 102]
40.425[114, 80, 302, 143, 40, 38, 42, 116]
40.439[109, 86, 299, 144, 39, 37, 39, 109]
40.463[114, 77, 257, 129, 35, 36, 38, 102]
40.485[110, 72, 259, 128, 36, 29, 33, 99]
40.499[105, 64, 228, 132, 35, 27, 31, 95]
40.523[86, 67, 216, 98, 28, 28, 23, 71]
40.545[92, 46, 211, 87, 31, 26, 20, 68]
40.56[83, 54, 198, 86, 28, 27, 19, 67]
40.583[79, 52, 137, 77, 27, 25, 20, 56]
40.605[72, 51, 150, 69, 31, 28, 20, 54]
40.62[82, 48, 172, 125, 37, 28, 20, 65]
40.643[78, 65, 195, 135, 38, 26, 23, 67]
40.665[72, 65, 201, 132, 38, 25, 24, 56]
40.68[73, 70, 204, 134, 38, 24, 24, 66]
40.703[74, 70, 181, 133, 35, 22, 24, 65]
40.725[54, 69, 153, 82, 27, 18, 21, 51]
40.739[64, 59, 168, 71, 26, 21, 21, 51]
40.763[62, 56, 155, 69, 25, 21, 23, 51]
40.786[61, 54, 155, 67, 26, 23, 24, 35]
40.808[59, 56, 158, 73, 27, 22, 24, 35]
40.823[56, 57, 157, 69, 27, 26, 25, 34]
40.845[64, 62, 96, 58, 27, 23, 25, 36]
40.868[62, 58, 99, 63, 28, 24, 24, 35]
40.883[64, 55, 150, 68, 26, 27, 24, 52]
40.905[66, 59, 144, 72, 25, 26, 24, 53]
40.928[67, 57, 147, 72, 27, 24, 26, 52]
40.95[56, 47, 162, 76, 25, 24, 24, 50]
40.965[60, 47, 170, 75, 24, 24, 22, 50]
40.988[60, 44, 126, 70, 27, 22, 21, 31]
41.003[57, 33, 134, 60, 26, 22, 22, 31]
41.025[59, 41, 147, 68, 25, 23, 19, 33]
41.048[42, 42, 127, 63, 24, 23, 21, 29]
41.063[38, 44, 114, 61, 23, 22, 20, 27]
41.085[33, 47, 107, 60, 21, 19, 23, 26]
41.108[35, 52, 92, 54, 21, 21, 21, 24]
41.123[33, 50, 84, 42, 20, 21, 21, 21]
41.145[31, 52, 84, 33, 22, 20, 21, 20]
41.168[30, 55, 81, 33, 22, 19, 21, 20]
41.183[28, 55, 81, 32, 20, 19, 19, 18]
41.205[26, 56, 95, 44, 20, 18, 21, 21]
41.228[24, 53, 89, 48, 23, 19, 21, 21]
41.243[52, 59, 97, 51, 23, 19, 22, 33]
41.265[52, 57, 104, 53, 24, 21, 24, 33]
41.288[53, 55, 97, 52, 24, 21, 22, 35]
41.302[55, 55, 90, 44, 24, 22, 20, 35]
41.325[55, 54, 87, 46, 20, 20, 21, 34]
41.348[34, 52, 83, 57, 20, 26, 22, 23]
41.363[33, 48, 79, 57, 18, 24, 21, 22]
41.385[31, 47, 83, 55, 18, 26, 22, 20]
41.408[51, 49, 82, 54, 22, 26, 23, 28]
41.422[55, 48, 81, 49, 22, 27, 24, 29]
41.445[53, 43, 87, 35, 22, 22, 19, 29]
41.468[54, 48, 89, 33, 25, 23, 18, 32]
41.482[55, 55, 86, 33, 26, 23, 19, 34]
41.505[38, 50, 80, 34, 22, 21, 22, 27]
41.528[31, 54, 85, 55, 23, 23, 20, 28]
41.542[31, 54, 74, 58, 25, 24, 21, 28]
41.566[60, 52, 69, 59, 24, 25, 23, 36]
41.587[59, 54, 71, 60, 24, 23, 22, 34]
41.609[60, 57, 80, 72, 26, 26, 19, 36]
41.626[62, 54, 70, 59, 28, 23, 22, 35]
41.647[63, 56, 82, 56, 24, 23, 22, 35]
41.669[36, 56, 84, 55, 25, 23, 23, 24]
41.686[35, 51, 82, 56, 25, 23, 22, 26]
41.707[30, 45, 74, 38, 25, 20, 23, 23]
41.729[23, 43, 69, 38, 22, 22, 22, 24]
41.746[56, 41, 49, 37, 25, 22, 23, 33]
41.767[57, 52, 45, 44, 22, 21, 21, 33]
41.789[59, 53, 53, 49, 24, 21, 21, 32]
41.806[60, 52, 57, 50, 24, 22, 19, 32]
41.827[63, 59, 53, 50, 26, 20, 22, 32]
41.849[36, 60, 50, 47, 24, 20, 21, 25]
41.873[64, 52, 51, 41, 25, 20, 21, 33]
41.887[64, 52, 56, 33, 25, 19, 22, 32]
41.909[65, 65, 62, 31, 22, 20, 23, 32]
41.926[64, 65, 63, 30, 22, 23, 20, 34]
41.947[64, 64, 65, 34, 23, 22, 19, 33]
41.969[36, 69, 87, 35, 22, 21, 21, 28]
41.986[33, 67, 81, 36, 21, 22, 20, 29]
42.007[59, 54, 76, 38, 24, 21, 19, 35]
42.03[60, 50, 76, 40, 23, 19, 23, 34]
42.046[62, 60, 76, 38, 23, 20, 23, 34]
42.067[60, 51, 52, 49, 23, 20, 23, 32]
42.09[61, 50, 51, 48, 22, 21, 23, 32]
42.106[36, 54, 50, 48, 23, 21, 22, 25]
42.127[35, 57, 52, 48, 21, 21, 20, 23]
42.15[33, 50, 77, 49, 22, 20, 20, 21]
42.166[32, 53, 79, 36, 22, 21, 21, 20]
42.187[30, 54, 76, 40, 24, 19, 22, 19]
42.21[29, 56, 74, 38, 21, 20, 22, 20]
42.226[28, 53, 72, 36, 23, 22, 19, 20]
42.247[25, 49, 57, 35, 23, 21, 22, 22]
42.27[25, 48, 64, 36, 23, 20, 22, 23]
42.286[25, 51, 67, 33, 21, 22, 21, 22]
42.307[24, 46, 70, 33, 21, 20, 22, 20]
42.329[54, 44, 73, 35, 21, 21, 23, 29]
42.346[56, 43, 61, 31, 18, 21, 24, 27]
42.367[57, 40, 47, 28, 19, 21, 22, 30]
42.389[58, 38, 52, 29, 21, 22, 22, 30]
42.406[59, 35, 50, 31, 22, 24, 22, 29]
42.428[35, 40, 43, 28, 20, 22, 21, 24]
42.449[32, 41, 43, 29, 23, 21, 18, 24]
42.464[30, 43, 45, 31, 23, 23, 16, 21]
42.489[29, 41, 35, 30, 21, 21, 17, 24]
42.509[27, 43, 32, 28, 21, 19, 18, 25]
42.524[24, 37, 35, 30, 23, 19, 18, 21]
42.547[25, 39, 36, 31, 21, 20, 17, 21]
42.569[26, 38, 34, 29, 22, 18, 20, 19]
42.584[25, 35, 29, 26, 22, 17, 20, 19]
42.607[27, 38, 29, 27, 22, 17, 19, 20]
42.629[25, 38, 31, 26, 21, 19, 20, 22]
42.644[27, 38, 27, 29, 26, 19, 19, 25]
42.667[27, 40, 27, 28, 25, 21, 18, 26]
42.689[26, 41, 28, 26, 24, 20, 16, 24]
42.712[24, 38, 29, 25, 24, 24, 19, 23]
42.727[28, 45, 30, 23, 25, 24, 18, 22]
42.75[26, 44, 34, 19, 21, 23, 19, 20]
42.772[25, 39, 34, 22, 22, 23, 19, 20]
42.795[25, 41, 34, 23, 22, 25, 19, 20]
42.81[26, 41, 35, 22, 22, 23, 18, 19]
42.832[23, 36, 33, 22, 21, 21, 20, 20]
42.847[27, 43, 35, 24, 22, 22, 21, 21]
42.869[28, 45, 35, 22, 21, 21, 22, 20]
42.892[29, 43, 39, 25, 22, 21, 24, 23]
42.907[27, 42, 37, 25, 22, 20, 23, 23]
42.93[28, 44, 35, 26, 22, 20, 25, 23]
42.952[23, 36, 28, 24, 20, 20, 25, 20]
42.967[22, 36, 39, 27, 19, 20, 23, 20]
42.989[28, 42, 38, 25, 24, 20, 22, 21]
43.012[29, 41, 42, 25, 26, 20, 23, 22]
43.027[29, 43, 43, 26, 25, 21, 19, 22]
43.049[29, 45, 43, 28, 26, 20, 20, 22]
43.072[30, 43, 34, 25, 27, 20, 19, 23]
43.087[25, 43, 38, 30, 23, 22, 20, 21]
43.11[25, 46, 36, 30, 22, 21, 19, 22]
43.132[25, 41, 34, 28, 23, 22, 22, 23]
43.147[25, 41, 34, 27, 23, 22, 21, 25]
43.17[24, 42, 34, 27, 24, 24, 21, 27]
43.192[30, 43, 29, 23, 24, 23, 22, 25]
43.207[29, 45, 35, 25, 24, 24, 22, 26]
43.229[27, 48, 39, 26, 23, 24, 19, 24]
43.252[27, 47, 40, 29, 21, 23, 18, 22]
43.267[28, 46, 41, 29, 21, 23, 20, 21]
43.29[23, 41, 42, 27, 20, 24, 18, 21]
43.312[24, 46, 40, 26, 21, 24, 19, 19]
43.327[27, 45, 38, 26, 23, 22, 20, 20]
43.35[27, 47, 37, 22, 23, 22, 23, 21]
43.372[25, 47, 39, 24, 21, 21, 23, 20]
43.387[24, 46, 39, 24, 22, 20, 24, 21]
43.411[29, 56, 36, 27, 24, 20, 26, 22]
43.432[27, 56, 35, 27, 22, 21, 25, 21]
43.447[27, 55, 36, 27, 23, 23, 27, 21]
43.47[28, 55, 41, 26, 25, 21, 25, 20]
43.492[28, 57, 38, 28, 23, 21, 25, 19]
43.507[26, 47, 36, 28, 24, 23, 25, 20]
43.545[24, 46, 37, 28, 25, 22, 26, 20]
43.554[23, 45, 37, 28, 24, 20, 23, 22]
43.567[26, 47, 28, 30, 25, 21, 26, 23]
43.59[27, 42, 34, 29, 26, 20, 25, 24]
43.612[23, 38, 36, 24, 23, 19, 23, 22]
43.627[26, 37, 36, 24, 24, 19, 21, 25]
43.65[27, 36, 35, 24, 24, 19, 20, 22]
43.672[24, 33, 34, 22, 22, 19, 17, 21]
43.695[30, 54, 29, 24, 23, 26, 17, 21]
43.718[28, 52, 28, 25, 23, 24, 18, 21]
43.732[26, 54, 30, 24, 21, 24, 21, 19]
43.755[27, 58, 33, 23, 21, 24, 20, 23]
43.77[29, 60, 33, 26, 20, 25, 21, 22]
43.792[24, 49, 33, 28, 20, 18, 21, 23]
43.815[25, 46, 29, 27, 22, 17, 20, 24]
43.829[26, 46, 27, 29, 22, 18, 20, 23]
43.852[26, 44, 25, 29, 22, 19, 20, 21]
43.875[28, 48, 29, 28, 23, 19, 19, 24]
43.89[29, 47, 30, 24, 22, 19, 19, 24]
43.92[29, 49, 34, 28, 21, 20, 20, 23]
43.935[29, 48, 34, 30, 20, 23, 19, 23]
43.95[31, 47, 32, 31, 21, 22, 21, 24]
43.972[26, 43, 30, 30, 20, 23, 21, 22]
43.996[26, 42, 30, 30, 19, 23, 22, 22]
44.01[26, 41, 27, 28, 20, 23, 22, 22]
44.032[24, 40, 34, 26, 22, 21, 23, 23]
44.055[26, 47, 35, 24, 21, 20, 21, 24]
44.07[27, 46, 35, 25, 21, 19, 22, 22]
44.092[26, 47, 35, 24, 21, 18, 21, 23]
44.115[25, 46, 36, 22, 19, 18, 24, 24]
44.13[25, 47, 28, 21, 18, 18, 22, 22]
44.152[22, 42, 27, 21, 17, 17, 22, 21]
44.175[21, 46, 30, 20, 20, 18, 23, 22]
44.19[22, 42, 28, 21, 21, 18, 21, 20]
44.212[23, 51, 31, 21, 24, 18, 18, 19]
44.235[25, 55, 32, 24, 24, 20, 19, 21]
44.25[25, 53, 33, 23, 27, 21, 17, 21]
44.272[26, 51, 31, 25, 26, 20, 18, 20]
44.295[25, 54, 35, 29, 26, 22, 20, 21]
44.31[24, 47, 33, 30, 25, 22, 21, 21]
44.332[23, 41, 34, 27, 25, 20, 21, 20]
44.355[25, 42, 34, 31, 22, 20, 21, 20]
44.37[25, 42, 33, 31, 22, 20, 20, 21]
44.392[25, 40, 28, 28, 23, 22, 18, 21]
44.416[26, 47, 28, 28, 22, 22, 18, 20]
44.43[25, 48, 26, 29, 22, 21, 18, 23]
44.452[24, 51, 27, 26, 21, 23, 23, 21]
44.475[23, 50, 27, 26, 24, 23, 24, 25]
44.498[22, 54, 28, 25, 24, 21, 26, 26]
44.512[22, 51, 26, 25, 24, 19, 25, 26]
44.536[23, 49, 26, 24, 24, 22, 28, 24]
44.55[30, 52, 24, 26, 24, 20, 26, 26]
44.572[30, 52, 25, 25, 21, 22, 25, 23]
44.596[31, 47, 25, 26, 19, 21, 25, 22]
44.618[31, 45, 27, 24, 20, 21, 26, 20]
44.632[30, 48, 28, 23, 21, 19, 23, 20]
44.656[28, 43, 30, 22, 26, 22, 23, 19]
44.678[27, 43, 28, 22, 26, 22, 21, 18]
44.693[26, 43, 28, 21, 26, 25, 19, 17]
44.715[28, 41, 26, 20, 27, 25, 21, 18]
44.738[29, 42, 25, 23, 27, 26, 22, 20]
44.753[26, 39, 25, 21, 22, 22, 22, 18]
44.776[25, 40, 26, 22, 23, 21, 22, 18]
44.799[25, 37, 25, 21, 23, 20, 23, 18]
44.812[24, 40, 24, 21, 21, 20, 20, 20]
44.843[23, 36, 27, 20, 21, 20, 19, 20]
44.858[23, 37, 26, 21, 21, 21, 22, 21]
44.872[22, 35, 25, 23, 21, 22, 22, 22]
44.896[24, 40, 25, 22, 19, 22, 21, 23]
44.918[23, 45, 29, 26, 20, 25, 22, 21]
44.932[24, 46, 27, 26, 19, 24, 24, 21]
44.956[24, 54, 28, 28, 22, 24, 20, 23]
44.978[24, 55, 28, 25, 22, 22, 20, 22]
44.992[23, 52, 31, 28, 23, 21, 19, 21]
45.017[23, 49, 29, 26, 24, 21, 18, 21]
45.038[22, 46, 27, 24, 24, 22, 21, 22]
45.052[26, 50, 28, 24, 23, 22, 23, 20]
45.075[28, 52, 27, 27, 24, 24, 23, 19]
45.098[29, 60, 26, 25, 23, 25, 24, 21]
45.112[29, 59, 25, 25, 22, 24, 24, 22]
45.136[28, 59, 25, 28, 23, 23, 22, 20]
45.158[27, 56, 26, 27, 22, 23, 20, 21]
45.172[25, 55, 27, 27, 22, 22, 20, 22]
45.195[24, 46, 26, 26, 24, 21, 18, 20]
45.218[27, 46, 27, 27, 24, 21, 23, 19]
45.241[27, 47, 28, 24, 23, 20, 22, 18]
45.256[24, 39, 25, 23, 23, 22, 22, 19]
45.278[26, 41, 25, 21, 22, 21, 22, 18]
45.292[28, 48, 27, 24, 22, 22, 22, 19]
45.315[27, 48, 27, 25, 20, 23, 22, 20]
45.338[27, 49, 28, 27, 21, 24, 23, 21]
45.352[28, 47, 29, 26, 20, 22, 21, 20]
45.376[25, 44, 30, 27, 22, 23, 21, 23]
45.398[24, 35, 29, 24, 20, 22, 22, 23]
45.412[26, 40, 29, 23, 21, 20, 20, 23]
45.436[25, 39, 29, 21, 22, 21, 19, 23]
45.459[26, 41, 33, 23, 23, 20, 22, 23]
45.472[28, 43, 32, 25, 23, 19, 23, 21]
45.496[27, 50, 31, 24, 24, 19, 22, 21]
45.518[25, 46, 30, 26, 24, 22, 20, 20]
45.537[27, 47, 29, 27, 23, 21, 20, 20]
45.555[26, 51, 25, 30, 21, 21, 19, 21]
45.578[25, 50, 24, 29, 19, 23, 23, 23]
45.601[25, 47, 25, 31, 19, 23, 23, 25]
45.616[28, 50, 24, 27, 19, 21, 23, 25]
45.638[26, 49, 25, 27, 19, 20, 25, 25]
45.661[24, 46, 23, 23, 21, 20, 25, 26]
45.676[25, 48, 24, 23, 23, 20, 21, 24]
45.698[24, 45, 23, 20, 23, 19, 23, 22]
45.721[22, 42, 25, 22, 21, 19, 24, 23]
45.736[22, 39, 23, 23, 23, 19, 21, 23]
45.758[24, 38, 26, 21, 21, 20, 23, 19]
45.781[22, 38, 24, 23, 20, 20, 23, 23]
45.795[24, 37, 27, 23, 20, 21, 21, 22]
45.818[25, 37, 25, 24, 21, 22, 20, 22]
45.841[27, 41, 27, 27, 20, 22, 22, 23]
45.856[26, 42, 27, 27, 22, 24, 19, 24]
45.878[26, 41, 28, 24, 21, 24, 21, 20]
45.901[26, 42, 27, 25, 22, 23, 23, 22]
45.916[26, 43, 28, 24, 21, 23, 23, 22]
45.939[24, 41, 27, 21, 22, 23, 22, 21]
45.968[24, 36, 24, 22, 21, 21, 24, 22]
45.976[23, 35, 23, 24, 21, 22, 23, 22]
45.998[22, 37, 22, 25, 22, 22, 21, 20]
46.021[25, 49, 23, 23, 23, 23, 23, 23]
46.036[24, 48, 24, 22, 23, 24, 22, 23]
46.058[22, 51, 26, 25, 25, 23, 20, 22]
46.081[24, 52, 25, 25, 25, 21, 22, 21]
46.095[26, 56, 28, 24, 25, 22, 22, 23]
46.118[22, 46, 28, 25, 24, 21, 22, 21]
46.141[23, 46, 27, 25, 22, 19, 22, 22]
46.155[25, 43, 25, 24, 21, 22, 22, 22]
46.178[27, 49, 24, 22, 21, 21, 19, 23]
46.201[28, 43, 24, 25, 19, 22, 20, 21]
46.215[27, 41, 24, 26, 22, 24, 18, 21]
46.238[27, 42, 28, 26, 25, 24, 19, 20]
46.261[26, 43, 30, 25, 26, 23, 20, 20]
46.275[24, 36, 31, 26, 26, 25, 20, 20]
46.298[20, 36, 30, 22, 25, 24, 21, 20]
46.321[24, 39, 30, 25, 25, 22, 21, 21]
46.335[23, 38, 27, 24, 22, 23, 20, 20]
46.359[25, 37, 26, 25, 22, 22, 20, 19]
46.381[27, 43, 27, 24, 26, 19, 20, 20]
46.395[29, 44, 30, 30, 27, 20, 19, 19]
46.419[27, 41, 30, 27, 26, 20, 19, 19]
46.441[27, 49, 33, 29, 27, 21, 20, 21]
46.455[25, 50, 34, 29, 26, 21, 20, 23]
46.478[25, 47, 33, 28, 23, 22, 23, 23]
46.501[25, 43, 29, 24, 24, 21, 23, 23]
46.523[25, 46, 29, 26, 24, 20, 21, 24]
46.539[29, 39, 25, 28, 23, 20, 24, 23]
46.561[28, 40, 26, 27, 24, 19, 24, 20]
46.59[27, 36, 26, 28, 24, 18, 20, 22]
46.599[28, 40, 27, 29, 22, 17, 21, 22]
46.62[27, 41, 31, 29, 22, 21, 22, 20]
46.642[22, 39, 31, 27, 26, 19, 22, 20]
46.659[26, 38, 30, 29, 25, 22, 22, 27]
46.68[26, 38, 32, 28, 25, 22, 23, 25]
46.702[27, 38, 30, 26, 24, 23, 22, 25]
46.719[28, 37, 26, 26, 24, 22, 21, 28]
46.74[28, 41, 28, 25, 22, 24, 20, 28]
46.762[26, 41, 26, 21, 23, 23, 21, 23]
46.787[26, 39, 24, 23, 23, 24, 19, 24]
46.8[30, 49, 27, 27, 23, 23, 19, 25]
46.823[28, 47, 28, 25, 23, 22, 20, 24]
46.839[28, 46, 26, 24, 21, 21, 18, 23]
46.86[28, 47, 28, 28, 20, 22, 18, 23]
46.89[29, 49, 29, 27, 23, 21, 20, 22]
46.899[26, 43, 28, 25, 22, 21, 22, 22]
46.92[25, 43, 26, 25, 20, 21, 22, 19]
46.942[26, 42, 27, 27, 22, 21, 25, 19]
46.959[25, 38, 25, 24, 23, 19, 24, 17]
46.98[25, 45, 25, 25, 21, 21, 24, 18]
47.003[24, 41, 25, 24, 21, 22, 22, 16]
47.019[24, 40, 26, 25, 22, 23, 20, 16]
47.04[25, 40, 27, 24, 20, 23, 18, 16]
47.063[25, 44, 27, 24, 21, 24, 20, 18]
47.079[27, 42, 26, 23, 21, 24, 19, 18]
47.1[29, 42, 25, 23, 20, 23, 20, 18]
47.123[30, 44, 25, 21, 20, 24, 20, 20]
47.139[31, 45, 24, 24, 19, 24, 21, 22]
47.16[29, 45, 24, 23, 18, 24, 19, 22]
47.182[27, 39, 26, 26, 19, 24, 19, 20]
47.199[22, 39, 25, 26, 19, 25, 20, 20]
47.22[27, 48, 26, 26, 21, 26, 23, 21]
47.244[25, 51, 24, 25, 21, 26, 22, 19]
47.259[27, 48, 24, 25, 21, 24, 22, 19]
47.28[25, 47, 23, 24, 20, 22, 20, 21]
47.303[28, 52, 24, 26, 21, 22, 22, 25]
47.319[25, 46, 24, 26, 19, 18, 20, 25]
47.34[27, 43, 24, 26, 19, 21, 20, 25]
47.363[27, 47, 23, 26, 20, 22, 21, 24]
47.379[30, 51, 25, 24, 23, 22, 25, 24]
47.4[28, 47, 24, 22, 22, 22, 23, 19]
47.423[28, 44, 25, 24, 23, 24, 25, 21]
47.439[27, 46, 27, 22, 24, 21, 26, 23]
47.468[27, 48, 27, 24, 24, 21, 25, 24]
47.483[26, 45, 28, 24, 21, 21, 22, 26]
47.505[26, 49, 30, 25, 22, 24, 23, 26]
47.52[25, 49, 29, 24, 22, 21, 21, 22]
47.543[22, 47, 27, 25, 20, 21, 20, 21]
47.565[23, 42, 29, 22, 19, 22, 21, 21]
47.58[24, 44, 25, 26, 20, 21, 24, 20]
47.603[24, 39, 25, 24, 19, 20, 23, 19]
47.625[27, 41, 23, 26, 19, 20, 24, 21]
47.64[27, 43, 26, 27, 20, 21, 22, 20]
47.663[27, 44, 26, 28, 22, 22, 20, 20]
47.685[26, 50, 26, 28, 23, 23, 21, 22]
47.7[26, 49, 26, 28, 24, 23, 22, 22]
47.723[26, 47, 29, 26, 24, 22, 19, 22]
47.745[26, 47, 26, 29, 22, 22, 22, 24]
47.76[28, 59, 28, 29, 21, 23, 22, 24]
47.782[27, 53, 30, 25, 21, 22, 19, 23]
47.805[30, 55, 30, 26, 20, 21, 19, 23]
47.82[27, 53, 29, 27, 20, 23, 19, 21]
47.843[27, 52, 29, 23, 23, 22, 20, 20]
47.865[25, 44, 28, 24, 23, 19, 22, 19]
47.88[25, 44, 25, 25, 24, 20, 21, 17]
47.903[23, 43, 24, 24, 24, 20, 21, 18]
47.925[25, 50, 26, 24, 24, 18, 21, 19]
47.94[25, 50, 26, 24, 21, 19, 17, 20]
47.963[23, 42, 28, 25, 20, 21, 16, 20]
47.985[23, 40, 27, 24, 20, 21, 20, 21]
48.0[24, 42, 29, 24, 21, 20, 22, 19]
48.023[23, 40, 27, 25, 22, 22, 22, 20]
48.045[23, 40, 29, 27, 22, 24, 23, 21]
48.06[27, 43, 30, 27, 24, 24, 23, 21]
48.083[27, 43, 29, 26, 23, 24, 21, 23]
48.105[28, 41, 33, 27, 22, 25, 20, 24]
48.12[29, 37, 33, 25, 21, 25, 19, 24]
48.143[30, 46, 31, 23, 23, 22, 22, 24]
48.165[28, 44, 30, 23, 22, 20, 21, 24]
48.18[27, 46, 31, 25, 22, 18, 21, 21]
48.203[26, 46, 25, 25, 22, 19, 21, 20]
48.225[24, 46, 27, 27, 23, 16, 22, 21]
48.24[22, 40, 25, 28, 23, 19, 19, 19]
48.263[21, 39, 24, 28, 25, 19, 22, 19]
48.285[23, 41, 23, 26, 23, 21, 20, 20]
48.302[24, 40, 25, 26, 24, 20, 22, 21]
48.324[23, 38, 23, 24, 24, 22, 23, 19]
48.345[25, 39, 25, 23, 23, 20, 23, 19]
48.36[26, 41, 23, 25, 22, 22, 22, 23]
48.383[23, 37, 29, 25, 22, 22, 24, 23]
48.405[23, 36, 28, 27, 23, 26, 24, 22]
48.428[25, 42, 30, 26, 22, 24, 23, 23]
48.443[27, 43, 30, 27, 24, 23, 25, 25]
48.465[26, 41, 31, 24, 22, 23, 24, 22]
48.488[27, 40, 28, 24, 22, 24, 22, 22]
48.503[26, 42, 28, 23, 23, 22, 23, 22]
48.525[25, 39, 30, 23, 23, 22, 22, 20]
48.548[20, 36, 28, 23, 20, 23, 21, 23]
48.563[23, 40, 30, 24, 19, 21, 20, 22]
48.585[24, 42, 30, 25, 22, 21, 22, 21]
48.608[24, 43, 30, 24, 22, 20, 21, 23]
48.631[27, 43, 27, 26, 24, 19, 21, 24]
48.645[28, 38, 28, 28, 26, 19, 20, 20]
48.668[26, 33, 27, 28, 26, 20, 22, 22]
48.683[25, 30, 26, 27, 26, 20, 21, 21]
48.705[27, 40, 26, 27, 22, 17, 20, 20]
48.728[22, 38, 27, 24, 21, 19, 20, 21]
48.743[21, 42, 25, 23, 20, 21, 21, 23]
48.765[20, 45, 24, 22, 20, 19, 19, 23]
48.788[21, 48, 25, 23, 21, 23, 18, 23]
48.803[21, 41, 25, 21, 22, 24, 18, 22]
48.825[22, 43, 25, 25, 22, 25, 17, 23]
48.848[23, 41, 27, 25, 21, 23, 15, 22]
48.863[24, 47, 29, 26, 22, 24, 18, 21]
48.886[24, 44, 30, 25, 19, 24, 20, 22]
48.908[24, 46, 32, 28, 21, 25, 19, 22]
48.923[24, 47, 32, 27, 19, 24, 20, 19]
48.945[27, 52, 30, 27, 21, 23, 23, 19]
48.968[27, 46, 31, 27, 22, 27, 23, 20]
48.983[27, 47, 29, 27, 22, 24, 21, 20]
49.005[26, 45, 27, 26, 21, 24, 24, 19]
49.028[26, 44, 26, 26, 24, 24, 24, 18]
49.043[24, 41, 41, 26, 23, 25, 23, 18]
49.065[23, 41, 40, 28, 21, 22, 22, 20]
49.088[24, 41, 43, 29, 22, 22, 22, 19]
49.103[25, 41, 42, 29, 22, 23, 18, 21]
49.125[24, 40, 43, 30, 21, 24, 20, 22]
49.148[24, 45, 32, 28, 21, 23, 20, 23]
49.163[24, 43, 32, 24, 23, 23, 18, 20]
49.185[27, 47, 29, 26, 23, 25, 19, 23]
49.208[27, 45, 30, 24, 24, 22, 21, 23]
49.223[29, 48, 31, 25, 23, 23, 19, 23]
49.245[27, 43, 25, 26, 24, 24, 20, 24]
49.268[28, 47, 25, 27, 23, 23, 20, 23]
49.284[25, 45, 23, 26, 21, 21, 22, 21]
49.305[29, 51, 28, 29, 22, 21, 20, 23]
49.328[28, 47, 26, 28, 23, 19, 20, 23]
49.351[30, 49, 30, 26, 22, 20, 19, 23]
49.365[29, 46, 31, 26, 22, 21, 20, 23]
49.388[30, 46, 31, 26, 25, 21, 17, 22]
49.411[24, 37, 27, 22, 24, 21, 17, 20]
49.425[24, 38, 26, 23, 23, 23, 20, 19]
49.448[23, 43, 24, 24, 21, 22, 19, 19]
49.471[23, 43, 30, 27, 24, 24, 19, 21]
49.485[23, 41, 32, 26, 22, 24, 21, 23]
49.508[25, 43, 34, 27, 21, 24, 22, 22]
49.531[26, 48, 36, 25, 21, 22, 21, 24]
49.545[26, 42, 35, 27, 25, 24, 21, 24]
49.568[24, 42, 31, 24, 24, 22, 21, 24]
49.591[25, 46, 28, 26, 24, 22, 20, 23]
49.605[23, 45, 25, 26, 23, 22, 18, 24]
49.628[25, 48, 26, 26, 24, 23, 20, 23]
49.651[23, 46, 25, 25, 20, 20, 20, 23]
49.665[26, 43, 25, 25, 21, 19, 20, 22]
49.688[22, 38, 26, 24, 21, 18, 20, 22]
49.711[27, 41, 26, 24, 22, 19, 20, 20]
49.725[27, 37, 24, 25, 23, 18, 17, 23]
49.748[28, 39, 26, 26, 23, 18, 17, 24]
49.771[28, 40, 25, 26, 23, 20, 18, 24]
49.785[29, 44, 26, 26, 23, 20, 19, 22]
49.808[25, 43, 27, 26, 25, 19, 19, 23]
49.831[27, 39, 27, 24, 23, 18, 20, 19]
49.845[27, 38, 25, 23, 22, 20, 20, 18]
49.869[28, 49, 27, 23, 23, 21, 19, 19]
49.891[28, 46, 26, 23, 22, 23, 19, 19]
49.906[30, 49, 25, 22, 19, 23, 20, 21]
49.929[27, 49, 26, 23, 20, 24, 21, 24]
49.951[28, 50, 26, 25, 22, 22, 21, 24]
49.966[26, 40, 24, 25, 20, 20, 21, 23]
49.989[26, 40, 25, 24, 18, 19, 22, 24]
50.011[26, 40, 25, 26, 18, 18, 24, 24]
50.025[27, 42, 25, 27, 20, 16, 22, 22]
50.049