[20, 21, 19, 19, 22, 19, 18, 21]
1.576[19, 20, 19, 19, 22, 19, 18, 21]
1.599[19, 20, 17, 21, 19, 18, 20, 22]
1.621[18, 21, 18, 23, 19, 16, 19, 20]
1.637[18, 17, 16, 23, 17, 16, 18, 20]
1.658[17, 18, 17, 22, 17, 18, 19, 19]
1.681[16, 19, 17, 22, 16, 19, 20, 19]
1.702[16, 17, 19, 21, 15, 20, 19, 20]
1.718[18, 18, 18, 19, 16, 19, 21, 18]
1.741[17, 18, 19, 20, 16, 21, 21, 17]
1.757[18, 17, 17, 20, 19, 20, 21, 20]
1.778[18, 18, 19, 20, 22, 19, 21, 20]
1.801[21, 19, 18, 19, 23, 18, 21, 18]
1.817[20, 18, 20, 21, 22, 20, 19, 20]
1.838[23, 19, 21, 20, 22, 23, 19, 21]
1.861[21, 20, 21, 20, 21, 22, 19, 20]
1.877[21, 21, 20, 19, 17, 22, 22, 20]
1.898[19, 20, 20, 20, 17, 21, 21, 21]
1.92[19, 20, 19, 17, 20, 21, 25, 21]
1.937[20, 22, 18, 18, 20, 16, 26, 23]
1.958[21, 21, 19, 19, 21, 18, 27, 21]
1.98[21, 20, 19, 20, 22, 18, 26, 20]
2.003[21, 21, 18, 19, 22, 18, 24, 20]
2.018[21, 23, 21, 20, 21, 16, 20, 20]
2.04[18, 21, 20, 18, 20, 16, 18, 18]
2.063[17, 23, 19, 18, 21, 15, 17, 20]
2.078[16, 22, 19, 17, 19, 16, 17, 20]
2.1[18, 23, 23, 17, 19, 17, 19, 20]
2.123[18, 19, 21, 16, 19, 18, 20, 18]
2.138[17, 19, 22, 15, 19, 19, 22, 18]
2.176[17, 17, 22, 15, 16, 19, 21, 18]
2.183[18, 18, 22, 14, 17, 19, 21, 19]
2.198[17, 16, 19, 16, 17, 19, 19, 20]
2.22[17, 16, 19, 17, 16, 19, 20, 21]
2.243[18, 17, 18, 19, 16, 19, 18, 22]
2.258[18, 17, 21, 18, 17, 19, 20, 21]
2.28[19, 19, 20, 22, 16, 20, 22, 20]
2.303[20, 19, 20, 21, 15, 19, 22, 19]
2.317[21, 35, 19, 20, 18, 20, 19, 19]
2.34[23, 65, 32, 20, 17, 18, 22, 17]
2.362[23, 72, 31, 22, 18, 20, 21, 20]
2.377[22, 73, 31, 19, 19, 19, 18, 20]
2.4[21, 74, 31, 22, 19, 22, 19, 21]
2.424[23, 75, 32, 23, 18, 23, 22, 22]
2.438[22, 53, 21, 22, 18, 24, 20, 22]
2.46[21, 43, 19, 20, 18, 24, 21, 20]
2.483[23, 51, 24, 20, 18, 25, 21, 20]
2.505[26, 63, 24, 19, 18, 23, 20, 17]
2.52[23, 54, 23, 17, 18, 22, 20, 16]
2.543[22, 56, 24, 18, 19, 22, 19, 17]
2.566[25, 55, 26, 19, 18, 20, 20, 16]
2.588[22, 47, 23, 21, 19, 16, 19, 18]
2.602[21, 32, 24, 20, 19, 17, 20, 18]
2.625[19, 31, 24, 21, 17, 18, 18, 19]
2.648[20, 28, 24, 21, 16, 17, 20, 19]
2.663[16, 27, 23, 22, 18, 17, 17, 19]
2.686[19, 27, 22, 20, 16, 18, 19, 17]
2.708[18, 24, 19, 20, 18, 18, 18, 19]
2.723[18, 23, 20, 19, 20, 17, 20, 20]
2.745[18, 22, 18, 18, 19, 17, 19, 19]
2.768[19, 22, 18, 19, 19, 17, 18, 19]
2.783[16, 21, 21, 20, 19, 17, 16, 21]
2.805[15, 19, 22, 19, 19, 17, 18, 19]
2.836[18, 20, 22, 21, 18, 18, 19, 18]
2.843[19, 21, 20, 20, 18, 20, 19, 21]
2.865[19, 20, 24, 21, 18, 22, 19, 19]
2.896[19, 18, 22, 22, 18, 21, 21, 17]
2.903[21, 18, 24, 23, 17, 20, 20, 19]
2.925[19, 20, 25, 20, 16, 21, 17, 18]
2.948[19, 20, 25, 22, 17, 19, 17, 17]
2.963[19, 20, 23, 18, 17, 16, 20, 19]
2.985[20, 24, 23, 17, 17, 17, 19, 20]
3.008[18, 23, 21, 17, 17, 18, 20, 19]
3.031[18, 22, 20, 18, 19, 17, 22, 19]
3.045[17, 23, 20, 18, 17, 19, 21, 18]
3.068[16, 24, 20, 18, 18, 21, 19, 20]
3.082[15, 20, 20, 19, 18, 20, 19, 19]
3.105[15, 20, 20, 19, 19, 20, 19, 18]
3.129[16, 18, 17, 19, 18, 20, 17, 19]
3.143[16, 19, 20, 18, 19, 18, 18, 20]
3.165[17, 19, 20, 18, 18, 17, 20, 16]
3.188[17, 21, 21, 18, 19, 18, 21, 15]
3.203[18, 22, 21, 19, 18, 18, 19, 17]
3.225[18, 26, 23, 18, 18, 16, 20, 17]
3.249[19, 24, 20, 20, 19, 17, 20, 17]
3.263[18, 24, 20, 21, 21, 18, 19, 18]
3.285[17, 23, 20, 21, 23, 18, 18, 20]
3.308[17, 22, 18, 21, 22, 18, 18, 19]
3.323[18, 18, 17, 22, 22, 20, 20, 18]
3.345[20, 17, 19, 20, 21, 19, 22, 18]
3.369[19, 18, 18, 21, 19, 19, 21, 17]
3.382[21, 17, 16, 22, 17, 18, 20, 15]
3.405[22, 19, 18, 23, 19, 19, 21, 17]
3.429[22, 20, 19, 23, 19, 19, 21, 18]
3.451[21, 20, 20, 28, 19, 18, 18, 16]
3.473[23, 19, 22, 28, 19, 19, 17, 15]
3.489[23, 19, 22, 27, 20, 20, 19, 17]
3.511[23, 19, 22, 24, 20, 20, 20, 16]
3.525[21, 19, 21, 23, 20, 19, 20, 16]
3.548[20, 21, 21, 16, 22, 22, 21, 18]
3.571[19, 22, 21, 16, 22, 19, 21, 17]
3.585[17, 22, 21, 16, 21, 18, 20, 17]
3.608[18, 22, 20, 15, 22, 20, 19, 17]
3.631[18, 20, 22, 17, 23, 19, 20, 20]
3.645[20, 17, 23, 18, 21, 18, 20, 21]
3.668[19, 17, 23, 20, 22, 21, 20, 21]
3.691[19, 18, 23, 21, 22, 22, 20, 20]
3.705[21, 20, 24, 23, 20, 21, 19, 22]
3.728[21, 19, 23, 24, 19, 21, 17, 19]
3.751[20, 20, 21, 23, 19, 20, 17, 18]
3.765[21, 19, 20, 24, 17, 19, 16, 18]
3.789[20, 20, 19, 23, 17, 18, 15, 18]
3.811[19, 21, 18, 22, 18, 19, 16, 17]
3.825[20, 21, 18, 20, 18, 19, 16, 17]
3.856[20, 21, 20, 21, 18, 18, 17, 16]
3.871[20, 22, 21, 19, 18, 18, 18, 19]
3.885[20, 20, 21, 22, 18, 18, 21, 20]
3.908[19, 19, 24, 23, 18, 19, 21, 21]
3.931[18, 19, 23, 23, 20, 21, 21, 22]
3.945[19, 19, 24, 23, 21, 22, 21, 21]
3.968[19, 18, 23, 23, 21, 21, 21, 19]
3.992[20, 17, 23, 20, 22, 21, 19, 19]
4.005[20, 16, 20, 19, 21, 19, 19, 19]
4.028[19, 18, 20, 20, 20, 19, 18, 18]
4.051[19, 18, 21, 21, 21, 19, 17, 19]
4.065[21, 21, 22, 20, 22, 19, 18, 19]
4.088[20, 22, 22, 21, 20, 19, 19, 19]
4.118[21, 23, 23, 21, 22, 20, 18, 19]
4.125[21, 22, 24, 21, 21, 20, 19, 18]
4.149[21, 22, 21, 20, 19, 20, 18, 18]
4.171[19, 21, 22, 20, 21, 20, 19, 16]
4.185[20, 21, 22, 20, 22, 21, 19, 18]
4.208[19, 20, 21, 19, 20, 20, 19, 18]
4.231[18, 21, 20, 19, 20, 19, 18, 19]
4.245[17, 21, 22, 21, 22, 19, 19, 21]
4.268[16, 19, 22, 20, 20, 20, 19, 22]
4.291[17, 17, 21, 20, 19, 22, 19, 21]
4.305[19, 19, 22, 21, 20, 21, 19, 20]
4.328[20, 18, 24, 23, 20, 22, 19, 21]
4.351[19, 18, 23, 21, 19, 22, 19, 20]
4.366[20, 19, 23, 23, 20, 21, 17, 20]
4.389[19, 20, 22, 22, 21, 19, 17, 22]
4.411[17, 20, 24, 21, 22, 19, 18, 22]
4.433[17, 22, 22, 20, 20, 18, 18, 21]
4.448[18, 22, 21, 19, 20, 19, 19, 20]
4.471[18, 22, 20, 19, 20, 19, 19, 20]
4.493[18, 23, 20, 20, 19, 19, 18, 17]
4.509[20, 23, 17, 22, 19, 19, 19, 17]
4.531[19, 20, 17, 23, 21, 22, 19, 16]
4.553[20, 20, 17, 23, 21, 20, 19, 17]
4.568[20, 19, 19, 22, 20, 21, 19, 19]
4.591[19, 17, 19, 21, 20, 21, 21, 19]
4.613[20, 16, 20, 22, 22, 22, 20, 20]
4.628[21, 17, 20, 22, 22, 19, 21, 20]
4.651[20, 20, 19, 21, 22, 20, 20, 20]
4.673[19, 21, 19, 21, 22, 20, 20, 18]
4.689[20, 24, 19, 20, 23, 20, 18, 18]
4.711[20, 23, 21, 20, 20, 19, 18, 20]
4.733[18, 23, 20, 17, 21, 19, 19, 19]
4.748[20, 22, 21, 18, 23, 19, 20, 20]
4.771[20, 20, 22, 21, 22, 17, 19, 21]
4.793[21, 17, 23, 21, 21, 16, 19, 21]
4.809[20, 20, 20, 18, 21, 17, 21, 22]
4.831[22, 19, 23, 19, 19, 19, 20, 22]
4.854[20, 19, 23, 21, 16, 20, 19, 22]
4.869[20, 18, 23, 19, 19, 20, 20, 21]
4.891[19, 19, 21, 18, 18, 21, 20, 21]
4.913[19, 18, 21, 20, 22, 21, 20, 18]
4.928[18, 19, 20, 21, 21, 20, 19, 18]
4.951[18, 18, 19, 19, 22, 20, 19, 18]
4.973[18, 20, 16, 21, 22, 21, 20, 20]
4.988[19, 21, 19, 21, 21, 21, 21, 20]
5.011[18, 20, 20, 21, 18, 21, 20, 20]
5.033[17, 19, 20, 21, 19, 20, 21, 20]
5.047[17, 20, 20, 20, 19, 21, 20, 20]
5.071[19, 19, 22, 20, 17, 21, 19, 18]
5.093[18, 18, 20, 21, 19, 21, 20, 19]
5.108[20, 18, 20, 22, 19, 21, 20, 19]
5.131[19, 19, 21, 20, 20, 20, 20, 19]
5.153[20, 20, 22, 21, 19, 21, 20, 19]
5.168[21, 21, 22, 23, 20, 22, 20, 19]
5.191[21, 21, 23, 23, 19, 22, 21, 20]
5.213[21, 22, 21, 22, 20, 22, 21, 18]
5.228[22, 22, 21, 22, 19, 22, 19, 18]
5.251[21, 20, 20, 21, 19, 20, 20, 20]
5.273[19, 21, 20, 20, 20, 19, 20, 21]
5.288[20, 21, 20, 20, 22, 18, 19, 21]
5.311[19, 18, 21, 18, 23, 20, 20, 20]
5.334[18, 19, 20, 20, 22, 19, 20, 23]
5.348[19, 20, 21, 20, 23, 19, 20, 21]
5.371[19, 18, 20, 19, 23, 18, 21, 20]
5.393[18, 18, 21, 19, 21, 18, 20, 20]
5.416[18, 20, 21, 19, 21, 16, 21, 21]
5.432[18, 19, 22, 18, 22, 17, 22, 20]
5.453[17, 19, 21, 19, 23, 16, 22, 20]
5.475[17, 20, 21, 17, 24, 18, 22, 20]
5.499[17, 21, 21, 17, 25, 18, 23, 21]
5.512[19, 21, 20, 16, 23, 19, 24, 20]
5.535[18, 21, 19, 17, 23, 19, 22, 18]
5.559[18, 21, 20, 17, 25, 20, 21, 18]
5.573[17, 20, 20, 18, 22, 21, 23, 18]
5.595[20, 20, 22, 19, 22, 21, 20, 18]
5.612[19, 18, 22, 19, 22, 20, 19, 21]
5.633[21, 18, 23, 20, 22, 20, 19, 20]
5.655[20, 21, 21, 21, 19, 20, 24, 22]
5.672[21, 20, 21, 22, 18, 19, 22, 21]
5.693[20, 19, 17, 21, 18, 18, 21, 20]
5.723[19, 19, 17, 21, 19, 19, 22, 18]
5.732[18, 19, 18, 19, 20, 21, 23, 18]
5.753[18, 18, 19, 22, 21, 20, 19, 16]
5.775[18, 19, 19, 23, 22, 21, 17, 18]
5.791[17, 18, 20, 23, 23, 22, 18, 19]
5.813[17, 19, 20, 24, 23, 21, 18, 19]
5.835[17, 18, 19, 24, 23, 21, 16, 19]
5.851[18, 17, 19, 22, 25, 23, 17, 19]
5.873[18, 21, 21, 20, 23, 23, 17, 19]
5.895[18, 21, 21, 22, 21, 22, 17, 16]
5.912[19, 21, 21, 21, 22, 23, 16, 17]
5.933[18, 23, 22, 22, 21, 22, 18, 16]
5.956[18, 23, 23, 21, 19, 20, 19, 17]
5.972[17, 21, 23, 21, 19, 20, 21, 18]
5.993[17, 23, 23, 19, 19, 20, 20, 19]
6.015[17, 22, 24, 20, 18, 20, 20, 18]
6.032[17, 21, 23, 19, 18, 18, 19, 19]
6.054[18, 21, 22, 21, 18, 18, 20, 18]
6.075[19, 24, 25, 22, 20, 17, 21, 18]
6.092[19, 23, 25, 21, 20, 16, 20, 18]
6.113[19, 25, 26, 21, 22, 17, 21, 20]
6.135[19, 26, 26, 20, 22, 18, 22, 20]
6.152[19, 26, 25, 18, 20, 19, 19, 19]
6.174[19, 23, 22, 15, 19, 19, 17, 20]
6.195[19, 24, 21, 17, 21, 19, 18, 19]
6.212[18, 22, 20, 19, 19, 19, 20, 17]
6.233[18, 21, 21, 19, 19, 19, 18, 18]
6.255[17, 21, 22, 20, 20, 19, 20, 19]
6.272[19, 20, 22, 23, 20, 18, 21, 18]
6.293[19, 20, 23, 22, 18, 18, 20, 17]
6.315[19, 18, 23, 19, 21, 20, 18, 18]
6.338[19, 17, 20, 21, 21, 19, 18, 17]
6.353[20, 22, 21, 20, 21, 18, 18, 17]
6.376[17, 22, 20, 19, 20, 19, 17, 16]
6.398[17, 21, 19, 20, 21, 17, 19, 17]
6.413[18, 24, 19, 20, 19, 18, 20, 18]
6.435[18, 25, 21, 18, 20, 18, 18, 19]
6.458[19, 32, 27, 18, 22, 19, 18, 19]
6.473[25, 44, 30, 17, 23, 20, 19, 20]
6.495[25, 44, 30, 17, 22, 20, 16, 19]
6.519[24, 45, 32, 17, 21, 19, 17, 18]
6.533[24, 46, 33, 17, 21, 19, 18, 20]
6.555[24, 40, 28, 18, 17, 19, 19, 20]
6.579[17, 27, 25, 21, 17, 18, 19, 20]
6.593[20, 27, 26, 22, 19, 20, 18, 21]
6.615[20, 24, 24, 22, 20, 19, 17, 21]
6.638[20, 20, 24, 23, 19, 20, 17, 19]
6.654[20, 18, 24, 22, 20, 19, 16, 21]
6.675[21, 22, 27, 22, 20, 19, 18, 20]
6.697[19, 22, 28, 21, 18, 17, 21, 20]
6.713[19, 23, 28, 22, 19, 19, 22, 21]
6.735[18, 24, 26, 24, 18, 19, 21, 20]
6.757[19, 25, 28, 25, 19, 20, 21, 18]
6.773[20, 22, 24, 24, 19, 19, 19, 18]
6.795[19, 21, 21, 24, 20, 21, 16, 17]
6.817[21, 22, 20, 24, 21, 20, 15, 17]
6.833[23, 25, 20, 18, 22, 20, 16, 18]
6.855[22, 22, 21, 18, 21, 19, 16, 18]
6.877[23, 30, 26, 17, 20, 21, 17, 18]
6.893[22, 30, 27, 20, 19, 20, 19, 21]
6.915[20, 30, 27, 19, 21, 21, 20, 21]
6.937[19, 28, 28, 20, 20, 21, 20, 21]
6.953[19, 30, 27, 21, 19, 21, 20, 21]
6.975[18, 23, 23, 20, 20, 19, 19, 22]
6.998[19, 25, 22, 19, 21, 20, 18, 22]
7.013[21, 24, 23, 20, 17, 19, 16, 20]
7.035[19, 24, 21, 20, 18, 19, 17, 20]
7.058[18, 25, 21, 20, 21, 20, 19, 20]
7.073[18, 25, 20, 22, 21, 20, 20, 19]
7.095[20, 22, 19, 21, 22, 19, 20, 18]
7.118[17, 24, 17, 22, 22, 18, 21, 19]
7.14[18, 22, 19, 21, 21, 18, 21, 18]
7.155[21, 19, 20, 21, 20, 19, 20, 17]
7.178[20, 18, 22, 20, 19, 18, 20, 18]
7.193[20, 22, 23, 23, 19, 18, 19, 17]
7.215[20, 21, 24, 26, 18, 18, 20, 19]
7.237[21, 21, 22, 27, 19, 19, 19, 18]
7.253[19, 22, 21, 26, 19, 19, 21, 19]
7.275[19, 22, 19, 27, 18, 20, 20, 22]
7.297[19, 25, 22, 24, 20, 21, 22, 21]
7.32[21, 25, 22, 19, 20, 21, 21, 21]
7.335[19, 26, 23, 20, 19, 21, 21, 20]
7.357[18, 28, 25, 21, 18, 23, 20, 21]
7.38[19, 28, 26, 20, 19, 22, 22, 18]
7.396[16, 25, 24, 21, 15, 23, 23, 19]
7.418[17, 27, 23, 21, 14, 23, 24, 19]
7.44[19, 27, 24, 20, 18, 22, 24, 20]
7.455[20, 24, 23, 20, 22, 19, 22, 19]
7.478[19, 26, 27, 21, 22, 20, 22, 21]
7.501[19, 29, 28, 22, 24, 19, 21, 20]
7.524[19, 28, 28, 23, 25, 19, 20, 19]
7.538[20, 27, 26, 22, 24, 21, 19, 20]
7.56[20, 27, 25, 22, 21, 21, 19, 19]
7.575[20, 28, 25, 19, 20, 21, 17, 17]
7.597[22, 25, 26, 20, 18, 21, 15, 20]
7.62[20, 25, 26, 19, 20, 23, 19, 20]
7.635[20, 25, 26, 20, 19, 23, 24, 20]
7.657[18, 24, 27, 22, 22, 23, 27, 20]
7.68[20, 25, 26, 25, 23, 23, 26, 23]
7.695[20, 24, 24, 25, 23, 22, 28, 20]
7.718[21, 27, 26, 25, 23, 17, 26, 22]
7.74[21, 30, 29, 28, 24, 17, 23, 22]
7.755[24, 32, 32, 27, 20, 17, 20, 25]
7.777[23, 30, 28, 26, 22, 18, 20, 26]
7.8[21, 32, 28, 24, 23, 26, 18, 27]
7.815[22, 30, 26, 24, 23, 26, 19, 28]
7.838[21, 26, 23, 28, 27, 25, 17, 29]
7.861[18, 27, 21, 28, 28, 25, 19, 26]
7.875[17, 26, 22, 26, 29, 26, 27, 23]
7.898[22, 24, 21, 28, 29, 17, 28, 23]
7.92[21, 24, 20, 29, 28, 23, 27, 23]
7.935[21, 24, 23, 23, 25, 23, 28, 23]
7.958[21, 21, 21, 25, 23, 23, 27, 24]
7.98[25, 20, 20, 26, 21, 22, 21, 24]
7.995[21, 22, 22, 24, 22, 21, 20, 24]
8.018[20, 22, 25, 25, 22, 14, 21, 21]
8.04[21, 23, 24, 26, 22, 13, 21, 28]
8.055[21, 25, 25, 23, 21, 15, 22, 27]
8.078[17, 26, 26, 23, 25, 14, 21, 27]
8.1[18, 28, 24, 23, 25, 18, 20, 27]
8.115[21, 29, 25, 23, 24, 19, 21, 28]
8.137[21, 36, 28, 22, 24, 21, 19, 20]
8.16[21, 37, 113, 24, 24, 22, 18, 21]
8.175[22, 36, 147, 26, 22, 23, 18, 23]
8.198[23, 32, 156, 24, 22, 22, 23, 23]
8.22[22, 33, 156, 24, 22, 20, 22, 23]
8.243[22, 29, 156, 22, 21, 18, 26, 25]
8.257[21, 26, 112, 20, 23, 18, 26, 27]
8.28[23, 27, 62, 19, 21, 17, 26, 25]
8.303[23, 27, 34, 22, 21, 20, 24, 27]
8.317[25, 28, 34, 21, 23, 20, 23, 27]
8.34[23, 28, 30, 23, 22, 24, 22, 27]
8.363[23, 32, 32, 25, 26, 26, 23, 26]
8.377[23, 33, 28, 25, 26, 26, 22, 25]
8.4[24, 35, 28, 24, 27, 23, 22, 25]
8.423[22, 33, 28, 24, 27, 25, 22, 24]
8.437[23, 30, 27, 22, 26, 22, 21, 23]
8.461[24, 26, 24, 21, 24, 20, 20, 23]
8.483[25, 25, 22, 19, 24, 19, 22, 23]
8.497[24, 27, 23, 16, 24, 20, 23, 24]
8.521[24, 33, 22, 19, 21, 20, 23, 24]
8.543[23, 34, 24, 19, 22, 20, 24, 27]
8.558[22, 36, 24, 24, 19, 18, 25, 26]
8.581[20, 35, 26, 24, 20, 19, 24, 27]
8.611[18, 33, 25, 25, 19, 19, 23, 26]
8.618[20, 26, 24, 24, 22, 17, 26, 26]
8.64[21, 26, 22, 24, 22, 17, 23, 20]
8.664[19, 26, 25, 20, 23, 19, 24, 26]
8.677[18, 26, 22, 22, 22, 19, 24, 24]
8.701[17, 26, 24, 23, 24, 19, 25, 22]
8.723[18, 24, 24, 22, 23, 24, 22, 22]
8.738[18, 25, 24, 21, 21, 25, 24, 26]
8.762[19, 22, 26, 21, 21, 24, 25, 21]
8.784[22, 23, 27, 20, 21, 25, 26, 22]
8.797[23, 22, 26, 19, 20, 25, 24, 22]
8.821[21, 24, 26, 20, 19, 20, 24, 27]
8.851[23, 22, 27, 19, 20, 20, 22, 23]
8.858[23, 23, 24, 21, 21, 22, 21, 23]
8.881[21, 22, 24, 21, 21, 20, 20, 25]
8.903[22, 22, 24, 18, 21, 21, 20, 24]
8.917[22, 22, 26, 18, 22, 20, 21, 22]
8.941[20, 21, 28, 19, 20, 19, 23, 23]
8.963[22, 20, 26, 19, 20, 22, 23, 22]
8.977[21, 20, 26, 19, 19, 22, 22, 22]
9.001[22, 20, 28, 22, 19, 22, 22, 22]
9.024[22, 21, 26, 23, 19, 22, 21, 19]
9.037[22, 20, 21, 21, 22, 21, 19, 20]
9.061[21, 19, 25, 23, 21, 16, 20, 21]
9.083[22, 18, 25, 22, 22, 17, 19, 19]
9.097[19, 20, 21, 21, 22, 15, 18, 19]
9.121[19, 20, 26, 21, 23, 16, 18, 19]
9.144[20, 20, 26, 21, 22, 19, 19, 18]
9.158[20, 24, 24, 18, 23, 18, 17, 17]
9.181[18, 24, 24, 20, 22, 20, 19, 18]
9.203[21, 24, 29, 21, 21, 20, 19, 19]
9.227[21, 23, 24, 21, 20, 22, 17, 20]
9.241[20, 25, 25, 21, 22, 20, 15, 18]
9.263[20, 25, 26, 21, 20, 21, 20, 21]
9.286[20, 27, 25, 21, 20, 19, 19, 20]
9.301[17, 26, 20, 19, 22, 19, 19, 18]
9.324[18, 27, 22, 20, 23, 19, 20, 18]
9.346[19, 25, 21, 19, 21, 18, 23, 21]
9.361[18, 24, 20, 23, 22, 19, 20, 20]
9.383[19, 22, 21, 22, 24, 18, 22, 22]
9.406[21, 21, 23, 25, 21, 20, 23, 23]
9.421[20, 21, 22, 23, 21, 19, 24, 21]
9.443[21, 21, 23, 25, 20, 19, 21, 19]
9.466[20, 17, 22, 23, 21, 20, 21, 19]
9.481[19, 19, 22, 23, 20, 20, 23, 16]
9.504[18, 21, 20, 20, 20, 19, 22, 16]
9.526[19, 21, 21, 19, 22, 19, 20, 17]
9.54[19, 21, 21, 17, 23, 20, 21, 16]
9.563[20, 21, 21, 19, 22, 18, 20, 17]
9.586[20, 22, 22, 19, 23, 17, 19, 16]
9.601[20, 20, 22, 21, 22, 20, 18, 19]
9.624[19, 20, 21, 22, 22, 20, 19, 20]
9.646[18, 21, 19, 23, 21, 21, 18, 21]
9.661[20, 22, 19, 22, 21, 20, 21, 21]
9.683[20, 20, 20, 21, 22, 21, 20, 23]
9.706[21, 20, 20, 21, 22, 19, 21, 23]
9.72[21, 19, 20, 20, 22, 19, 21, 22]
9.743[21, 18, 22, 21, 22, 20, 23, 22]
9.766[21, 18, 21, 19, 22, 21, 19, 20]
9.78[20, 20, 20, 19, 21, 22, 23, 19]
9.803[19, 19, 21, 20, 22, 24, 27, 18]
9.826[21, 21, 22, 23, 21, 32, 47, 20]
9.84[21, 30, 49, 41, 30, 46, 60, 19]
9.864[19, 34, 56, 46, 71, 67, 63, 22]
9.886[21, 35, 58, 51, 75, 73, 75, 31]
9.908[21, 36, 59, 66, 76, 81, 112, 41]
9.923[23, 37, 68, 71, 80, 87, 118, 42]
9.946[24, 32, 55, 67, 97, 88, 114, 47]
9.969[29, 27, 49, 66, 83, 88, 130, 61]
9.983[32, 27, 51, 82, 89, 99, 127, 64]
10.006[34, 30, 57, 75, 91, 133, 108, 61]
10.02[33, 27, 46, 73, 92, 146, 103, 62]
10.043[34, 33, 50, 73, 75, 194, 114, 63]
10.073[31, 34, 52, 74, 67, 198, 100, 52]
10.08[31, 39, 62, 109, 59, 203, 104, 49]
10.103[29, 45, 74, 128, 146, 189, 107, 47]
10.126[30, 49, 96, 138, 180, 194, 116, 49]
10.148[31, 47, 97, 154, 186, 157, 118, 50]
10.163[32, 50, 111, 160, 189, 170, 161, 52]
10.186[29, 48, 117, 158, 219, 163, 160, 51]
10.209[29, 50, 142, 255, 274, 166, 153, 51]
10.223[45, 109, 297, 279, 287, 152, 144, 56]
10.246[44, 113, 310, 290, 310, 138, 148, 51]
10.268[43, 113, 310, 299, 336, 121, 97, 46]
10.283[47, 122, 324, 297, 359, 124, 98, 47]
10.306[48, 121, 323, 278, 338, 112, 99, 47]
10.329[33, 81, 200, 270, 353, 112, 99, 38]
10.343[42, 96, 233, 295, 355, 121, 87, 47]
10.365[42, 99, 238, 307, 345, 108, 92, 49]
10.388[40, 97, 232, 315, 318, 99, 84, 47]
10.404[39, 103, 275, 294, 304, 118, 85, 45]
10.426[42, 108, 318, 321, 305, 123, 95, 47]
10.448[33, 94, 286, 315, 295, 140, 92, 39]
10.464[35, 95, 300, 299, 288, 139, 92, 39]
10.494[36, 93, 296, 291, 278, 140, 106, 40]
10.508[89, 158, 274, 312, 272, 145, 109, 53]
10.524[107, 176, 234, 289, 248, 135, 108, 64]
10.545[110, 185, 257, 314, 256, 113, 115, 67]
10.576[113, 193, 252, 437, 317, 129, 112, 68]
10.584[133, 234, 452, 563, 343, 133, 107, 78]
10.605[107, 200, 471, 586, 340, 118, 101, 73]
10.628[98, 200, 538, 651, 369, 122, 99, 67]
10.644[111, 236, 638, 711, 409, 140, 91, 73]
10.665[118, 268, 705, 711, 374, 131, 87, 77]
10.689[119, 308, 736, 754, 385, 137, 77, 71]
10.704[153, 395, 902, 913, 406, 179, 94, 91]
10.725[168, 435, 956, 915, 404, 202, 95, 96]
10.747[163, 434, 971, 936, 384, 201, 101, 91]
10.771[163, 429, 959, 984, 389, 204, 102, 89]
10.785[154, 406, 921, 943, 380, 209, 107, 88]
10.807[125, 333, 801, 846, 356, 176, 90, 69]
10.824[112, 301, 791, 889, 321, 151, 81, 63]
10.845[105, 279, 701, 851, 313, 167, 82, 61]
10.868[114, 298, 748, 775, 326, 181, 102, 68]
10.884[104, 268, 682, 739, 305, 176, 99, 63]
10.905[101, 254, 631, 663, 288, 166, 100, 59]
10.927[88, 219, 521, 581, 311, 167, 103, 55]
10.944[84, 210, 512, 520, 269, 135, 90, 53]
10.966[59, 142, 376, 476, 221, 108, 69, 39]
10.987[55, 132, 362, 489, 224, 125, 86, 41]
11.004[52, 121, 325, 465, 216, 138, 104, 38]
11.025[46, 111, 304, 453, 166, 136, 108, 33]
11.048[47, 110, 300, 442, 232, 151, 107, 33]
11.07[55, 137, 390, 583, 242, 154, 105, 37]
11.085[75, 184, 484, 566, 256, 135, 102, 45]
11.108[81, 197, 527, 594, 264, 137, 87, 49]
11.131[82, 199, 516, 565, 291, 154, 81, 49]
11.145[86, 215, 558, 661, 305, 148, 84, 53]
11.167[83, 202, 503, 554, 313, 151, 85, 50]
11.19[68, 165, 419, 522, 319, 155, 73, 43]
11.205[62, 155, 392, 536, 315, 146, 60, 39]
11.227[62, 158, 414, 565, 302, 139, 69, 40]
11.25[69, 179, 449, 518, 280, 125, 69, 40]
11.273[65, 169, 441, 538, 280, 136, 68, 40]
11.288[66, 175, 477, 625, 274, 123, 68, 39]
11.31[69, 178, 470, 584, 277, 125, 74, 44]
11.333[67, 171, 455, 592, 282, 125, 68, 42]
11.348[67, 163, 439, 555, 253, 129, 68, 41]
11.37[69, 174, 454, 533, 246, 112, 70, 42]
11.385[75, 186, 477, 496, 222, 113, 66, 45]
11.409[72, 184, 484, 514, 223, 109, 64, 41]
11.43[70, 180, 473, 518, 204, 89, 59, 39]
11.445[59, 151, 415, 543, 203, 97, 55, 39]
11.468[65, 156, 461, 582, 264, 132, 53, 42]
11.49[52, 131, 393, 548, 269, 135, 52, 37]
11.52[58, 140, 438, 637, 269, 139, 68, 43]
11.528[66, 153, 456, 607, 270, 149, 72, 46]
11.55[67, 163, 483, 593, 261, 143, 72, 47]
11.565[65, 151, 420, 597, 185, 109, 74, 46]
11.588[69, 159, 437, 592, 231, 109, 75, 48]
11.61[64, 141, 375, 476, 228, 103, 58, 41]
11.625[69, 168, 449, 536, 233, 103, 58, 46]
11.647[65, 153, 401, 517, 264, 110, 56, 45]
11.67[68, 176, 471, 517, 295, 134, 74, 44]
11.686[65, 168, 449, 500, 251, 139, 78, 42]
11.707[63, 169, 457, 594, 249, 140, 78, 41]
11.738[60, 157, 404, 543, 291, 148, 72, 36]
11.745[81, 210, 509, 649, 321, 168, 76, 45]
11.768[73, 185, 435, 606, 324, 161, 58, 41]
11.798[74, 190, 450, 705, 355, 178, 54, 42]
11.805[103, 269, 571, 739, 380, 179, 68, 58]
11.827[102, 267, 560, 745, 350, 168, 68, 58]
11.85[88, 233, 480, 678, 297, 139, 67, 51]
11.865[89, 237, 486, 686, 261, 129, 64, 53]
11.887[90, 238, 484, 597, 221, 94, 63, 54]
11.91[54, 144, 353, 513, 278, 91, 47, 37]
11.925[49, 135, 384, 529, 273, 90, 46, 34]
11.948[50, 133, 387, 534, 305, 116, 45, 33]
11.97[54, 139, 423, 574, 323, 124, 56, 36]
11.985[57, 146, 438, 607, 330, 127, 60, 40]
12.007[56, 145, 416, 578, 257, 126, 62, 40]
12.03[55, 133, 377, 609, 260, 124, 70, 41]
12.052[57, 137, 394, 650, 242, 111, 70, 44]
12.076[53, 127, 364, 618, 228, 101, 60, 41]
12.09[49, 108, 344, 635, 221, 107, 60, 35]
12.112[52, 114, 364, 655, 236, 106, 58, 38]
12.127[53, 121, 395, 601, 256, 106, 60, 39]
12.15[51, 120, 396, 536, 240, 102, 67, 37]
12.172[53, 123, 395, 553, 246, 128, 74, 38]
12.187[60, 142, 413, 475, 251, 118, 69, 39]
12.21[60, 143, 434, 476, 236, 128, 69, 39]
12.241[62, 149, 422, 471, 202, 130, 65, 37]
12.247[57, 139, 396, 465, 233, 132, 53, 37]
12.27[68, 170, 470, 499, 224, 114, 49, 40]
12.292[62, 158, 446, 561, 243, 114, 62, 37]
12.307[71, 174, 461, 549, 282, 113, 64, 42]
12.33[68, 168, 452, 535, 276, 109, 60, 42]
12.352[69, 168, 441, 519, 264, 111, 63, 44]
12.367[57, 133, 346, 470, 257, 108, 62, 43]
12.39[56, 135, 348, 396, 224, 112, 66, 44]
12.412[43, 105, 276, 415, 193, 101, 65, 40]
12.427[42, 96, 245, 423, 212, 95, 66, 39]
12.45[57, 143, 378, 439, 208, 96, 73, 44]
12.472[63, 159, 407, 424, 249, 120, 76, 44]
12.487[62, 154, 398, 419, 254, 120, 64, 43]
12.518[59, 150, 386, 369, 254, 123, 64, 42]
12.532[60, 151, 394, 393, 248, 127, 61, 42]
12.547[60, 151, 382, 406, 251, 130, 69, 43]
12.57[52, 134, 345, 413, 216, 106, 64, 40]
12.593[51, 135, 356, 416, 265, 115, 65, 43]
12.607[55, 147, 378, 463, 248, 114, 64, 43]
12.63[57, 154, 383, 467, 257, 113, 64, 44]
12.652[41, 113, 294, 458, 246, 110, 50, 34]
12.667[50, 124, 326, 469, 286, 126, 50, 35]
12.69[48, 120, 313, 479, 246, 118, 49, 33]
12.712[50, 115, 311, 424, 242, 121, 79, 33]
12.728[49, 108, 299, 437, 239, 124, 85, 33]
12.75[59, 141, 380, 458, 280, 121, 87, 41]
12.773[53, 129, 351, 439, 245, 126, 88, 40]
12.787[56, 140, 387, 435, 232, 122, 94, 40]
12.81[53, 134, 362, 425, 247, 127, 73, 38]
12.833[50, 128, 359, 384, 240, 122, 67, 36]
12.847[38, 91, 261, 343, 185, 118, 62, 31]
12.87[38, 91, 255, 322, 225, 92, 60, 30]
12.909[36, 82, 206, 305, 237, 105, 50, 29]
12.91[42, 100, 241, 324, 229, 89, 45, 32]
12.93[43, 106, 250, 373, 256, 92, 61, 32]
12.953[40, 99, 226, 341, 253, 88, 59, 29]
12.976[42, 99, 227, 328, 213, 85, 60, 29]
12.99[47, 117, 303, 422, 218, 92, 60, 29]
13.013[41, 102, 283, 409, 210, 93, 64, 26]
13.036[76, 200, 434, 447, 207, 111, 58, 39]
13.05[78, 207, 445, 461, 209, 105, 56, 39]
13.072[102, 260, 543, 496, 205, 109, 64, 50]
13.095[100, 254, 496, 420, 183, 89, 67, 50]
13.11[105, 265, 528, 442, 184, 92, 69, 52]
13.132[92, 219, 437, 390, 178, 78, 79, 49]
13.156[91, 214, 430, 371, 170, 77, 79, 50]
13.185[90, 218, 438, 353, 201, 83, 84, 51]
13.192[88, 213, 436, 337, 206, 92, 84, 51]
13.216[83, 199, 395, 292, 200, 93, 95, 50]
13.23[78, 191, 383, 261, 223, 112, 84, 48]
13.252[85, 210, 451, 397, 257, 130, 86, 52]
13.276[62, 148, 351, 391, 228, 123, 75, 42]
13.29[62, 149, 359, 405, 228, 118, 83, 44]
13.312[68, 168, 419, 430, 233, 115, 70, 47]
13.335[61, 155, 405, 409, 205, 92, 65, 43]
13.35[53, 125, 328, 294, 215, 87, 63, 37]
13.373[43, 107, 291, 271, 210, 98, 65, 34]
13.396[43, 105, 284, 262, 238, 151, 62, 32]
13.41[35, 82, 238, 294, 252, 155, 61, 30]
13.433[34, 77, 226, 307, 234, 155, 62, 28]
13.464[32, 76, 216, 317, 204, 165, 63, 28]
13.47[39, 90, 252, 314, 212, 168, 70, 34]
13.493[37, 86, 260, 384, 198, 128, 64, 34]
13.516[35, 76, 216, 355, 201, 131, 60, 33]
13.53[41, 94, 240, 358, 210, 152, 65, 35]
13.552[42, 96, 250, 394, 217, 134, 66, 34]
13.576[37, 83, 222, 439, 221, 131, 58, 29]
13.59[38, 82, 207, 371, 203, 132, 56, 28]
13.612[39, 81, 191, 356, 200, 126, 54, 27]
13.636[32, 63, 169, 397, 200, 109, 45, 24]
13.65[32, 66, 176, 355, 194, 120, 39, 24]
13.672[34, 68, 175, 342, 188, 115, 37, 28]
13.696[35, 69, 181, 379, 180, 115, 50, 29]
13.71[35, 78, 228, 451, 202, 112, 56, 29]
13.741[43, 92, 244, 421, 209, 96, 59, 32]
13.756[44, 96, 251, 424, 225, 83, 70, 31]
13.77[43, 94, 246, 394, 242, 90, 71, 28]
13.792[44, 98, 254, 446, 256, 85, 63, 29]
13.815[46, 93, 219, 392, 223, 86, 58, 30]
13.83[39, 77, 199, 388, 237, 107, 57, 27]
13.853[37, 72, 187, 394, 222, 104, 55, 31]
13.875[37, 78, 218, 404, 212, 103, 56, 31]
13.89[35, 74, 207, 312, 200, 103, 56, 30]
13.913[31, 72, 220, 341, 212, 105, 55, 29]
13.935[35, 79, 232, 344, 197, 89, 55, 31]
13.958[35, 77, 228, 325, 179, 86, 46, 27]
13.973[33, 70, 196, 318, 182, 77, 58, 28]
13.996[32, 67, 189, 309, 199, 70, 55, 27]
14.018[45, 98, 229, 306, 215, 87, 61, 33]
14.033[43, 96, 207, 280, 198, 87, 64, 30]
14.055[47, 108, 259, 299, 233, 98, 68, 33]
14.078[48, 110, 265, 288, 226, 99, 58, 31]
14.093[59, 150, 382, 398, 218, 103, 59, 34]
14.115[56, 148, 392, 364, 198, 112, 65, 34]
14.138[58, 152, 419, 378, 215, 119, 66, 38]
14.16[62, 162, 428, 399, 183, 119, 65, 40]
14.176[64, 168, 441, 411, 178, 120, 61, 41]
14.198[61, 146, 383, 379, 175, 118, 62, 43]
14.213[55, 131, 351, 390, 184, 100, 57, 38]
14.236[55, 130, 342, 435, 186, 96, 52, 37]
14.258[47, 110, 293, 463, 200, 98, 50, 33]
14.273[45, 102, 274, 458, 218, 106, 50, 33]
14.296[42, 102, 266, 478, 225, 110, 52, 28]
14.318[44, 107, 268, 469, 208, 112, 52, 28]
14.333[42, 100, 246, 458, 226, 118, 54, 27]
14.356[43, 100, 250, 391, 219, 110, 52, 27]
14.378[45, 110, 278, 401, 221, 115, 53, 27]
14.393[41, 98, 247, 379, 227, 116, 50, 28]
14.415[48, 117, 276, 404, 274, 145, 39, 32]
14.438[60, 143, 375, 437, 275, 159, 45, 38]
14.453[65, 159, 427, 493, 288, 166, 53, 39]
14.475[71, 163, 440, 536, 300, 161, 60, 43]
14.498[78, 187, 493, 559, 332, 170, 64, 45]
14.512[77, 188, 518, 637, 327, 150, 69, 47]
14.535[71, 177, 490, 645, 314, 126, 63, 45]
14.558[66, 166, 476, 699, 307, 115, 56, 42]
14.572[62, 163, 490, 742, 321, 121, 47, 38]
14.595[57, 150, 503, 804, 292, 117, 42, 37]
14.618[53, 134, 459, 738, 300, 133, 38, 34]
14.632[51, 124, 418, 721, 296, 147, 49, 31]
14.656[54, 124, 385, 650, 291, 147, 53, 35]
14.678[52, 128, 355, 580, 267, 144, 54, 35]
14.692[52, 119, 284, 488, 286, 145, 57, 33]
14.715[68, 163, 406, 532, 252, 141, 73, 39]
14.738[69, 169, 427, 537, 247, 136, 68, 39]
14.752[69, 174, 447, 519, 238, 138, 65, 37]
14.776[73, 181, 473, 574, 241, 135, 65, 39]
14.798[89, 219, 565, 593, 209, 130, 67, 46]
14.812[79, 195, 500, 571, 246, 145, 48, 43]
14.836[86, 205, 523, 616, 284, 137, 52, 47]
14.858[100, 245, 621, 726, 315, 140, 54, 54]
14.881[106, 261, 662, 713, 322, 143, 54, 57]
14.895[93, 231, 589, 722, 322, 141, 48, 52]
14.918[94, 230, 588, 719, 299, 103, 65, 51]
14.941[87, 218, 558, 674, 263, 103, 64, 49]
14.956[67, 164, 429, 591, 233, 112, 63, 40]
14.978[64, 149, 396, 624, 240, 113, 66, 40]
15.001[63, 148, 392, 646, 240, 105, 67, 38]
15.016[62, 145, 396, 689, 245, 121, 56, 38]
15.038[60, 141, 395, 684, 243, 120, 54, 38]
15.061[63, 144, 393, 687, 256, 107, 54, 41]
15.075[63, 149, 425, 663, 230, 107, 52, 42]
15.098[59, 140, 400, 565, 225, 119, 51, 42]
15.121[61, 151, 427, 534, 199, 105, 43, 42]
15.136[62, 155, 424, 538, 200, 107, 42, 42]
15.158[62, 156, 437, 506, 182, 132, 45, 40]
15.18[49, 120, 328, 453, 189, 134, 50, 35]
15.195[50, 122, 328, 472, 220, 130, 51, 35]
15.218[47, 118, 359, 477, 237, 144, 50, 33]
15.241[75, 195, 460, 562, 261, 151, 52, 45]
15.255[76, 202, 457, 561, 260, 126, 54, 45]
15.278[82, 214, 484, 621, 285, 132, 55, 45]
15.301[85, 219, 494, 604, 254, 128, 56, 46]
15.315[85, 210, 428, 591, 248, 115, 56, 50]
15.338[62, 145, 315, 501, 277, 155, 53, 38]
15.359[63, 141, 327, 491, 281, 154, 51, 38]
15.376[61, 147, 363, 462, 266, 149, 52, 39]
15.399[57, 142, 353, 458, 266, 163, 56, 38]
15.42[56, 138, 354, 416, 256, 161, 60, 34]
15.436[85, 223, 493, 494, 261, 118, 59, 45]
15.459[86, 231, 483, 534, 260, 120, 61, 45]
15.48[83, 224, 455, 535, 312, 135, 58, 44]
15.496[83, 227, 463, 574, 312, 113, 65, 44]
15.519[96, 269, 579, 657, 323, 119, 65, 52]
15.54[76, 214, 503, 651, 285, 122, 66, 45]
15.556[81, 224, 581, 684, 279, 136, 65, 50]
15.579[82, 223, 580, 653, 177, 117, 61, 49]
15.6[85, 227, 600, 644, 198, 130, 51, 51]
15.616[72, 184, 506, 572, 185, 125, 51, 44]
15.639[73, 189, 548, 533, 176, 118, 49, 44]
15.66[65, 170, 511, 494, 198, 106, 49, 37]
15.682[89, 215, 528, 540, 207, 102, 54, 49]
15.699[96, 236, 554, 594, 205, 103, 58, 54]
15.72[101, 259, 569, 591, 252, 121, 59, 60]
15.736[103, 257, 512, 562, 242, 122, 67, 63]
15.757[111, 258, 468, 514, 239, 119, 66, 66]
15.78[91, 214, 414, 432, 231, 118, 69, 57]
15.802[82, 183, 353, 322, 258, 125, 68, 51]
15.817[75, 140, 301, 292, 213, 109, 68, 45]
15.84[68, 119, 281, 333, 212, 106, 63, 41]
15.862[50, 97, 261, 340, 204, 102, 80, 37]
15.877[53, 108, 323, 409, 227, 119, 78, 41]
15.9[61, 124, 329, 405, 193, 118, 82, 43]
15.922[79, 182, 437, 515, 224, 117, 85, 52]
15.937[83, 199, 500, 529, 241, 123, 93, 54]
15.96[92, 221, 556, 541, 257, 135, 80, 57]
15.99[99, 232, 570, 522, 243, 121, 78, 56]
15.997[93, 226, 558, 508, 248, 103, 70, 54]
16.02[82, 191, 499, 426, 232, 104, 61, 46]
16.044[76, 175, 454, 393, 270, 126, 62, 46]
16.057[66, 145, 379, 373, 277, 119, 62, 41]
16.08[51, 115, 326, 377, 276, 118, 58, 36]
16.102[52, 126, 364, 430, 280, 130, 65, 39]
16.119[40, 111, 337, 406, 284, 132, 68, 35]
16.14[65, 172, 435, 484, 286, 143, 71, 41]
16.162[74, 199, 498, 554, 274, 147, 74, 48]
16.185[88, 238, 549, 584, 276, 157, 80, 57]
16.207[88, 233, 524, 554, 257, 150, 75, 55]
16.222[92, 239, 546, 596, 252, 151, 76, 58]
16.239[89, 229, 521, 563, 188, 120, 62, 60]
16.26[85, 211, 482, 503, 173, 115, 57, 57]
16.282[75, 180, 428, 442, 193, 136, 49, 51]
16.297[77, 179, 429, 447, 202, 134, 54, 51]
16.32[74, 174, 415, 489, 178, 129, 62, 49]
16.344[63, 142, 331, 444, 187, 128, 61, 42]
16.357[58, 137, 322, 443, 195, 141, 60, 38]
16.381[76, 182, 455, 487, 285, 133, 72, 52]
16.402[76, 185, 453, 474, 284, 130, 69, 54]
16.417[76, 181, 438, 383, 287, 139, 56, 54]
16.44[72, 171, 424, 356, 279, 133, 64, 51]
16.463[111, 266, 567, 492, 323, 144, 73, 69]
16.477[98, 238, 489, 491, 249, 128, 63, 58]
16.5[103, 257, 554, 536, 276, 172, 70, 60]
16.522[102, 256, 553, 521, 280, 161, 71, 58]
16.537[102, 258, 552, 517, 280, 166, 61, 57]
16.56[62, 171, 413, 382, 220, 141, 49, 36]
16.582[80, 205, 429, 415, 246, 145, 61, 48]
16.597[71, 179, 337, 356, 217, 93, 56, 44]
16.627[76, 188, 356, 352, 217, 105, 58, 44]
16.642[90, 215, 426, 435, 255, 119, 61, 53]
16.659[87, 206, 401, 422, 251, 114, 61, 51]
16.68[96, 223, 447, 475, 268, 156, 69, 48]
16.702[97, 227, 453, 476, 267, 154, 91, 49]
16.719[97, 228, 452, 479, 297, 152, 98, 56]
16.74[97, 239, 480, 489, 285, 143, 99, 54]
16.762[99, 244, 479, 517, 290, 145, 105, 56]
16.785[78, 198, 406, 478, 266, 89, 92, 53]
16.8[75, 194, 401, 497, 256, 85, 70, 52]
16.824[72, 184, 385, 508, 237, 90, 57, 46]
16.845[58, 140, 284, 459, 217, 85, 63, 43]
16.86[54, 131, 285, 439, 215, 87, 58, 42]
16.882[50, 115, 269, 338, 163, 113, 60, 34]
16.905[51, 115, 274, 327, 165, 116, 56, 35]
16.92[52, 132, 333, 414, 160, 131, 73, 34]
16.942[48, 138, 352, 393, 169, 133, 65, 32]
16.965[73, 187, 466, 483, 233, 159, 67, 42]
16.98[75, 191, 465, 514, 252, 157, 67, 44]
17.002[74, 189, 463, 519, 256, 156, 67, 44]
17.025[75, 188, 454, 507, 248, 140, 49, 43]
17.04[76, 181, 429, 506, 241, 135, 53, 45]
17.07[60, 145, 327, 451, 189, 107, 47, 36]
17.085[55, 136, 305, 426, 175, 79, 43, 35]
17.1[58, 138, 299, 465, 173, 85, 48, 41]
17.122[51, 119, 236, 389, 157, 73, 53, 40]
17.145[66, 153, 318, 448, 215, 96, 55, 43]
17.16[61, 139, 291, 416, 207, 90, 56, 41]
17.182[82, 177, 392, 431, 216, 95, 60, 49]
17.205[83, 183, 400, 371, 226, 93, 62, 46]
17.22[91, 202, 457, 437, 226, 97, 57, 51]
17.242[93, 206, 489, 450, 169, 112, 59, 58]
17.265[94, 207, 493, 446, 183, 112, 58, 60]
17.28[94, 220, 506, 464, 196, 140, 62, 58]
17.302[91, 213, 501, 462, 199, 143, 66, 58]
17.325[86, 202, 459, 408, 208, 143, 66, 55]
17.34[71, 166, 360, 324, 213, 121, 59, 39]
17.362[70, 166, 363, 346, 196, 121, 59, 38]
17.385[42, 93, 209, 283, 169, 86, 51, 29]
17.4[40, 90, 214, 313, 141, 74, 44, 29]
17.422[40, 88, 221, 316, 124, 74, 45, 28]
17.445[47, 102, 241, 322, 119, 74, 47, 35]
17.461[43, 106, 254, 316, 145, 77, 50, 31]
17.482[43, 107, 254, 319, 167, 77, 48, 34]
17.505[50, 121, 270, 312, 245, 103, 62, 34]
17.52[49, 118, 274, 307, 246, 101, 62, 36]
17.542[47, 114, 285, 286, 251, 99, 61, 33]
17.565[48, 106, 269, 285, 235, 112, 59, 33]
17.58[49, 106, 269, 269, 219, 109, 62, 31]
17.603[45, 108, 274, 319, 139, 95, 48, 29]
17.625[41, 102, 248, 309, 133, 97, 45, 25]
17.64[38, 94, 222, 312, 139, 97, 44, 27]
17.662[35, 87, 201, 287, 148, 76, 44, 26]
17.685[58, 152, 324, 355, 183, 93, 46, 37]
17.708[56, 143, 304, 282, 182, 85, 38, 37]
17.722[64, 158, 335, 301, 233, 87, 47, 43]
17.745[62, 158, 339, 326, 251, 95, 53, 40]
17.768[64, 162, 350, 334, 256, 100, 56, 42]
17.782[49, 120, 271, 262, 242, 97, 53, 36]
17.805[52, 120, 270, 294, 276, 114, 55, 36]
17.828[46, 113, 262, 300, 259, 115, 59, 34]
17.842[51, 121, 258, 291, 232, 112, 55, 35]
17.865[49, 117, 245, 290, 221, 107, 54, 34]
17.888[44, 98, 209, 291, 225, 94, 55, 31]
17.902[41, 93, 193, 273, 211, 76, 52, 30]
17.925[39, 82, 203, 327, 202, 74, 41, 25]
17.948[33, 65, 186, 323, 198, 62, 35, 27]
17.962[49, 101, 273, 344, 209, 92, 57, 32]
17.985[52, 111, 303, 396, 259, 109, 59, 32]
18.008[50, 109, 306, 386, 240, 109, 61, 31]
18.022[67, 160, 410, 410, 252, 127, 66, 39]
18.045[70, 166, 422, 401, 262, 129, 68, 36]
18.068[66, 156, 394, 392, 280, 113, 48, 36]
18.082[65, 155, 389, 348, 219, 95, 44, 35]
18.105[68, 158, 398, 369, 234, 98, 42, 38]
18.128[52, 113, 301, 291, 278, 83, 33, 30]
18.142[51, 108, 290, 302, 289, 87, 29, 33]
18.165[46, 98, 267, 283, 280, 87, 48, 35]
18.188[48, 107, 270, 337, 293, 99, 60, 38]
18.202[51, 122, 285, 350, 290, 94, 65, 42]
18.225[50, 118, 270, 346, 252, 89, 64, 41]
18.248[56, 137, 321, 352, 233, 87, 65, 43]
18.262[54, 137, 323, 357, 217, 89, 53, 39]
18.285[55, 135, 317, 321, 209, 92, 45, 41]
18.308[51, 128, 317, 290, 188, 93, 40, 36]
18.322[55, 131, 322, 275, 162, 95, 39, 39]
18.345[45, 111, 272, 249, 150, 97, 35, 34]
18.368[48, 111, 283, 259, 150, 98, 50, 34]
18.382[42, 100, 266, 223, 132, 85, 53, 29]
18.405[54, 123, 309, 220, 217, 93, 59, 37]
18.428[49, 114, 280, 212, 217, 84, 59, 34]
18.442[78, 181, 417, 323, 315, 101, 71, 44]
18.465[78, 181, 409, 312, 317, 100, 61, 42]
18.488[88, 208, 477, 373, 326, 103, 57, 43]
18.502[88, 204, 451, 374, 279, 107, 55, 40]
18.525[88, 204, 451, 375, 272, 107, 56, 41]
18.548[64, 149, 327, 278, 167, 87, 41, 32]
18.562[62, 146, 325, 278, 156, 83, 39, 33]
18.585[50, 111, 233, 204, 160, 76, 47, 33]
18.608[34, 80, 196, 187, 159, 71, 50, 29]
18.622[37, 77, 193, 176, 169, 75, 53, 28]
18.645[36, 73, 203, 191, 158, 75, 54, 27]
18.668[35, 75, 221, 190, 156, 77, 54, 27]
18.691[36, 75, 227, 188, 149, 74, 47, 30]
18.714[41, 88, 262, 196, 144, 76, 40, 30]
18.735[42, 96, 270, 219, 144, 78, 67, 32]
18.75[41, 92, 253, 198, 138, 75, 71, 32]
18.765[42, 90, 240, 216, 140, 75, 73, 34]
18.788[39, 80, 207, 195, 121, 77, 72, 28]
18.81[38, 76, 165, 198, 139, 76, 71, 28]
18.825[35, 64, 136, 181, 130, 73, 55, 24]
18.848[37, 66, 137, 202, 135, 74, 51, 23]
18.87[35, 64, 125, 164, 130, 69, 48, 61]
18.885[36, 69, 132, 177, 136, 76, 49, 74]
18.908[35, 62, 129, 187, 172, 65, 47, 74]
18.93[37, 70, 170, 201, 171, 70, 36, 77]
18.945[36, 70, 175, 196, 175, 70, 32, 77]
18.969[46, 92, 218, 211, 205, 80, 36, 55]
18.991[45, 94, 238, 266, 220, 72, 42, 38]
19.005[43, 93, 245, 270, 215, 81, 50, 36]
19.028[44, 98, 250, 306, 219, 90, 52, 34]
19.051[45, 101, 263, 313, 232, 94, 53, 34]
19.065[37, 88, 242, 319, 223, 111, 59, 30]
19.088[34, 79, 214, 283, 222, 121, 54, 27]
19.11[35, 77, 203, 277, 191, 115, 47, 26]
19.125[32, 74, 207, 231, 199, 103, 42, 23]
19.148[32, 74, 192, 209, 184, 103, 41, 24]
19.17[36, 78, 197, 192, 205, 94, 30, 27]
19.185[38, 82, 198, 177, 192, 82, 34, 28]
19.208[35, 79, 194, 166, 189, 80, 45, 27]
19.23[35, 71, 165, 245, 227, 106, 49, 29]
19.245[36, 74, 170, 266, 233, 116, 52, 29]
19.269[31, 63, 145, 264, 202, 103, 51, 25]
19.29[27, 55, 136, 257, 196, 103, 50, 25]
19.305[27, 55, 133, 252, 193, 104, 39, 27]
19.328[27, 49, 111, 159, 113, 74, 35, 25]
19.35[29, 50, 122, 163, 167, 59, 58, 25]
19.365[41, 83, 199, 221, 191, 78, 59, 30]
19.388[43, 90, 221, 231, 198, 78, 59, 33]
19.41[44, 93, 232, 230, 224, 78, 60, 32]
19.424[47, 98, 243, 243, 237, 78, 61, 33]
19.448[43, 93, 230, 254, 204, 78, 51, 33]
19.471[38, 83, 218, 236, 195, 64, 53, 29]
19.484[36, 75, 198, 227, 207, 66, 52, 26]
19.508[40, 90, 221, 268, 195, 65, 53, 27]
19.53[36, 86, 213, 268, 194, 65, 51, 25]
19.545[38, 86, 224, 257, 201, 64, 56, 27]
19.569[32, 69, 171, 230, 182, 58, 58, 25]
19.59[33, 70, 170, 226, 159, 53, 57, 25]
19.613[29, 44, 118, 169, 137, 68, 56, 24]
19.628[29, 43, 108, 172, 124, 65, 56, 22]
19.651[25, 37, 68, 142, 115, 62, 36, 19]
19.673[27, 42, 74, 149, 155, 68, 26, 22]
19.688[26, 42, 79, 172, 157, 68, 25, 22]
19.71[24, 42, 80, 173, 159, 53, 23, 21]
19.734[22, 40, 76, 144, 150, 53, 22, 22]
19.748[21, 39, 74, 126, 126, 54, 19, 22]
19.77[17, 32, 56, 119, 70, 48, 23, 21]
19.793[17, 29, 41, 81, 67, 49, 23, 22]
19.808[18, 31, 34, 73, 63, 51, 23, 21]
19.838[21, 31, 33, 69, 69, 54, 22, 21]
19.854[22, 31, 32, 69, 73, 53, 27, 21]
19.868[24, 30, 31, 50, 69, 49, 22, 22]
19.891[23, 30, 29, 41, 62, 47, 22, 21]
19.913[21, 25, 26, 40, 60, 40, 23, 21]
19.935[21, 25, 20, 36, 53, 33, 24, 22]
19.95[19, 27, 22, 31, 60, 35, 18, 22]
19.973[18, 26, 24, 28, 57, 34, 19, 20]
19.988[18, 25, 26, 28, 54, 34, 18, 19]
20.01[19, 26, 26, 23, 55, 36, 19, 20]
20.033[20, 24, 26, 21, 54, 37, 29, 55]
20.048[26, 20, 25, 23, 37, 28, 51, 133]
20.07[30, 21, 22, 21, 34, 30, 62, 186]
20.101[33, 22, 20, 21, 32, 30, 66, 197]
20.107[35, 22, 20, 21, 28, 27, 67, 198]
20.13[33, 21, 21, 23, 27, 27, 65, 196]
20.153[29, 21, 21, 23, 29, 25, 50, 157]
20.168[25, 21, 22, 26, 29, 23, 35, 92]
20.19[21, 20, 22, 27, 28, 21, 28, 68]
20.213[19, 21, 22, 28, 25, 19, 25, 66]
20.227[30, 24, 23, 27, 26, 21, 61, 196]
20.25[30, 23, 22, 25, 24, 20, 64, 203]
20.273[31, 25, 22, 27, 29, 22, 67, 207]
20.287[31, 24, 24, 27, 30, 19, 68, 210]
20.311[32, 23, 23, 27, 33, 22, 68, 211]
20.333[28, 20, 22, 29, 34, 22, 65, 193]
20.355[30, 21, 22, 28, 37, 24, 77, 223]
20.371[29, 19, 23, 26, 34, 25, 75, 222]
20.392[30, 19, 22, 24, 35, 25, 76, 225]
20.415[29, 20, 23, 22, 32, 22, 76, 225]
20.431[24, 20, 23, 20, 31, 21, 55, 151]
20.452[22, 20, 23, 21, 24, 19, 31, 82]
20.475[22, 20, 20, 18, 23, 16, 31, 68]
20.491[23, 21, 22, 33, 36, 20, 37, 121]
20.512[23, 21, 22, 36, 43, 22, 39, 125]
20.534[24, 21, 22, 37, 50, 24, 39, 124]
20.551[26, 21, 23, 41, 59, 26, 44, 145]
20.572[29, 21, 23, 44, 68, 26, 48, 179]
20.595[27, 21, 21, 38, 62, 24, 43, 150]
20.611[28, 18, 23, 42, 71, 24, 42, 149]
20.632[27, 18, 24, 43, 69, 25, 42, 149]
20.657[23, 17, 22, 40, 64, 24, 37, 130]
20.671[21, 16, 23, 38, 55, 22, 30, 79]
20.692[21, 17, 22, 36, 54, 23, 25, 56]
20.715[18, 19, 19, 28, 36, 21, 27, 47]
20.731[24, 19, 18, 29, 55, 24, 42, 138]
20.752[28, 22, 20, 32, 57, 25, 51, 178]
20.782[27, 22, 21, 34, 59, 26, 52, 184]
20.791[28, 23, 21, 34, 59, 25, 53, 187]
20.82[29, 23, 21, 34, 58, 27, 52, 189]
20.835[25, 24, 23, 31, 36, 22, 41, 138]
20.851[22, 21, 23, 28, 31, 21, 29, 80]
20.874[21, 22, 22, 25, 43, 23, 29, 63]
20.895[19, 21, 23, 23, 43, 22, 27, 55]
20.911[18, 19, 24, 24, 45, 20, 26, 44]
20.932[19, 19, 22, 23, 47, 20, 24, 34]
20.955[18, 19, 21, 21, 46, 20, 23, 27]
20.971[21, 20, 20, 19, 32, 17, 21, 22]
20.992[23, 244, 20, 18, 31, 18, 20, 20]
21.014[23, 298, 21, 23, 31, 20, 20, 20]
21.031[25, 304, 24, 35, 44, 23, 31, 78]
21.052[25, 305, 25, 49, 78, 25, 44, 130]
21.075[25, 307, 26, 51, 83, 27, 47, 135]
21.091[24, 188, 25, 54, 86, 28, 48, 140]
21.112[24, 78, 26, 53, 87, 30, 49, 141]
21.135[21, 51, 26, 64, 138, 29, 43, 121]
21.151[21, 42, 28, 62, 132, 30, 29, 65]
21.172[21, 32, 27, 61, 133, 29, 24, 54]
21.195[20, 23, 28, 59, 134, 28, 22, 42]
21.21[20, 23, 27, 59, 134, 26, 22, 38]
21.233[21, 21, 26, 39, 75, 24, 23, 31]
21.255[21, 22, 27, 62, 114, 29, 22, 23]
21.27[22, 21, 28, 63, 113, 31, 24, 23]
21.292[21, 20, 29, 65, 114, 31, 24, 22]
21.315[22, 20, 28, 65, 116, 32, 24, 21]
21.33[21, 21, 28, 67, 116, 32, 23, 20]
21.352[20, 23, 32, 85, 137, 34, 23, 22]
21.374[21, 24, 35, 98, 163, 35, 23, 19]
21.39[22, 25, 35, 101, 173, 38, 23, 21]
21.412[23, 24, 36, 101, 172, 38, 24, 21]
21.434[24, 24, 35, 101, 173, 38, 23, 20]
21.449[24, 22, 29, 67, 123, 31, 22, 21]
21.472[23, 22, 22, 43, 83, 27, 20, 21]
21.502[23, 23, 19, 33, 51, 23, 19, 19]
21.517[22, 24, 23, 50, 79, 25, 18, 19]
21.532[22, 24, 27, 76, 134, 31, 19, 19]
21.563[21, 25, 28, 81, 143, 33, 20, 18]
21.577[18, 25, 31, 82, 144, 33, 23, 19]
21.592[17, 23, 31, 83, 147, 33, 25, 20]
21.615[20, 22, 28, 75, 136, 31, 25, 20]
21.637[20, 22, 24, 58, 100, 28, 23, 22]
21.652[21, 20, 25, 61, 90, 26, 21, 22]
21.675[22, 20, 24, 63, 91, 26, 19, 22]
21.697[21, 22, 25, 61, 86, 25, 20, 21]
21.713[19, 21, 24, 58, 80, 23, 20, 19]
21.735[20, 21, 23, 46, 50, 21, 23, 18]
21.765[19, 20, 25, 33, 40, 19, 23, 18]
21.78[20, 21, 25, 31, 60, 19, 23, 17]
21.794[22, 21, 26, 36, 66, 21, 21, 17]
21.817[22, 23, 28, 49, 66, 23, 22, 18]
21.832[21, 22, 28, 50, 64, 22, 20, 18]
21.854[20, 22, 25, 49, 64, 22, 21, 16]
21.877[21, 20, 25, 46, 42, 21, 19, 16]
21.892[19, 19, 22, 44, 35, 21, 19, 17]
21.915[18, 18, 22, 29, 37, 21, 18, 18]
21.937[19, 18, 21, 29, 38, 20, 16, 19]
21.953[20, 21, 22, 29, 36, 20, 16, 19]
21.983[19, 21, 21, 27, 34, 19, 19, 19]
21.997[21, 23, 21, 25, 30, 19, 20, 19]
22.012[21, 23, 21, 27, 26, 20, 20, 20]
22.035[20, 23, 23, 26, 24, 20, 21, 18]
22.057[21, 23, 22, 24, 24, 22, 21, 20]
22.072[21, 25, 21, 24, 24, 23, 18, 19]
22.094[20, 22, 21, 24, 22, 22, 17, 19]
22.117[19, 22, 23, 24, 25, 20, 18, 19]
22.132[19, 23, 22, 23, 26, 20, 19, 20]
22.154[19, 22, 23, 24, 28, 19, 17, 18]
22.177[19, 22, 24, 25, 30, 18, 19, 18]
22.192[20, 22, 23, 26, 31, 19, 20, 18]
22.214[21, 23, 22, 24, 29, 17, 18, 17]
22.237[21, 21, 22, 27, 29, 17, 19, 21]
22.252[20, 22, 20, 26, 28, 16, 19, 23]
22.275[18, 20, 19, 25, 26, 17, 19, 24]
22.297[18, 23, 21, 24, 27, 18, 20, 23]
22.312[19, 22, 22, 23, 26, 18, 19, 24]
22.336[18, 22, 24, 20, 27, 17, 18, 20]
22.357[18, 22, 24, 19, 27, 18, 20, 18]
22.372[19, 23, 24, 20, 27, 19, 20, 18]
22.395[18, 20, 23, 22, 25, 19, 18, 22]
22.417[19, 20, 21, 21, 25, 19, 18, 22]
22.44[20, 20, 20, 21, 21, 19, 18, 22]
22.455[23, 20, 23, 21, 20, 20, 16, 22]
22.478[23, 19, 24, 23, 20, 19, 13, 22]
22.499[23, 20, 23, 20, 22, 19, 16, 19]
22.515[22, 20, 25, 21, 23, 20, 18, 18]
22.537[21, 21, 24, 22, 23, 21, 17, 16]
22.559[20, 21, 22, 22, 26, 20, 18, 17]
22.574[19, 23, 23, 21, 25, 20, 18, 19]
22.597[19, 23, 22, 22, 23, 19, 17, 19]
22.619[20, 23, 23, 21, 22, 19, 17, 21]
22.634[20, 21, 22, 20, 23, 17, 17, 21]
22.657[19, 23, 21, 21, 23, 16, 20, 22]
22.68[20, 22, 20, 20, 24, 16, 19, 21]
22.694[20, 21, 23, 21, 26, 17, 20, 24]
22.717[19, 22, 21, 20, 28, 17, 20, 23]
22.739[20, 22, 23, 21, 29, 17, 22, 24]
22.763[19, 21, 23, 22, 28, 18, 20, 23]
22.777[17, 19, 22, 21, 28, 20, 22, 20]
22.799[17, 20, 21, 20, 32, 18, 20, 16]
22.815[17, 22, 20, 22, 32, 19, 20, 17]
22.837[17, 21, 21, 22, 32, 19, 19, 17]
22.86[18, 21, 21, 21, 34, 20, 19, 17]
22.875[20, 22, 21, 22, 37, 20, 19, 18]
22.897[20, 22, 21, 22, 33, 20, 20, 19]
22.919[19, 19, 23, 20, 33, 21, 19, 18]
22.934[19, 20, 20, 22, 38, 22, 19, 18]
22.957[19, 22, 21, 21, 37, 21, 20, 19]
22.979[17, 21, 21, 22, 33, 20, 19, 20]
22.994[18, 21, 21, 23, 33, 20, 22, 19]
23.017[18, 22, 21, 24, 34, 18, 24, 20]
23.04[18, 22, 23, 23, 24, 17, 24, 19]
23.054[19, 21, 21, 23, 22, 17, 23, 18]
23.077[20, 22, 23, 21, 21, 18, 23, 17]
23.102[19, 22, 23, 20, 21, 19, 23, 17]
23.114[22, 21, 22, 20, 18, 19, 21, 17]
23.137[22, 22, 24, 19, 19, 19, 20, 17]
23.16[21, 22, 25, 20, 18, 19, 22, 18]
23.175[20, 22, 22, 20, 18, 18, 21, 21]
23.197[21, 21, 22, 19, 18, 17, 20, 20]
23.228[18, 21, 23, 19, 18, 18, 19, 19]
23.234[18, 19, 23, 19, 19, 16, 21, 19]
23.257[17, 18, 23, 20, 20, 18, 20, 18]
23.28[17, 19, 25, 21, 20, 20, 21, 17]
23.295[19, 20, 26, 20, 19, 19, 19, 19]
23.317[19, 22, 24, 21, 19, 19, 21, 19]
23.34[18, 22, 22, 20, 17, 19, 19, 19]
23.354[19, 23, 21, 19, 19, 17, 20, 18]
23.377[21, 22, 19, 20, 20, 15, 19, 19]
23.4[19, 22, 19, 20, 21, 16, 20, 18]
23.423[20, 20, 22, 19, 21, 16, 20, 17]
23.446[21, 23, 23, 23, 22, 18, 21, 18]
23.46[23, 22, 22, 26, 22, 18, 20, 18]
23.483[22, 24, 22, 28, 22, 18, 21, 17]
23.497[22, 24, 21, 30, 22, 18, 21, 15]
23.52[22, 25, 18, 31, 23, 18, 20, 17]
23.543[21, 22, 19, 29, 23, 17, 19, 17]
23.557[18, 23, 19, 26, 23, 17, 20, 18]
23.58[18, 20, 20, 23, 22, 16, 21, 18]
23.603[18, 19, 19, 21, 22, 16, 19, 21]
23.617[19, 24, 19, 19, 20, 16, 20, 21]
23.64[19, 23, 19, 20, 22, 15, 20, 23]
23.662[18, 22, 21, 23, 22, 16, 20, 24]
23.677[16, 24, 23, 21, 22, 17, 19, 23]
23.7[17, 27, 24, 21, 21, 17, 20, 21]
23.723[15, 23, 25, 21, 23, 16, 19, 21]
23.737[16, 23, 27, 20, 20, 18, 19, 19]
23.76[16, 25, 25, 18, 17, 19, 20, 18]
23.783[17, 23, 22, 18, 19, 19, 20, 20]
23.797[16, 23, 24, 20, 18, 19, 19, 20]
23.821[16, 23, 22, 19, 17, 20, 19, 19]
23.843[17, 23, 21, 18, 22, 20, 19, 20]
23.857[18, 22, 21, 18, 23, 20, 16, 18]
23.88[17, 23, 25, 17, 22, 18, 16, 17]
23.903[19, 20, 24, 17, 24, 18, 18, 17]
23.917[20, 20, 24, 20, 23, 17, 19, 19]
23.94[20, 20, 22, 21, 21, 16, 18, 20]
23.963[20, 22, 23, 21, 21, 17, 19, 22]
23.977[22, 23, 19, 23, 21, 17, 18, 22]
24.0[22, 23, 18, 22, 21, 18, 18, 22]
24.023[21, 25, 19, 21, 21, 18, 21, 20]
24.037[19, 25, 20, 21, 21, 18, 23, 21]
24.06[18, 23, 19, 20, 21, 18, 23, 20]
24.083[17, 24, 21, 20, 20, 19, 25, 19]
24.097[16, 25, 22, 19, 18, 18, 25, 19]
24.12[16, 23, 22, 19, 19, 19, 23, 20]
24.143[16, 22, 22, 20, 18, 19, 20, 18]
24.157[18, 21, 23, 20, 17, 18, 21, 18]
24.18[18, 19, 22, 18, 17, 18, 21, 18]
24.203[19, 20, 22, 19, 18, 17, 19, 18]
24.217[19, 20, 23, 21, 17, 17, 20, 18]
24.24[21, 21, 24, 19, 18, 18, 21, 20]
24.263[22, 22, 24, 19, 18, 18, 20, 18]
24.277[22, 23, 25, 21, 18, 17, 19, 19]
24.3[21, 25, 26, 22, 17, 18, 19, 22]
24.323[23, 24, 26, 19, 19, 19, 16, 24]
24.345[22, 24, 25, 20, 19, 18, 17, 23]
24.36[21, 23, 24, 20, 19, 18, 19, 23]
24.382[20, 22, 21, 20, 18, 20, 20, 24]
24.405[20, 19, 20, 20, 18, 21, 19, 22]
24.42[17, 21, 19, 20, 18, 20, 20, 19]
24.443[19, 22, 18, 20, 18, 19, 20, 19]
24.465[18, 22, 19, 20, 18, 22, 19, 21]
24.48[18, 24, 20, 18, 21, 20, 19, 19]
24.503[20, 21, 19, 19, 20, 19, 21, 20]
24.525[20, 20, 18, 19, 19, 20, 21, 23]
24.54[18, 21, 19, 20, 18, 22, 21, 23]
24.563[20, 20, 18, 20, 18, 19, 21, 23]
24.585[18, 18, 19, 20, 17, 20, 20, 24]
24.601[18, 21, 19, 19, 18, 21, 18, 22]
24.623[18, 21, 19, 19, 19, 22, 18, 18]
24.645[19, 21, 18, 17, 19, 21, 18, 19]
24.66[19, 19, 18, 17, 18, 21, 17, 19]
24.683[19, 21, 18, 18, 17, 20, 19, 18]
24.705[18, 21, 17, 17, 17, 19, 19, 19]
24.72[19, 21, 18, 18, 17, 19, 20, 20]
24.743[20, 21, 19, 17, 17, 19, 19, 20]
24.765[20, 22, 21, 20, 19, 19, 19, 21]
24.78[20, 21, 22, 19, 19, 19, 19, 21]
24.81[19, 20, 23, 18, 21, 20, 19, 20]
24.825[18, 21, 22, 18, 22, 18, 18, 18]
24.84[17, 20, 21, 21, 21, 19, 18, 19]
24.863[17, 21, 21, 19, 19, 21, 19, 21]
24.885[18, 20, 22, 20, 20, 22, 18, 22]
24.9[18, 19, 22, 21, 20, 21, 20, 22]
24.923[19, 18, 22, 22, 20, 21, 20, 24]
24.945[19, 18, 24, 21, 22, 22, 20, 23]
24.96[20, 17, 23, 21, 23, 20, 21, 19]
24.983[19, 19, 21, 21, 22, 22, 21, 19]
25.005[19, 19, 22, 21, 21, 22, 18, 18]
25.02[22, 19, 22, 22, 20, 20, 19, 19]
25.043[21, 18, 21, 21, 19, 19, 19, 20]
25.065[20, 19, 21, 20, 18, 19, 19, 21]
25.08[20, 18, 22, 21, 18, 17, 19, 21]
25.11[22, 19, 20, 23, 20, 17, 21, 21]
25.126[19, 21, 20, 21, 21, 18, 21, 18]
25.148[20, 21, 19, 23, 23, 19, 22, 17]
25.163[21, 19, 20, 24, 24, 20, 21, 16]
25.185[23, 20, 20, 23, 24, 21, 22, 17]
25.2[22, 21, 20, 21, 23, 21, 22, 18]
25.223[22, 18, 21, 21, 21, 21, 21, 18]
25.245[22, 18, 20, 19, 21, 20, 21, 18]
25.268[20, 20, 19, 19, 18, 21, 21, 19]
25.283[17, 19, 19, 18, 19, 19, 20, 18]
25.305[17, 19, 20, 18, 19, 18, 18, 17]
25.328[15, 20, 20, 19, 19, 20, 20, 18]
25.344[16, 20, 20, 17, 19, 20, 23, 17]
25.365[17, 22, 19, 19, 20, 20, 23, 18]
25.387[18, 21, 20, 20, 21, 20, 23, 18]
25.403[18, 21, 18, 20, 20, 21, 23, 21]
25.426[19, 21, 18, 19, 20, 21, 22, 21]
25.447[20, 23, 18, 20, 20, 19, 19, 21]
25.464[20, 22, 19, 19, 21, 18, 21, 21]
25.485[19, 23, 20, 18, 19, 19, 19, 21]
25.507[19, 23, 21, 20, 22, 21, 22, 19]
25.523[19, 22, 20, 19, 21, 20, 22, 20]
25.545[18, 19, 23, 20, 20, 20, 22, 20]
25.567[31, 19, 25, 21, 23, 19, 20, 18]
25.583[33, 20, 24, 22, 25, 19, 23, 18]
25.605[35, 18, 23, 19, 22, 17, 21, 19]
25.627[35, 19, 23, 18, 24, 17, 21, 17]
25.643[35, 19, 23, 18, 23, 17, 21, 19]
25.665[24, 20, 22, 25, 20, 17, 23, 20]
25.687[21, 22, 23, 25, 19, 19, 22, 21]
25.703[18, 21, 23, 28, 21, 18, 22, 22]
25.724[18, 22, 22, 28, 18, 19, 22, 21]
25.747[17, 21, 22, 28, 21, 21, 27, 20]
25.763[19, 22, 23, 24, 22, 20, 25, 19]
25.784[25, 20, 21, 22, 22, 18, 24, 21]
25.815[24, 21, 22, 20, 22, 18, 23, 20]
25.824[24, 20, 23, 20, 24, 17, 21, 22]
25.844[25, 21, 24, 24, 22, 16, 16, 21]
25.875[23, 19, 23, 22, 22, 15, 16, 22]
25.883[16, 20, 25, 21, 21, 20, 19, 19]
25.905[19, 19, 25, 20, 27, 22, 22, 19]
25.927[22, 19, 24, 29, 28, 23, 23, 18]
25.944[21, 18, 22, 26, 28, 24, 22, 18]
25.964[24, 23, 22, 29, 28, 25, 32, 22]
25.987[24, 23, 19, 31, 29, 23, 31, 24]
26.003[22, 23, 20, 31, 24, 21, 30, 24]
26.025[24, 27, 20, 27, 23, 22, 30, 24]
26.047[24, 27, 20, 45, 26, 23, 30, 25]
26.063[25, 24, 19, 44, 28, 23, 21, 40]
26.085[25, 24, 21, 43, 29, 25, 22, 41]
26.107[27, 26, 22, 43, 27, 25, 27, 44]
26.129[27, 22, 23, 41, 32, 23, 38, 46]
26.145[28, 21, 22, 19, 31, 21, 42, 46]
26.167[29, 22, 23, 22, 35, 19, 46, 31]
26.184[30, 21, 24, 22, 38, 15, 46, 28]
26.205[28, 19, 22, 23, 38, 18, 43, 26]
26.227[24, 19, 20, 24, 34, 19, 34, 19]
26.249[23, 26, 25, 30, 33, 23, 30, 19]
26.265[22, 26, 30, 29, 26, 26, 27, 26]
26.287[23, 26, 32, 30, 21, 27, 34, 28]
26.309[23, 30, 35, 32, 25, 25, 33, 29]
26.325[25, 30, 35, 32, 31, 24, 37, 29]
26.347[26, 27, 32, 29, 31, 22, 38, 39]
26.369[25, 28, 26, 32, 35, 20, 42, 36]
26.385[26, 29, 24, 34, 35, 26, 37, 36]
26.407[26, 26, 24, 32, 32, 31, 36, 37]
26.429[26, 25, 38, 33, 25, 32, 33, 39]
26.445[27, 29, 141, 31, 27, 32, 34, 29]
26.467[29, 29, 173, 31, 21, 31, 28, 35]
26.49[28, 29, 177, 28, 22, 25, 30, 35]
26.505[30, 30, 177, 28, 23, 21, 31, 35]
26.527[29, 34, 175, 27, 25, 22, 32, 41]
26.549[28, 29, 111, 29, 24, 21, 29, 40]
26.565[27, 37, 55, 25, 23, 21, 28, 35]
26.587[27, 37, 37, 30, 23, 24, 26, 34]
26.61[32, 36, 34, 30, 23, 24, 29, 35]
26.625[31, 39, 36, 33, 21, 25, 28, 34]
26.648[33, 39, 35, 31, 21, 30, 27, 34]
26.669[36, 31, 26, 33, 24, 30, 26, 35]
26.685[37, 31, 25, 31, 26, 29, 27, 35]
26.707[33, 30, 31, 34, 24, 30, 27, 33]
26.729[32, 23, 34, 31, 28, 27, 29, 26]
26.744[30, 26, 32, 32, 29, 28, 29, 28]
26.775[27, 27, 32, 31, 27, 29, 29, 26]
26.79[25, 27, 35, 27, 26, 28, 29, 27]
26.804[23, 31, 39, 23, 27, 26, 28, 25]
26.827[29, 30, 33, 28, 27, 29, 26, 27]
26.85[28, 29, 34, 29, 27, 24, 30, 29]
26.865[25, 28, 35, 29, 32, 24, 31, 31]
26.887[24, 28, 33, 30, 34, 26, 30, 36]
26.909[25, 31, 27, 34, 33, 28, 29, 38]
26.925[26, 30, 32, 35, 30, 26, 27, 41]
26.947[26, 35, 30, 38, 30, 27, 27, 41]
26.969[30, 33, 30, 38, 25, 27, 26, 40]
26.984[30, 33, 31, 38, 21, 25, 26, 34]
27.007[31, 29, 29, 33, 24, 25, 30, 34]
27.029[27, 29, 30, 32, 26, 25, 31, 31]
27.052[28, 22, 31, 25, 28, 25, 30, 27]
27.067[26, 24, 29, 25, 31, 23, 29, 25]
27.09[32, 20, 30, 32, 32, 21, 40, 28]
27.105[33, 22, 31, 32, 29, 22, 46, 25]
27.127[34, 26, 25, 28, 28, 20, 46, 26]
27.149[35, 26, 25, 27, 25, 21, 52, 26]
27.172[34, 26, 27, 29, 23, 23, 53, 27]
27.187[28, 29, 28, 22, 22, 25, 48, 28]
27.209[25, 26, 26, 24, 23, 25, 40, 29]
27.232[24, 22, 29, 24, 24, 25, 40, 26]
27.247[26, 25, 27, 26, 25, 25, 31, 28]
27.269[25, 23, 25, 23, 24, 25, 33, 27]
27.292[25, 20, 23, 23, 25, 22, 32, 24]
27.307[26, 23, 31, 22, 27, 23, 31, 25]
27.329[24, 23, 28, 22, 27, 21, 30, 24]
27.352[24, 24, 31, 20, 30, 20, 30, 22]
27.367[23, 25, 34, 21, 30, 19, 25, 26]
27.389[28, 26, 34, 23, 29, 24, 18, 26]
27.413[27, 30, 27, 21, 28, 25, 22, 25]
27.427[28, 29, 28, 25, 28, 28, 27, 29]
27.449[25, 27, 26, 25, 24, 27, 27, 29]
27.472[26, 31, 30, 24, 23, 28, 28, 29]
27.487[22, 31, 29, 23, 23, 25, 29, 28]
27.509[23, 26, 28, 26, 22, 26, 27, 30]
27.532[24, 27, 28, 25, 23, 23, 22, 26]
27.547[24, 29, 28, 23, 23, 26, 23, 26]
27.569[24, 24, 19, 23, 23, 28, 22, 24]
27.592[25, 25, 20, 23, 25, 27, 23, 28]
27.607[25, 26, 23, 20, 23, 27, 26, 27]
27.629[26, 28, 22, 23, 26, 26, 26, 29]
27.652[25, 25, 25, 24, 24, 26, 34, 28]
27.667[24, 25, 25, 23, 27, 23, 34, 28]
27.689[26, 25, 32, 23, 24, 29, 33, 26]
27.712[24, 27, 30, 24, 28, 27, 30, 26]
27.727[21, 26, 32, 21, 25, 28, 37, 30]
27.749[27, 27, 29, 22, 27, 27, 29, 30]
27.772[24, 28, 32, 23, 27, 28, 30, 29]
27.787[25, 28, 25, 24, 27, 23, 34, 28]
27.809[23, 26, 25, 22, 23, 24, 34, 27]
27.832[25, 23, 24, 24, 31, 27, 26, 20]
27.847[21, 23, 25, 26, 30, 26, 26, 21]
27.869[24, 23, 20, 24, 27, 26, 27, 22]
27.892[22, 27, 19, 24, 29, 27, 25, 22]
27.907[23, 26, 19, 24, 30, 26, 26, 22]
27.929[21, 26, 18, 23, 22, 21, 30, 22]
27.952[22, 26, 21, 20, 23, 19, 34, 23]
27.967[23, 26, 24, 20, 23, 22, 31, 21]
27.989[23, 24, 24, 18, 22, 22, 31, 21]
28.012[22, 24, 25, 21, 24, 24, 31, 22]
28.027[23, 24, 26, 19, 23, 24, 28, 23]
28.049[21, 22, 27, 22, 23, 26, 27, 20]
28.072[21, 24, 27, 23, 23, 21, 29, 22]
28.088[22, 21, 28, 23, 25, 21, 28, 23]
28.109[21, 21, 27, 22, 25, 21, 27, 21]
28.132[22, 23, 28, 25, 26, 20, 26, 19]
28.156[22, 22, 25, 22, 25, 17, 23, 24]
28.169[18, 23, 25, 23, 26, 22, 23, 23]
28.192[19, 22, 24, 24, 24, 23, 21, 22]
28.217[21, 23, 23, 23, 23, 21, 24, 25]
28.229[22, 26, 23, 23, 22, 22, 24, 27]
28.26[22, 26, 22, 23, 23, 22, 23, 23]
28.275[22, 23, 22, 24, 22, 19, 23, 24]
28.289[21, 24, 21, 24, 20, 17, 56, 24]
28.312[22, 26, 24, 23, 20, 18, 70, 21]
28.335[20, 24, 24, 23, 22, 18, 71, 22]
28.349[23, 24, 22, 23, 24, 22, 74, 22]
28.372[24, 23, 24, 24, 25, 21, 75, 20]
28.395[24, 23, 23, 22, 24, 22, 55, 19]
28.409[22, 21, 24, 24, 25, 23, 36, 22]
28.433[21, 20, 21, 23, 23, 23, 34, 20]
28.455[22, 20, 22, 23, 22, 20, 28, 24]
28.469[20, 26, 21, 20, 22, 21, 27, 25]
28.492[19, 26, 24, 20, 22, 22, 26, 27]
28.515[22, 26, 22, 19, 22, 20, 26, 24]
28.538[23, 27, 23, 18, 21, 22, 24, 27]
28.553[21, 27, 24, 19, 19, 22, 24, 23]
28.575[22, 24, 22, 19, 18, 20, 24, 22]
28.589[23, 23, 19, 20, 19, 20, 22, 20]
28.613[19, 25, 21, 20, 22, 23, 18, 21]
28.635[19, 23, 21, 21, 23, 19, 24, 17]
28.65[19, 24, 22, 19, 23, 19, 24, 18]
28.673[19, 23, 21, 19, 22, 21, 23, 21]
28.695[20, 22, 22, 19, 22, 21, 24, 21]
28.709[20, 21, 22, 18, 20, 20, 26, 22]
28.733[18, 20, 20, 21, 20, 20, 20, 23]
28.755[19, 23, 19, 22, 21, 22, 20, 22]
28.77[19, 22, 21, 23, 24, 23, 20, 20]
28.793[18, 23, 19, 23, 24, 21, 18, 19]
28.815[22, 23, 21, 24, 24, 19, 19, 19]
28.83[24, 24, 22, 22, 24, 21, 18, 20]
28.853[23, 24, 22, 23, 23, 21, 17, 19]
28.876[23, 24, 21, 21, 20, 18, 21, 20]
28.889[23, 24, 23, 22, 21, 20, 22, 20]
28.913[21, 23, 22, 21, 18, 20, 23, 18]
28.935[18, 23, 21, 20, 19, 19, 26, 18]
28.958[20, 20, 20, 19, 21, 18, 26, 18]
28.973[20, 22, 21, 22, 20, 19, 23, 16]
28.995[20, 22, 18, 21, 21, 19, 23, 15]
29.009[18, 22, 17, 23, 21, 19, 21, 16]
29.033[19, 23, 19, 23, 18, 20, 18, 17]
29.056[18, 23, 19, 22, 16, 20, 18, 18]
29.078[17, 20, 19, 21, 16, 20, 18, 20]
29.093[17, 20, 21, 23, 16, 24, 17, 19]
29.115[18, 23, 22, 22, 16, 23, 19, 20]
29.138[18, 20, 21, 21, 19, 21, 20, 21]
29.153[17, 20, 22, 22, 19, 21, 22, 22]
29.175[19, 20, 21, 21, 21, 22, 20, 21]
29.198[19, 20, 22, 18, 22, 19, 19, 22]
29.213[19, 20, 21, 19, 22, 20, 22, 21]
29.235[21, 20, 20, 23, 21, 22, 23, 21]
29.258[21, 21, 21, 22, 22, 22, 22, 20]
29.273[20, 24, 22, 21, 20, 22, 22, 22]
29.295[19, 24, 21, 22, 20, 22, 24, 21]
29.318[19, 23, 21, 22, 20, 21, 20, 22]
29.333[18, 24, 22, 19, 19, 20, 20, 20]
29.355[16, 23, 22, 20, 17, 20, 20, 20]
29.378[16, 20, 21, 21, 19, 21, 21, 18]
29.393[19, 23, 20, 19, 20, 20, 20, 19]
29.415[20, 22, 21, 19, 20, 20, 20, 18]
29.438[19, 22, 23, 18, 20, 20, 19, 20]
29.453[19, 23, 20, 17, 21, 20, 19, 21]
29.476[21, 23, 22, 17, 20, 19, 23, 21]
29.498[22, 20, 24, 18, 20, 19, 22, 20]
29.513[20, 19, 23, 18, 19, 20, 22, 22]
29.535[20, 19, 22, 18, 22, 19, 23, 21]
29.558[22, 19, 23, 18, 22, 19, 24, 21]
29.572[21, 19, 21, 20, 22, 21, 19, 19]
29.595[19, 20, 20, 23, 22, 20, 19, 21]
29.618[21, 21, 19, 22, 23, 20, 18, 19]
29.632[22, 21, 21, 22, 21, 23, 17, 19]
29.656[20, 22, 19, 22, 22, 22, 16, 18]
29.678[23, 21, 21, 22, 23, 21, 16, 18]
29.692[22, 21, 21, 18, 22, 21, 18, 17]
29.715[19, 19, 23, 20, 22, 20, 19, 18]
29.737[20, 24, 21, 22, 22, 17, 19, 18]
29.752[20, 22, 22, 21, 23, 18, 19, 18]
29.775[20, 23, 22, 20, 22, 18, 19, 17]
29.798[22, 23, 22, 21, 26, 21, 18, 18]
29.812[23, 24, 21, 21, 25, 21, 17, 16]
29.835[21, 18, 20, 18, 24, 19, 17, 15]
29.857[21, 20, 20, 18, 23, 19, 21, 16]
29.872[20, 19, 20, 19, 23, 20, 22, 18]
29.895[20, 18, 19, 18, 18, 17, 21, 18]
29.918[19, 19, 22, 18, 20, 19, 24, 18]
29.932[20, 20, 22, 19, 20, 20, 23, 21]
29.955[20, 19, 22, 21, 19, 21, 20, 20]
29.977[19, 19, 21, 20, 19, 19, 22, 19]
29.992[18, 19, 22, 20, 19, 21, 22, 20]
30.015[18, 18, 20, 21, 16, 20, 20, 21]
30.038[20, 17, 21, 20, 16, 19, 21, 19]
30.06[19, 18, 21, 21, 17, 18, 21, 19]
30.075[19, 18, 24, 21, 19, 19, 19, 19]
30.097[19, 21, 22, 22, 20, 17, 20, 18]
30.121[21, 20, 24, 21, 21, 19, 21, 19]
30.135[19, 19, 23, 22, 21, 18, 22, 20]
30.158[21, 20, 24, 20, 21, 21, 23, 21]
30.18[19, 22, 23, 21, 20, 21, 24, 22]
30.195[19, 19, 23, 20, 20, 20, 23, 21]
30.218[20, 19, 21, 19, 18, 18, 23, 19]
30.24[22, 21, 21, 21, 21, 20, 20, 17]
30.255[20, 22, 20, 21, 21, 18, 18, 18]
30.278[22, 20, 23, 18, 20, 18, 17, 18]
30.3[22, 24, 24, 21, 20, 35, 60, 25]
30.315[21, 24, 26, 22, 24, 43, 68, 27]
30.339[22, 23, 27, 25, 25, 45, 71, 32]
30.359[26, 36, 53, 67, 46, 57, 73, 33]
30.376[28, 40, 60, 74, 107, 62, 74, 35]
30.397[28, 40, 68, 124, 333, 100, 57, 33]
30.419[31, 51, 90, 149, 366, 101, 68, 34]
30.436[38, 82, 162, 211, 390, 121, 72, 37]
30.457[43, 95, 222, 292, 422, 155, 80, 43]
30.479[42, 102, 228, 308, 431, 167, 91, 43]
30.496[42, 102, 232, 313, 320, 179, 100, 45]
30.519[41, 100, 232, 306, 304, 193, 134, 43]
30.539[39, 102, 234, 321, 312, 189, 178, 55]
30.556[33, 92, 184, 285, 280, 170, 211, 59]
30.586[31, 84, 180, 285, 264, 167, 214, 67]
30.599[40, 95, 185, 272, 271, 141, 232, 69]
30.616[44, 104, 194, 282, 267, 134, 215, 72]
30.646[40, 88, 148, 271, 244, 132, 181, 61]
30.661[40, 83, 145, 249, 239, 126, 136, 54]
30.676[45, 94, 159, 256, 232, 120, 129, 46]
30.698[40, 88, 152, 253, 197, 114, 83, 42]
30.719[36, 76, 158, 276, 200, 106, 76, 40]
30.75[39, 72, 157, 271, 182, 116, 75, 45]
30.757[39, 74, 161, 281, 210, 124, 79, 44]
30.779[49, 110, 272, 313, 279, 124, 78, 47]
30.796[47, 108, 280, 313, 281, 131, 75, 47]
30.817[51, 118, 297, 307, 274, 127, 86, 44]
30.839[59, 147, 367, 333, 304, 144, 88, 42]
30.856[65, 166, 426, 359, 300, 144, 88, 42]
30.885[62, 165, 438, 384, 321, 156, 119, 42]
30.899[63, 168, 449, 432, 343, 171, 123, 40]
30.916[64, 227, 471, 441, 363, 174, 115, 45]
30.937[73, 240, 504, 482, 374, 157, 121, 50]
30.959[83, 276, 539, 514, 399, 159, 128, 51]
30.982[127, 358, 640, 612, 352, 163, 163, 74]
30.997[160, 443, 786, 694, 451, 178, 180, 96]
31.019[179, 464, 938, 846, 451, 182, 183, 102]
31.042[191, 485, 957, 866, 437, 182, 187, 110]
31.057[195, 474, 961, 858, 428, 202, 189, 113]
31.079[169, 414, 879, 794, 427, 197, 144, 98]
31.102[150, 350, 817, 730, 323, 182, 123, 87]
31.117[151, 338, 737, 684, 351, 188, 127, 92]
31.14[158, 373, 836, 837, 381, 200, 126, 94]
31.162[152, 369, 829, 888, 376, 199, 126, 91]
31.177[153, 371, 833, 905, 403, 196, 123, 92]
31.201[153, 376, 836, 918, 390, 190, 119, 90]
31.222[128, 325, 732, 822, 363, 190, 104, 73]
31.237[87, 222, 534, 640, 356, 174, 87, 55]
31.259[78, 204, 493, 571, 332, 140, 81, 49]
31.282[85, 217, 526, 588, 288, 138, 73, 51]
31.312[69, 174, 437, 611, 298, 152, 81, 42]
31.319[86, 208, 497, 648, 288, 147, 87, 47]
31.342[98, 237, 568, 638, 258, 170, 102, 57]
31.364[107, 253, 600, 702, 264, 175, 99, 60]
31.38[112, 260, 623, 729, 313, 193, 108, 66]
31.402[113, 257, 626, 687, 349, 193, 102, 67]
31.417[105, 242, 617, 672, 350, 189, 99, 65]
31.439[106, 257, 666, 732, 374, 189, 91, 60]
31.462[105, 258, 665, 687, 551, 208, 83, 64]
31.477[103, 252, 684, 728, 546, 190, 74, 61]
31.499[103, 253, 681, 750, 520, 176, 85, 62]
31.522[107, 262, 701, 773, 595, 195, 88, 67]
31.544[101, 232, 630, 782, 596, 196, 90, 71]
31.56[99, 238, 675, 837, 498, 190, 99, 70]
31.582[89, 215, 593, 753, 487, 213, 102, 65]
31.604[92, 220, 627, 830, 496, 219, 97, 63]
31.619[84, 201, 581, 830, 410, 219, 97, 57]
31.642[235, 217, 598, 840, 432, 225, 94, 62]
31.657[258, 221, 564, 780, 367, 215, 87, 65]
31.679[259, 225, 575, 766, 347, 188, 90, 69]
31.702[259, 217, 525, 685, 326, 195, 93, 71]
31.724[274, 307, 659, 701, 394, 199, 105, 88]
31.739[189, 359, 690, 674, 359, 189, 114, 89]
31.762[155, 349, 638, 661, 383, 185, 120, 83]
31.777[160, 369, 698, 715, 432, 193, 122, 87]
31.8[163, 382, 729, 710, 453, 183, 121, 89]
31.822[144, 323, 650, 709, 456, 188, 120, 78]
31.837[109, 257, 593, 653, 494, 217, 114, 74]
31.86[103, 245, 591, 655, 494, 224, 115, 76]
31.882[96, 219, 558, 635, 463, 223, 115, 71]
31.904[96, 221, 587, 674, 499, 247, 114, 72]
31.919[92, 222, 572, 709, 467, 228, 110, 71]
31.942[101, 228, 570, 699, 426, 193, 118, 74]
31.965[103, 233, 587, 739, 435, 183, 115, 73]
31.98[103, 243, 626, 815, 475, 183, 112, 72]
32.002[105, 250, 654, 834, 461, 154, 111, 70]
32.025[110, 259, 663, 781, 473, 157, 105, 69]
32.039[100, 248, 658, 799, 487, 161, 92, 59]
32.062[103, 250, 680, 831, 465, 174, 109, 63]
32.085[103, 240, 637, 757, 434, 192, 104, 62]
32.1[92, 205, 543, 683, 403, 180, 107, 57]
32.122[97, 223, 575, 770, 375, 180, 116, 64]
32.144[93, 217, 580, 791, 339, 172, 121, 64]
32.16[89, 207, 527, 745, 379, 176, 106, 62]
32.182[84, 191, 478, 727, 362, 161, 110, 60]
32.205[88, 207, 542, 836, 347, 159, 108, 60]
32.219[73, 169, 493, 762, 302, 174, 99, 49]
32.242[75, 168, 483, 761, 305, 190, 96, 49]
32.264[74, 170, 497, 720, 291, 177, 90, 44]
32.28[76, 180, 504, 701, 276, 173, 87, 44]
32.302[82, 191, 491, 576, 272, 189, 91, 51]
32.325[92, 214, 493, 555, 300, 173, 88, 56]
32.34[100, 241, 561, 544, 283, 152, 86, 59]
32.362[109, 265, 612, 598, 229, 144, 89, 61]
32.385[106, 258, 599, 578, 243, 151, 85, 59]
32.4[96, 237, 565, 596, 259, 138, 77, 53]
32.422[80, 203, 528, 581, 241, 131, 74, 44]
32.445[81, 191, 472, 580, 257, 153, 81, 45]
32.459[69, 153, 377, 522, 307, 162, 82, 44]
32.482[71, 152, 374, 517, 303, 154, 82, 46]
32.505[81, 169, 389, 454, 299, 151, 81, 52]
32.519[84, 177, 409, 473, 306, 152, 92, 53]
32.542[70, 145, 362, 445, 320, 134, 87, 49]
32.565[68, 144, 384, 515, 350, 136, 98, 53]
32.58[74, 162, 418, 535, 372, 149, 104, 53]
32.602[77, 185, 472, 590, 381, 151, 110, 52]
32.625[73, 176, 449, 582, 407, 155, 103, 64]
32.639[79, 192, 485, 568, 398, 152, 105, 77]
32.662[82, 198, 496, 505, 363, 169, 95, 76]
32.684[79, 193, 504, 541, 398, 157, 86, 77]
32.699[63, 149, 424, 550, 404, 161, 79, 71]
32.722[72, 166, 464, 638, 395, 169, 80, 62]
32.745[84, 179, 464, 688, 390, 185, 75, 58]
32.76[91, 201, 478, 731, 384, 180, 80, 62]
32.782[108, 246, 589, 840, 392, 206, 90, 71]
32.805[119, 271, 652, 858, 366, 198, 87, 77]
32.819[117, 269, 647, 863, 337, 185, 97, 79]
32.842[111, 273, 689, 875, 366, 171, 97, 70]
32.865[116, 280, 744, 957, 356, 157, 100, 82]
32.888[97, 237, 644, 854, 286, 112, 95, 72]
32.902[89, 214, 602, 836, 290, 108, 111, 82]
32.924[89, 218, 620, 813, 328, 143, 100, 84]
32.948[93, 210, 583, 830, 343, 156, 100, 87]
32.962[83, 185, 509, 750, 353, 167, 91, 74]
32.985[89, 194, 521, 752, 398, 191, 116, 80]
33.007[84, 189, 497, 733, 390, 196, 101, 64]
33.022[82, 177, 453, 667, 381, 180, 103, 57]
33.044[94, 223, 520, 685, 382, 179, 105, 54]
33.067[92, 219, 499, 621, 364, 184, 111, 52]
33.082[87, 213, 485, 631, 334, 170, 84, 43]
33.104[91, 220, 492, 607, 373, 174, 90, 45]
33.127[96, 237, 541, 710, 355, 171, 102, 49]
33.142[78, 194, 491, 674, 325, 154, 99, 46]
33.164[81, 205, 540, 763, 351, 168, 94, 46]
33.188[81, 202, 536, 744, 338, 190, 100, 47]
33.202[102, 258, 627, 813, 306, 189, 97, 57]
33.225[110, 278, 655, 781, 303, 188, 83, 59]
33.248[107, 264, 606, 745, 286, 190, 87, 57]
33.262[117, 278, 651, 708, 245, 159, 94, 67]
33.285[139, 334, 730, 821, 240, 161, 92, 73]
33.308[136, 315, 703, 767, 294, 166, 93, 73]
33.322[127, 291, 648, 708, 291, 172, 114, 72]
33.345[143, 339, 754, 759, 275, 182, 120, 83]
33.368[133, 317, 678, 785, 302, 202, 126, 79]
33.382[110, 264, 612, 672, 311, 173, 134, 76]
33.404[95, 234, 552, 719, 312, 180, 132, 71]
33.427[91, 226, 551, 763, 339, 179, 124, 70]
33.442[59, 143, 399, 706, 338, 170, 121, 59]
33.465[55, 136, 389, 618, 324, 143, 113, 50]
33.488[71, 164, 440, 636, 315, 148, 100, 57]
33.502[102, 246, 566, 661, 285, 134, 106, 66]
33.525[103, 250, 557, 649, 307, 134, 99, 65]
33.548[111, 273, 622, 657, 357, 163, 91, 68]
33.562[116, 281, 657, 687, 367, 179, 82, 71]
33.584[108, 267, 628, 683, 363, 190, 94, 65]
33.607[96, 237, 586, 735, 376, 185, 87, 59]
33.622[98, 239, 612, 708, 345, 176, 88, 60]
33.644[89, 215, 538, 674, 320, 165, 84, 55]
33.668[95, 243, 566, 673, 295, 151, 94, 57]
33.682[103, 252, 561, 664, 321, 156, 81, 59]
33.704[85, 207, 470, 538, 290, 154, 77, 48]
33.727[87, 204, 446, 594, 285, 173, 73, 51]
33.743[91, 210, 478, 636, 289, 162, 73, 55]
33.764[78, 169, 411, 651, 303, 159, 78, 49]
33.787[75, 175, 452, 670, 299, 155, 89, 51]
33.81[93, 213, 536, 677, 308, 160, 86, 55]
33.825[90, 212, 537, 634, 297, 148, 93, 54]
33.848[103, 239, 569, 637, 280, 154, 110, 62]
33.87[139, 328, 657, 657, 296, 160, 122, 78]
33.885[135, 317, 602, 616, 280, 135, 118, 75]
33.908[127, 307, 564, 601, 320, 134, 120, 75]
33.93[130, 310, 548, 599, 346, 150, 115, 74]
33.945[115, 281, 473, 512, 344, 143, 98, 63]
33.968[68, 170, 320, 457, 323, 140, 72, 42]
33.99[69, 167, 361, 501, 341, 158, 68, 43]
34.005[72, 163, 343, 504, 314, 155, 77, 45]
34.027[67, 157, 373, 587, 299, 136, 85, 46]
34.05[89, 209, 495, 702, 288, 134, 90, 55]
34.065[97, 228, 543, 713, 292, 133, 100, 57]
34.088[107, 248, 583, 705, 273, 116, 104, 62]
34.11[102, 236, 572, 691, 253, 114, 97, 58]
34.125[103, 243, 564, 638, 261, 114, 95, 56]
34.147[86, 202, 476, 532, 297, 109, 99, 47]
34.17[75, 175, 421, 521, 315, 114, 87, 42]
34.185[66, 170, 455, 616, 350, 116, 91, 44]
34.208[63, 169, 455, 604, 342, 118, 103, 45]
34.23[109, 268, 622, 725, 360, 162, 109, 71]
34.245[129, 306, 670, 792, 341, 167, 110, 85]
34.268[131, 310, 665, 755, 327, 177, 123, 87]
34.29[128, 301, 635, 733, 314, 210, 119, 81]
34.304[130, 307, 670, 824, 361, 218, 110, 82]
34.327[120, 280, 620, 834, 336, 185, 110, 74]
34.35[107, 260, 580, 774, 361, 188, 101, 61]
34.365[116, 283, 629, 816, 360, 185, 99, 67]
34.388[117, 285, 630, 774, 329, 152, 108, 69]
34.41[119, 296, 667, 763, 365, 138, 107, 69]
34.424[101, 252, 629, 703, 412, 139, 104, 61]
34.447[95, 239, 637, 711, 415, 135, 110, 61]
34.477[96, 237, 665, 778, 411, 122, 97, 64]
34.492[97, 242, 658, 749, 428, 113, 79, 64]
34.508[94, 225, 589, 691, 376, 120, 76, 63]
34.53[90, 224, 551, 659, 325, 122, 72, 61]
34.544[88, 224, 555, 660, 302, 121, 67, 61]
34.568[88, 231, 549, 641, 310, 124, 76, 58]
34.59[91, 224, 542, 800, 337, 149, 93, 62]
34.604[117, 270, 630, 839, 326, 178, 108, 81]
34.628[113, 258, 615, 819, 362, 181, 103, 80]
34.65[125, 279, 657, 906, 379, 200, 112, 89]
34.664[134, 298, 696, 924, 422, 231, 114, 89]
34.687[134, 300, 691, 830, 410, 233, 100, 86]
34.71[130, 304, 710, 834, 410, 224, 98, 77]
34.724[148, 361, 837, 951, 403, 233, 105, 82]
34.748[141, 352, 826, 880, 392, 232, 109, 75]
34.77[126, 318, 768, 816, 439, 207, 110, 73]
34.792[130, 334, 819, 883, 432, 213, 118, 77]
34.808[113, 297, 744, 848, 458, 212, 114, 67]
34.83[88, 219, 580, 689, 518, 221, 114, 61]
34.853[83, 200, 523, 739, 510, 204, 103, 57]
34.868[81, 193, 484, 716, 424, 203, 93, 50]
34.89[68, 151, 363, 599, 422, 194, 83, 42]
34.92[64, 142, 342, 612, 415, 181, 77, 41]
34.928[68, 149, 382, 640, 359, 165, 73, 40]
34.95[66, 152, 388, 570, 370, 178, 68, 41]
34.973[67, 148, 389, 581, 382, 180, 69, 47]
34.987[70, 150, 401, 626, 390, 168, 80, 50]
35.01[81, 170, 425, 603, 400, 182, 84, 55]
35.033[85, 187, 452, 570, 383, 181, 82, 56]
35.055[90, 196, 500, 634, 365, 164, 79, 55]
35.07[90, 197, 496, 611, 367, 150, 81, 52]
35.093[98, 227, 538, 601, 350, 160, 76, 53]
35.107[91, 214, 516, 569, 307, 143, 73, 49]
35.137[84, 186, 463, 620, 270, 135, 73, 48]
35.153[85, 171, 430, 628, 291, 145, 76, 46]
35.167[92, 183, 471, 658, 354, 175, 73, 47]
35.198[83, 143, 417, 682, 355, 165, 72, 47]
35.212[80, 135, 411, 676, 362, 165, 69, 44]
35.227[91, 175, 480, 698, 411, 217, 88, 49]
35.25[82, 178, 457, 601, 404, 213, 86, 48]
35.273[82, 200, 507, 595, 385, 202, 83, 47]
35.287[80, 196, 491, 506, 374, 200, 82, 45]
35.31[80, 196, 481, 508, 367, 196, 82, 44]
35.332[62, 160, 397, 377, 305, 155, 68, 38]
35.354[68, 168, 433, 405, 298, 168, 74, 43]
35.37[52, 118, 302, 364, 248, 156, 79, 40]
35.392[49, 122, 326, 364, 255, 163, 77, 37]
35.414[49, 119, 327, 343, 241, 163, 77, 39]
35.431[52, 123, 327, 381, 249, 143, 76, 40]
35.452[45, 101, 251, 374, 290, 134, 75, 39]
35.475[46, 101, 264, 371, 318, 135, 79, 40]
35.491[45, 83, 197, 359, 355, 120, 85, 37]
35.512[48, 93, 237, 415, 357, 137, 82, 39]
35.529[52, 108, 269, 445, 366, 136, 75, 39]
35.551[54, 124, 337, 468, 350, 151, 85, 38]
35.572[56, 122, 318, 465, 312, 155, 86, 43]
35.588[59, 136, 372, 547, 302, 160, 81, 47]
35.611[55, 126, 339, 505, 297, 145, 84, 44]
35.632[50, 120, 350, 478, 286, 159, 87, 44]
35.649[59, 139, 386, 531, 297, 139, 78, 50]
35.671[61, 147, 401, 552, 286, 130, 75, 49]
35.692[56, 135, 359, 459, 254, 128, 73, 46]
35.714[64, 136, 360, 457, 250, 127, 70, 46]
35.731[76, 146, 369, 444, 259, 109, 66, 47]
35.754[68, 114, 269, 312, 285, 106, 60, 38]
35.774[68, 109, 267, 312, 312, 109, 58, 38]
35.791[71, 112, 280, 343, 301, 123, 65, 38]
35.812[65, 112, 285, 347, 361, 130, 65, 39]
35.834[61, 118, 325, 475, 393, 143, 74, 39]
35.849[59, 118, 331, 514, 387, 155, 85, 42]
35.872[65, 132, 356, 566, 382, 161, 86, 43]
35.894[62, 133, 358, 550, 378, 151, 84, 40]
35.911[62, 138, 361, 556, 327, 149, 87, 40]
35.932[52, 117, 282, 454, 276, 133, 85, 37]
35.954[52, 120, 285, 447, 215, 114, 75, 35]
35.971[43, 106, 258, 354, 206, 111, 69, 33]
35.992[44, 100, 239, 364, 223, 137, 85, 34]
36.014[43, 94, 230, 345, 230, 139, 87, 35]
36.029[47, 103, 268, 409, 236, 160, 84, 36]
36.052[48, 105, 277, 442, 282, 174, 86, 39]
36.074[55, 115, 301, 476, 337, 191, 92, 42]
36.09[60, 128, 336, 537, 342, 172, 75, 46]
36.112[66, 150, 420, 630, 377, 192, 70, 46]
36.134[71, 170, 488, 677, 397, 184, 75, 50]
36.149[79, 191, 523, 694, 405, 190, 77, 51]
36.172[74, 181, 503, 677, 423, 186, 83, 48]
36.194[74, 188, 520, 662, 417, 184, 85, 51]
36.209[73, 182, 482, 625, 397, 169, 88, 52]
36.232[69, 161, 409, 641, 384, 193, 86, 50]
36.254[61, 144, 416, 633, 353, 185, 84, 46]
36.271[63, 149, 435, 665, 387, 183, 97, 52]
36.292[64, 137, 405, 691, 416, 236, 104, 50]
36.314[66, 138, 433, 695, 440, 263, 104, 53]
36.329[65, 150, 476, 675, 426, 250, 104, 52]
36.352[63, 142, 428, 675, 423, 250, 106, 52]
36.374[59, 140, 433, 649, 323, 244, 82, 45]
36.389[59, 151, 463, 633, 323, 210, 73, 48]
36.412[60, 165, 508, 657, 310, 170, 81, 44]
36.434[56, 152, 463, 568, 357, 172, 82, 41]
36.449[56, 147, 454, 505, 362, 172, 82, 43]
36.472[58, 152, 452, 528, 378, 185, 82, 42]
36.494[54, 141, 415, 503, 374, 181, 81, 35]
36.509[46, 111, 300, 453, 351, 200, 71, 34]
36.532[53, 122, 317, 469, 329, 202, 69, 37]
36.554[54, 129, 339, 514, 364, 204, 70, 37]
36.569[56, 134, 346, 499, 403, 197, 76, 38]
36.592[53, 129, 347, 484, 388, 199, 80, 37]
36.614[60, 138, 366, 504, 382, 175, 79, 41]
36.637[59, 132, 356, 526, 412, 158, 88, 44]
36.652[59, 136, 376, 530, 429, 171, 81, 45]
36.674[58, 131, 358, 540, 444, 199, 81, 44]
36.697[63, 134, 358, 619, 458, 212, 90, 51]
36.713[60, 129, 354, 602, 488, 222, 89, 48]
36.734[53, 121, 326, 589, 482, 230, 81, 44]
36.757[51, 107, 273, 586, 444, 228, 87, 44]
36.772[51, 105, 280, 603, 499, 238, 88, 43]
36.794[49, 114, 329, 546, 501, 253, 77, 35]
36.817[64, 158, 419, 540, 527, 289, 85, 47]
36.832[66, 161, 430, 523, 508, 281, 83, 45]
36.854[66, 161, 437, 484, 539, 275, 76, 44]
36.877[70, 168, 459, 471, 465, 248, 71, 47]
36.892[67, 159, 442, 558, 492, 227, 86, 47]
36.915[60, 129, 374, 526, 437, 184, 82, 39]
36.937[59, 131, 383, 541, 467, 202, 87, 42]
36.952[62, 137, 392, 558, 439, 204, 88, 44]
36.974[61, 130, 364, 567, 435, 212, 95, 47]
36.997[61, 131, 342, 443, 419, 229, 80, 46]
37.012[56, 120, 336, 479, 441, 216, 77, 44]
37.034[53, 114, 324, 474, 404, 205, 78, 43]
37.057[55, 122, 337, 459, 390, 216, 82, 46]
37.072[57, 134, 371, 520, 409, 205, 85, 42]
37.094[60, 144, 387, 547, 408, 170, 87, 44]
37.117[62, 156, 425, 593, 568, 198, 94, 41]
37.132[64, 158, 427, 600, 567, 203, 92, 41]
37.154[61, 150, 425, 604, 573, 183, 89, 37]
37.177[58, 146, 429, 622, 538, 174, 95, 38]
37.192[58, 143, 436, 615, 519, 164, 106, 42]
37.214[59, 152, 464, 702, 370, 130, 101, 45]
37.237[74, 181, 518, 702, 414, 118, 104, 52]
37.252[75, 186, 512, 697, 409, 128, 109, 53]
37.274[71, 176, 476, 651, 392, 124, 97, 52]
37.297[74, 179, 470, 644, 371, 121, 83, 48]
37.312[69, 160, 407, 654, 384, 155, 80, 49]
37.334[60, 139, 337, 635, 358, 184, 86, 41]
37.357[58, 134, 351, 695, 380, 199, 81, 38]
37.372[59, 139, 358, 670, 387, 203, 88, 43]
37.394[67, 152, 385, 693, 392, 211, 90, 47]
37.417[64, 145, 353, 541, 310, 189, 89, 43]
37.432[56, 129, 340, 531, 280, 173, 72, 43]
37.455[59, 140, 347, 467, 323, 174, 83, 44]
37.477[58, 134, 323, 413, 358, 194, 76, 39]
37.492[40, 100, 256, 363, 368, 188, 75, 32]
37.514[40, 98, 248, 373, 368, 192, 74, 31]
37.537[46, 114, 290, 424, 402, 214, 76, 33]
37.552[39, 88, 234, 431, 336, 194, 68, 28]
37.574[63, 145, 345, 445, 334, 187, 79, 47]
37.597[68, 156, 361, 455, 333, 190, 87, 53]
37.619[85, 215, 479, 480, 359, 210, 95, 65]
37.635[82, 212, 460, 442, 328, 183, 98, 65]
37.657[107, 278, 546, 487, 411, 203, 94, 70]
37.68[98, 262, 488, 467, 411, 197, 83, 63]
37.694[100, 269, 499, 487, 402, 194, 84, 62]
37.717[94, 245, 461, 531, 417, 184, 74, 54]
37.74[96, 245, 465, 582, 424, 200, 78, 55]
37.754[67, 173, 375, 540, 369, 187, 79, 52]
37.777[60, 153, 366, 562, 330, 181, 76, 48]
37.8[50, 130, 335, 525, 367, 193, 68, 43]
37.814[55, 129, 316, 453, 406, 191, 83, 47]
37.837[65, 148, 374, 450, 412, 180, 86, 51]
37.86[68, 147, 374, 427, 420, 184, 92, 52]
37.874[70, 151, 384, 453, 436, 186, 103, 55]
37.897[74, 161, 411, 517, 425, 199, 102, 55]
37.92[67, 149, 395, 567, 395, 199, 101, 52]
37.934[58, 132, 355, 568, 382, 206, 103, 46]
37.957[59, 133, 361, 595, 372, 202, 102, 46]
37.98[59, 142, 381, 569, 392, 203, 93, 45]
37.994[64, 152, 420, 552, 366, 175, 97, 47]
38.017[56, 135, 381, 469, 315, 162, 89, 40]
38.04[58, 140, 391, 433, 413, 147, 85, 42]
38.054[56, 137, 388, 421, 435, 150, 94, 41]
38.077[53, 127, 363, 410, 435, 151, 96, 40]
38.1[43, 96, 275, 355, 453, 152, 92, 35]
38.114[65, 147, 375, 474, 505, 159, 99, 48]
38.137[63, 140, 361, 496, 471, 150, 96, 47]
38.16[67, 144, 349, 526, 462, 140, 84, 51]
38.174[68, 147, 354, 535, 448, 135, 84, 50]
38.197[71, 153, 366, 576, 459, 178, 96, 55]
38.22[69, 153, 397, 540, 427, 200, 87, 50]
38.234[74, 173, 468, 526, 423, 226, 89, 54]
38.257[70, 172, 478, 558, 384, 219, 89, 50]
38.28[68, 168, 471, 547, 388, 225, 89, 50]
38.302[67, 169, 475, 539, 366, 218, 78, 45]
38.317[56, 138, 383, 487, 345, 193, 73, 42]
38.34[49, 113, 281, 460, 282, 209, 75, 35]
38.354[47, 115, 289, 409, 306, 226, 76, 34]
38.377[46, 118, 295, 429, 280, 231, 73, 33]
38.4[49, 125, 301, 445, 310, 228, 76, 35]
38.414[45, 118, 294, 469, 336, 225, 86, 36]
38.437[53, 131, 334, 480, 342, 192, 85, 43]
38.46[53, 124, 309, 429, 323, 182, 81, 41]
38.475[56, 124, 309, 407, 327, 165, 83, 43]
38.497[52, 111, 285, 407, 352, 147, 79, 41]
38.52[52, 106, 271, 430, 329, 147, 71, 38]
38.542[39, 76, 206, 402, 390, 148, 66, 30]
38.557[38, 76, 204, 408, 422, 133, 82, 33]
38.58[38, 79, 215, 461, 421, 133, 82, 31]
38.602[38, 88, 239, 448, 386, 132, 88, 34]
38.617[35, 88, 236, 384, 374, 154, 92, 34]
38.64[36, 90, 237, 396, 287, 148, 91, 35]
38.662[35, 86, 227, 397, 240, 153, 78, 34]
38.677[37, 91, 242, 434, 249, 156, 74, 32]
38.7[40, 92, 229, 383, 235, 151, 75, 31]
38.722[46, 100, 254, 395, 263, 133, 75, 34]
38.737[44, 97, 246, 386, 277, 126, 80, 30]
38.76[49, 110, 282, 497, 291, 143, 83, 34]
38.782[46, 100, 265, 425, 283, 147, 79, 36]
38.797[40, 93, 263, 455, 276, 151, 76, 36]
38.82[43, 102, 323, 556, 291, 166, 84, 38]
38.843[50, 121, 369, 592, 311, 166, 85, 41]
38.857[46, 110, 350, 496, 303, 150, 79, 37]
38.88[46, 111, 345, 482, 298, 145, 93, 38]
38.902[49, 118, 357, 462, 289, 148, 91, 37]
38.917[43, 102, 282, 329, 239, 129, 77, 31]
38.94[37, 78, 215, 286, 198, 134, 70, 29]
38.962[42, 89, 236, 319, 220, 145, 75, 35]
38.977[41, 83, 224, 363, 239, 150, 72, 32]
39.0[36, 68, 193, 340, 281, 142, 74, 31]
39.022[39, 83, 235, 339, 300, 142, 77, 36]
39.037[41, 97, 259, 311, 331, 131, 77, 36]
39.06[37, 88, 237, 278, 323, 119, 76, 31]
39.083[38, 92, 243, 218, 313, 108, 65, 31]
39.097[44, 106, 270, 237, 276, 110, 73, 34]
39.12[41, 97, 244, 335, 317, 147, 74, 30]
39.143[37, 88, 233, 351, 335, 189, 80, 29]
39.157[41, 99, 248, 383, 329, 192, 82, 33]
39.188[41, 99, 256, 439, 335, 205, 85, 33]
39.202[35, 86, 234, 486, 349, 201, 74, 31]
39.217[40, 94, 263, 488, 314, 175, 70, 31]
39.255[40, 90, 253, 505, 262, 139, 62, 30]
39.262[37, 81, 251, 515, 311, 164, 60, 28]
39.277[40, 84, 240, 500, 338, 167, 60, 32]
39.3[50, 114, 302, 490, 335, 172, 59, 36]
39.323[50, 113, 287, 488, 383, 178, 66, 39]
39.337[54, 128, 324, 489, 391, 176, 70, 40]
39.36[53, 127, 313, 461, 349, 153, 68, 39]
39.382[51, 126, 313, 433, 343, 133, 76, 39]
39.397[47, 108, 252, 421, 360, 135, 78, 37]
39.42[45, 103, 239, 368, 295, 124, 73, 35]
39.442[47, 102, 237, 370, 275, 127, 80, 35]
39.473[52, 107, 249, 375, 286, 115, 84, 37]
39.48[55, 112, 264, 384, 256, 122, 76, 38]
39.502[51, 102, 250, 385, 227, 106, 75, 39]
39.525[54, 106, 264, 395, 242, 119, 93, 40]
39.54[53, 116, 269, 355, 265, 119, 87, 40]
39.562[49, 109, 259, 359, 260, 123, 84, 39]
39.585[44, 107, 256, 344, 269, 116, 85, 34]
39.6[46, 111, 266, 320, 274, 133, 87, 34]
39.622[38, 101, 238, 266, 255, 120, 66, 32]
39.645[42, 104, 264, 327, 290, 124, 68, 32]
39.66[42, 107, 266, 304, 284, 124, 63, 34]
39.682[41, 110, 268, 330, 297, 129, 65, 33]
39.705[38, 109, 255, 323, 302, 131, 67, 33]
39.72[40, 117, 289, 396, 314, 134, 73, 34]
39.742[37, 103, 249, 399, 270, 124, 71, 35]
39.765[44, 120, 297, 485, 326, 131, 70, 35]
39.78[54, 138, 349, 522, 332, 151, 72, 43]
39.802[54, 137, 354, 522, 323, 139, 71, 41]
39.825[55, 132, 339, 483, 319, 139, 63, 40]
39.84[53, 132, 352, 468, 364, 172, 68, 39]
39.862[62, 142, 365, 457, 356, 177, 66, 41]
39.885[65, 145, 366, 461, 371, 167, 77, 39]
39.9[69, 151, 376, 454, 372, 164, 73, 39]
39.93[68, 150, 367, 445, 364, 166, 77, 38]
39.945[66, 140, 342, 411, 314, 137, 72, 37]
39.96[62, 133, 309, 382, 265, 133, 88, 41]
39.982[50, 105, 235, 289, 203, 118, 73, 37]
40.005[43, 94, 209, 287, 189, 118, 70, 38]
40.019[43, 91, 200, 277, 210, 113, 66, 38]
40.042[45, 91, 169, 285, 205, 95, 63, 38]
40.065[28, 55, 104, 212, 201, 78, 39, 28]
40.079[29, 50, 87, 211, 225, 75, 32, 27]
40.102[29, 46, 81, 189, 222, 65, 31, 24]
40.125[29, 46, 77, 189, 195, 69, 32, 24]
40.139[24, 43, 73, 168, 188, 69, 28, 23]
40.162[24, 46, 79, 144, 181, 68, 23, 24]
40.185[20, 51, 77, 130, 120, 63, 28, 23]
40.199[20, 50, 72, 126, 98, 60, 28, 22]
40.222[20, 48, 71, 109, 102, 52, 27, 24]
40.245[21, 213, 63, 98, 106, 52, 29, 22]
40.259[20, 268, 40, 71, 96, 49, 36, 23]
40.282[22, 278, 39, 73, 99, 51, 33, 24]
40.305[21, 280, 36, 77, 130, 55, 33, 26]
40.327[20, 280, 36, 67, 123, 53, 33, 25]
40.343[18, 189, 38, 67, 111, 48, 33, 25]
40.372[21, 98, 110, 62, 111, 46, 24, 23]
40.387[18, 58, 127, 56, 108, 41, 23, 20]
40.403[19, 51, 132, 47, 69, 37, 23, 17]
40.424[19, 49, 131, 51, 69, 33, 22, 23]
40.447[24, 40, 131, 49, 89, 29, 45, 119]
40.463[33, 31, 79, 47, 88, 29, 69, 202]
40.484[36, 30, 49, 46, 89, 36, 71, 209]
40.506[35, 26, 30, 45, 78, 39, 72, 213]
40.523[37, 23, 33, 35, 74, 38, 73, 214]
40.545[34, 23, 33, 27, 44, 41, 62, 181]
40.574[33, 28, 32, 28, 40, 42, 63, 212]
40.583[30, 27, 31, 29, 41, 35, 66, 224]
40.604[32, 27, 32, 24, 48, 34, 74, 233]
40.627[36, 31, 29, 24, 46, 37, 101, 304]
40.643[40, 33, 29, 28, 50, 38, 114, 358]
40.664[42, 33, 28, 34, 66, 40, 106, 311]
40.687[51, 34, 26, 36, 72, 41, 109, 318]
40.703[53, 33, 27, 42, 73, 42, 119, 351]
40.724[55, 28, 27, 66, 88, 47, 147, 334]
40.747[96, 26, 28, 69, 101, 51, 173, 327]
40.763[103, 21, 28, 67, 102, 51, 175, 322]
40.784[100, 20, 29, 73, 109, 51, 182, 329]
40.807[99, 22, 30, 79, 126, 48, 175, 309]
40.823[103, 24, 31, 63, 119, 41, 140, 285]
40.844[67, 27, 29, 60, 114, 36, 95, 236]
40.867[50, 28, 32, 67, 124, 36, 87, 231]
40.883[48, 29, 31, 65, 118, 36, 67, 206]
40.904[48, 29, 28, 54, 108, 35, 62, 180]
40.928[37, 30, 29, 52, 108, 34, 62, 192]
40.943[31, 30, 29, 51, 103, 32, 59, 186]
40.964[32, 32, 32, 41, 81, 26, 58, 185]
40.987[36, 33, 31, 33, 80, 25, 65, 212]
41.003[33, 32, 30, 37, 69, 30, 62, 205]
41.024[31, 31, 29, 35, 63, 29, 61, 186]
41.047[33, 29, 30, 39, 61, 32, 68, 208]
41.063[33, 24, 25, 39, 60, 38, 74, 225]
41.092[30, 21, 25, 43, 57, 40, 66, 196]
41.107[31, 21, 26, 46, 62, 37, 69, 196]
41.123[29, 22, 26, 48, 62, 37, 62, 171]
41.144[27, 25, 26, 43, 64, 35, 54, 136]
41.167[24, 26, 24, 44, 61, 30, 45, 102]
41.183[29, 26, 25, 39, 56, 27, 50, 154]
41.204[30, 29, 25, 32, 48, 26, 45, 153]
41.227[30, 27, 25, 29, 47, 33, 46, 154]
41.243[33, 23, 22, 30, 45, 35, 66, 210]
41.264[32, 26, 25, 31, 49, 36, 68, 212]
41.294[26, 25, 26, 28, 52, 39, 59, 166]
41.303[28, 24, 26, 30, 49, 43, 63, 182]
41.324[30, 25, 28, 30, 52, 38, 67, 219]
41.347[27, 26, 27, 33, 50, 38, 47, 168]
41.369[28, 30, 25, 31, 46, 38, 46, 167]
41.384[30, 30, 24, 32, 50, 39, 63, 215]
41.407[28, 29, 22, 31, 50, 36, 59, 206]
41.429[25, 27, 22, 31, 48, 45, 53, 164]
41.444[25, 27, 22, 27, 48, 47, 53, 159]
41.467[27, 20, 24, 26, 53, 45, 52, 156]
41.489[24, 22, 29, 27, 60, 46, 32, 78]
41.504[24, 21, 29, 29, 75, 46, 29, 49]
41.535[24, 23, 29, 28, 79, 37, 28, 43]
41.549[28, 23, 30, 26, 78, 37, 62, 174]
41.564[30, 24, 27, 26, 76, 46, 63, 183]
41.595[32, 23, 22, 26, 66, 43, 66, 192]
41.609[29, 24, 22, 25, 48, 46, 70, 194]
41.624[31, 25, 26, 27, 43, 47, 70, 195]
41.646[26, 24, 25, 27, 38, 47, 43, 99]
41.669[24, 22, 26, 28, 41, 40, 42, 82]
41.684[23, 26, 39, 34, 43, 39, 34, 57]
41.706[26, 28, 40, 37, 49, 44, 31, 52]
41.729[24, 28, 37, 37, 49, 43, 30, 48]
41.744[26, 27, 38, 41, 50, 44, 33, 42]
41.767[32, 28, 40, 44, 55, 42, 53, 187]
41.789[31, 24, 27, 38, 52, 47, 56, 201]
41.804[29, 23, 25, 35, 43, 40, 57, 204]
41.827[31, 23, 26, 34, 48, 47, 59, 207]
41.849[32, 22, 26, 32, 49, 57, 59, 210]
41.864[24, 26, 24, 30, 42, 60, 48, 112]
41.887[23, 26, 24, 32, 44, 56, 44, 84]
41.909[25, 28, 24, 30, 46, 54, 42, 75]
41.924[24, 28, 22, 30, 39, 48, 41, 64]
41.946[21, 28, 23, 31, 41, 59, 42, 52]
41.969[21, 23, 23, 30, 43, 58, 34, 25]
41.985[21, 27, 21, 29, 40, 64, 33, 22]
42.007[19, 34, 21, 30, 39, 65, 33, 24]
42.029[20, 35, 24, 34, 42, 67, 33, 27]
42.045[21, 37, 23, 33, 38, 46, 27, 25]
42.067[20, 37, 24, 33, 34, 47, 26, 26]
42.089[21, 33, 24, 31, 34, 37, 28, 26]
42.104[21, 23, 23, 31, 35, 39, 25, 28]
42.127[19, 20, 21, 26, 38, 50, 22, 24]
42.149[18, 19, 19, 26, 37, 53, 24, 24]
42.164[19, 19, 18, 25, 39, 56, 27, 26]
42.187[21, 22, 21, 26, 39, 77, 33, 32]
42.209[23, 29, 27, 35, 49, 126, 37, 29]
42.224[25, 30, 28, 36, 46, 128, 39, 30]
42.247[26, 29, 31, 36, 47, 128, 39, 30]
42.269[28, 29, 33, 42, 48, 129, 38, 30]
42.284[25, 33, 32, 41, 47, 120, 40, 24]
42.307[23, 28, 27, 33, 36, 70, 43, 34]
42.329[20, 31, 26, 35, 32, 59, 40, 33]
42.352[20, 30, 27, 35, 33, 55, 41, 34]
42.375[17, 30, 23, 29, 33, 49, 40, 34]
42.389[18, 25, 25, 28, 32, 43, 32, 31]
42.412[18, 27, 25, 27, 32, 44, 23, 22]
42.427[20, 24, 27, 23, 35, 41, 24, 22]
42.449[20, 23, 22, 21, 33, 38, 26, 29]
42.472[21, 26, 25, 23, 32, 38, 27, 28]
42.487[20, 25, 24, 23, 34, 40, 26, 29]
42.509[21, 24, 24, 24, 34, 33, 26, 29]
42.533[21, 23, 22, 24, 33, 35, 27, 30]
42.547[22, 25, 23, 23, 32, 35, 23, 22]
42.577[21, 24, 21, 21, 33, 35, 23, 22]
42.592[23, 24, 19, 23, 36, 34, 30, 28]
42.606[23, 24, 19, 20, 37, 37, 32, 31]
42.629[21, 26, 20, 21, 35, 38, 31, 33]
42.652[20, 24, 20, 21, 35, 38, 31, 33]
42.666[23, 22, 22, 22, 32, 39, 30, 33]
42.689[21, 22, 22, 23, 29, 43, 23, 28]
42.712[22, 24, 23, 26, 29, 41, 25, 26]
42.727[24, 23, 23, 28, 30, 42, 24, 22]
42.749[24, 24, 23, 30, 32, 43, 24, 21]
42.772[22, 24, 22, 30, 34, 40, 24, 19]
42.787[24, 26, 23, 29, 32, 37, 25, 22]
42.809[22, 24, 20, 26, 29, 35, 33, 31]
42.831[21, 22, 19, 24, 26, 34, 34, 37]
42.847[20, 21, 21, 22, 35, 33, 34, 43]
42.869[21, 21, 22, 26, 37, 35, 34, 44]
42.892[19, 19, 22, 27, 38, 36, 35, 43]
42.907[20, 21, 22, 26, 38, 34, 24, 37]
42.929[21, 21, 23, 27, 40, 33, 22, 31]
42.951[23, 19, 19, 27, 31, 32, 23, 23]
42.966[22, 21, 18, 24, 27, 31, 21, 23]
42.989[23, 22, 19, 24, 29, 29, 24, 28]
43.012[24, 21, 19, 25, 33, 30, 24, 27]
43.028[22, 22, 18, 25, 30, 29, 24, 27]
43.049[19, 22, 21, 25, 30, 30, 25, 27]
43.072[21, 22, 24, 24, 34, 28, 25, 28]
43.086[19, 21, 23, 26, 32, 32, 24, 22]
43.109[18, 22, 26, 25, 31, 33, 24, 23]
43.132[20, 23, 28, 24, 33, 35, 25, 22]
43.148[21, 24, 26, 24, 33, 37, 23, 22]
43.169[19, 23, 26, 25, 40, 41, 29, 27]
43.192[20, 23, 26, 20, 39, 38, 31, 28]
43.207[20, 22, 24, 20, 41, 38, 33, 29]
43.229[19, 24, 26, 23, 44, 46, 34, 29]
43.253[20, 25, 28, 23, 45, 47, 35, 29]
43.275[22, 27, 27, 23, 37, 45, 32, 23]
43.289[22, 27, 27, 25, 38, 45, 29, 26]
43.313[22, 26, 27, 25, 36, 45, 26, 24]
43.335[22, 23, 24, 24, 32, 34, 27, 24]
43.349[22, 22, 23, 26, 29, 29, 25, 23]
43.373[19, 19, 23, 26, 36, 33, 26, 28]
43.395[20, 20, 22, 27, 38, 34, 26, 23]
43.409[20, 22, 23, 26, 38, 33, 27, 25]
43.433[21, 24, 25, 25, 38, 31, 25, 25]
43.455[22, 23, 23, 24, 39, 35, 26, 25]
43.469[21, 23, 23, 24, 34, 28, 22, 21]
43.492[21, 22, 25, 22, 33, 28, 24, 21]
43.515[20, 20, 23, 23, 32, 29, 26, 22]
43.529[21, 20, 24, 26, 36, 42, 26, 21]
43.552[19, 19, 23, 26, 36, 42, 28, 22]
43.575[23, 20, 24, 26, 41, 44, 28, 21]
43.589[23, 21, 23, 25, 42, 43, 25, 20]
43.612[24, 22, 24, 26, 41, 42, 22, 18]
43.635[22, 20, 21, 21, 37, 31, 21, 17]
43.649[22, 22, 23, 23, 40, 39, 16, 16]
43.672[20, 22, 22, 25, 37, 38, 19, 17]
43.695[21, 22, 23, 27, 33, 39, 22, 19]
43.709[19, 20, 23, 25, 40, 42, 23, 20]
43.733[20, 22, 22, 27, 42, 42, 22, 20]
43.755[23, 20, 22, 24, 39, 34, 24, 19]
43.769[22, 22, 23, 20, 37, 35, 22, 20]
43.793[22, 23, 23, 22, 39, 36, 21, 19]
43.815[21, 25, 23, 24, 33, 32, 20, 18]
43.829[21, 23, 25, 23, 33, 32, 21, 19]
43.852[18, 23, 25, 26, 32, 30, 18, 19]
43.875[19, 24, 24, 27, 35, 31, 20, 18]
43.889[18, 22, 24, 26, 34, 33, 28, 24]
43.912[19, 21, 23, 27, 38, 33, 29, 25]
43.935[22, 23, 21, 27, 38, 33, 28, 29]
43.957[22, 25, 20, 24, 38, 41, 30, 29]
43.972[21, 22, 24, 24, 35, 39, 28, 30]
43.995[22, 21, 25, 25, 35, 37, 21, 26]
44.009[23, 27, 26, 23, 32, 37, 21, 26]
44.033[20, 26, 25, 22, 31, 35, 21, 22]
44.055[22, 24, 27, 23, 33, 27, 21, 22]
44.069[22, 24, 25, 25, 33, 28, 22, 20]
44.092[21, 26, 23, 23, 31, 27, 19, 21]
44.115[21, 19, 21, 24, 27, 27, 19, 19]
44.129[22, 21, 23, 25, 27, 29, 21, 19]
44.152[19, 20, 22, 24, 31, 30, 20, 20]
44.175[19, 21, 21, 23, 31, 28, 21, 20]
44.189[18, 22, 21, 25, 34, 30, 21, 18]
44.213[17, 23, 22, 23, 35, 31, 22, 22]
44.235[16, 22, 23, 23, 36, 36, 22, 24]
44.265[16, 22, 21, 25, 32, 34, 23, 23]
44.273[16, 24, 22, 25, 33, 36, 23, 24]
44.295[16, 22, 23, 24, 31, 33, 23, 24]
44.317[16, 23, 23, 28, 35, 40, 23, 21]
44.332[16, 23, 21, 28, 36, 37, 20, 20]
44.355[16, 22, 21, 30, 38, 39, 22, 20]
44.377[16, 21, 20, 29, 36, 40, 23, 20]
44.392[18, 21, 22, 29, 35, 42, 22, 19]
44.415[18, 19, 22, 24, 38, 36, 23, 19]
44.437[19, 17, 21, 23, 35, 37, 24, 19]
44.453[20, 19, 21, 21, 31, 37, 22, 20]
44.475[20, 20, 21, 23, 33, 38, 20, 18]
44.497[19, 21, 18, 22, 32, 36, 20, 19]
44.513[19, 20, 20, 21, 24, 35, 20, 21]
44.535[20, 22, 20, 21, 30, 37, 19, 20]
44.557[19, 23, 22, 19, 33, 37, 21, 21]
44.572[19, 22, 21, 18, 32, 37, 22, 21]
44.595[18, 22, 23, 18, 32, 40, 22, 20]
44.618[18, 24, 21, 20, 33, 38, 23, 18]
44.632[16, 22, 20, 22, 27, 34, 23, 19]
44.655[18, 20, 21, 21, 24, 33, 21, 19]
44.678[18, 20, 21, 22, 23, 31, 20, 19]
44.693[21, 20, 20, 23, 26, 29, 22, 19]
44.715[22, 22, 21, 21, 24, 29, 19, 22]
44.738[23, 21, 21, 19, 23, 32, 22, 18]
44.752[22, 24, 22, 19, 23, 34, 20, 20]
44.775[23, 23, 24, 17, 31, 34, 22, 21]
44.797[22, 22, 24, 16, 31, 35, 21, 20]
44.812[22, 20, 26, 16, 30, 33, 22, 21]
44.835[21, 20, 26, 17, 31, 33, 20, 24]
44.858[21, 18, 24, 18, 32, 34, 22, 21]
44.872[20, 19, 25, 19, 26, 33, 20, 21]
44.895[21, 20, 24, 21, 27, 33, 20, 20]
44.917[19, 20, 23, 23, 28, 32, 19, 18]
44.931[20, 21, 25, 26, 29, 31, 18, 16]
44.954[21, 21, 24, 27, 28, 30, 18, 19]
44.977[21, 20, 21, 25, 27, 31, 19, 20]
44.992[20, 21, 23, 24, 29, 33, 21, 20]
45.022[20, 21, 21, 22, 31, 34, 21, 24]
45.037[20, 21, 22, 20, 34, 30, 22, 23]
45.052[19, 22, 23, 19, 34, 29, 21, 22]
45.075[19, 22, 24, 20, 36, 29, 21, 21]
45.097[19, 23, 24, 20, 32, 27, 20, 22]
45.112[18, 23, 26, 20, 29, 28, 20, 19]
45.135[18, 23, 23, 20, 26, 31, 21, 19]
45.157[19, 21, 24, 23, 35, 34, 20, 18]
45.187[19, 21, 24, 25, 35, 32, 24, 18]
45.195[18, 21, 24, 26, 36, 34, 24, 18]
45.217[19, 20, 25, 27, 36, 33, 25, 18]
45.24[19, 20, 25, 28, 37, 35, 23, 18]
45.255[19, 19, 25, 24, 29, 34, 24, 18]
45.277[18, 19, 25, 24, 26, 33, 20, 18]
45.3[17, 17, 25, 25, 30, 34, 19, 19]
45.315[18, 20, 23, 25, 34, 36, 18, 18]
45.336[18, 20, 24, 25, 33, 31, 20, 19]
45.359[17, 20, 23, 25, 32, 31, 18, 18]
45.376[18, 22, 23, 25, 31, 30, 18, 21]
45.397[18, 23, 22, 25, 27, 28, 18, 21]
45.427[19, 20, 23, 24, 24, 29, 20, 21]
45.435[19, 20, 20, 23, 27, 31, 19, 23]
45.456[20, 20, 20, 26, 35, 31, 21, 24]
45.479[21, 20, 19, 25, 36, 31, 20, 22]
45.495[22, 19, 24, 26, 36, 28, 21, 22]
45.517[20, 20, 24, 26, 37, 28, 21, 23]
45.539[21, 22, 25, 26, 36, 29, 21, 22]
45.556[20, 23, 26, 23, 31, 34, 21, 21]
45.577[18, 23, 27, 23, 34, 36, 21, 22]
45.6[19, 22, 24, 20, 34, 37, 22, 22]
45.615[20, 22, 22, 21, 34, 37, 23, 24]
45.636[19, 23, 24, 22, 31, 34, 23, 23]
45.659[20, 22, 23, 22, 30, 33, 24, 24]
45.683[20, 21, 21, 21, 28, 30, 26, 24]
45.705[17, 22, 22, 21, 28, 31, 24, 24]
45.719[19, 22, 22, 20, 34, 30, 22, 21]
45.735[20, 23, 21, 21, 34, 31, 22, 21]
45.756[20, 25, 23, 21, 33, 28, 20, 20]
45.779[22, 23, 23, 21, 34, 32, 22, 18]
45.796[22, 23, 22, 21, 34, 34, 23, 17]
45.817[21, 21, 24, 23, 28, 34, 21, 19]
45.839[21, 19, 27, 22, 29, 36, 24, 19]
45.855[21, 20, 32, 24, 28, 35, 24, 18]
45.877[20, 23, 36, 29, 30, 36, 20, 20]
45.899[20, 22, 35, 29, 29, 35, 22, 22]
45.915[20, 22, 34, 29, 28, 32, 24, 20]
45.937[19, 21, 30, 29, 27, 36, 21, 19]
45.959[22, 22, 24, 28, 30, 36, 22, 21]
45.976[21, 20, 21, 22, 25, 35, 25, 18]
45.997[21, 20, 20, 24, 25, 35, 22, 18]
46.019[22, 21, 23, 23, 24, 37, 21, 18]
46.036[23, 23, 25, 22, 24, 31, 22, 20]
46.057[22, 22, 25, 27, 28, 31, 21, 22]
46.079[21, 22, 26, 25, 31, 29, 21, 22]
46.101[22, 23, 26, 24, 30, 29, 21, 21]
46.117[21, 23, 26, 26, 36, 35, 21, 21]
46.139[20, 24, 26, 26, 36, 35, 21, 22]
46.161[21, 22, 25, 21, 35, 35, 23, 19]
46.177[20, 23, 24, 23, 35, 38, 21, 20]
46.199[20, 23, 25, 25, 41, 40, 22, 19]
46.222[19, 25, 23, 26, 42, 34, 22, 20]
46.237[19, 23, 22, 25, 42, 33, 21, 19]
46.259[18, 22, 24, 27, 40, 33, 20, 20]
46.281[19, 20, 24, 29, 39, 29, 19, 21]
46.297[20, 21, 25, 26, 33, 27, 18, 21]
46.319[19, 18, 26, 24, 37, 28, 19, 22]
46.343[20, 21, 27, 28, 37, 28, 19, 20]
46.357[18, 22, 26, 26, 38, 30, 19, 19]
46.379[20, 24, 25, 25, 38, 31, 20, 20]
46.401[19, 22, 25, 26, 40, 30, 21, 21]
46.416[21, 24, 25, 28, 34, 31, 19, 20]
46.439[21, 21, 22, 24, 36, 38, 21, 22]
46.461[23, 25, 22, 25, 37, 37, 22, 22]
46.476[21, 23, 23, 26, 35, 37, 22, 21]
46.5[22, 29, 21, 24, 36, 39, 21, 22]
46.522[21, 27, 21, 23, 32, 36, 22, 22]
46.538[21, 26, 23, 23, 33, 31, 20, 20]
46.559[21, 24, 23, 22, 36, 31, 18, 20]
46.582[20, 24, 22, 20, 36, 33, 18, 20]
46.596[20, 18, 21, 21, 36, 30, 20, 20]
46.619[19, 22, 21, 21, 36, 30, 20, 19]
46.641[21, 22, 19, 20, 32, 27, 22, 24]
46.656[21, 21, 23, 23, 29, 34, 22, 24]
46.679[21, 22, 22, 24, 27, 31, 22, 23]
46.701[21, 22, 24, 23, 25, 33, 22, 22]
46.717[20, 19, 25, 24, 23, 35, 21, 25]
46.739[20, 21, 27, 27, 25, 35, 19, 20]
46.761[20, 21, 24, 27, 28, 30, 21, 22]
46.777[20, 21, 28, 26, 29, 31, 20, 21]
46.799[19, 23, 27, 27, 33, 31, 20, 21]
46.821[20, 24, 25, 27, 36, 30, 21, 17]
46.837[19, 22, 24, 28, 36, 30, 18, 17]
46.859[21, 23, 25, 26, 36, 30, 21, 16]
46.881[21, 27, 22, 26, 38, 30, 23, 19]
46.897[23, 25, 23, 25, 37, 28, 22, 19]
46.919[23, 25, 25, 22, 34, 29, 25, 21]
46.942[21, 28, 23, 22, 35, 29, 28, 21]
46.957[21, 28, 24, 19, 32, 29, 26, 22]
46.979[23, 25, 23, 22, 37, 34, 25, 20]
47.001[21, 26, 24, 23, 34, 34, 29, 23]
47.017[23, 27, 25, 25, 35, 37, 26, 22]
47.04[23, 26, 24, 26, 36, 36, 24, 22]
47.061[23, 24, 23, 30, 38, 37, 23, 21]
47.084[20, 24, 23, 29, 34, 32, 23, 22]
47.099[21, 24, 22, 31, 39, 34, 18, 21]
47.122[20, 22, 20, 33, 38, 32, 18, 22]
47.144[21, 20, 23, 32, 38, 34, 19, 23]
47.159[22, 21, 23, 30, 35, 33, 19, 24]
47.181[22, 19, 25, 29, 32, 32, 19, 24]
47.204[22, 19, 23, 27, 30, 31, 20, 22]
47.219[20, 20, 22, 24, 28, 29, 22, 21]
47.242[21, 19, 21, 23, 29, 31, 22, 21]
47.264[19, 21, 19, 22, 31, 32, 22, 19]
47.28[22, 23, 19, 22, 33, 31, 21, 22]
47.301[23, 21, 21, 27, 39, 36, 23, 20]
47.324[23, 22, 21, 26, 39, 34, 21, 21]
47.34[21, 25, 20, 27, 42, 32, 20, 23]
47.362[20, 24, 22, 27, 41, 31, 21, 22]
47.384[19, 22, 22, 27, 41, 32, 20, 19]
47.399[19, 24, 23, 22, 30, 25, 18, 20]
47.421[20, 22, 22, 21, 36, 26, 17, 20]
47.444[20, 20, 22, 22, 31, 25, 19, 21]
47.46[21, 19, 22, 20, 31, 26, 20, 21]
47.481[20, 20, 21, 22, 35, 36, 21, 21]
47.504[19, 19, 22, 22, 35, 38, 19, 20]
47.519[18, 19, 21, 24, 36, 39, 21, 18]
47.541[18, 20, 22, 23, 37, 39, 21, 19]
47.564[18, 21, 23, 23, 39, 39, 22, 20]
47.587[18, 24, 23, 23, 37, 30, 22, 20]
47.601[18, 25, 23, 23, 38, 29, 23, 19]
47.624[18, 26, 24, 21, 36, 27, 22, 20]
47.639[19, 25, 24, 21, 37, 27, 23, 19]
47.661[20, 26, 24, 20, 36, 26, 20, 23]
47.684[20, 23, 23, 21, 34, 26, 21, 24]
47.699[21, 22, 24, 22, 36, 25, 22, 25]
47.721[20, 21, 24, 21, 34, 28, 22, 24]
47.744[19, 21, 24, 19, 33, 33, 21, 25]
47.759[18, 20, 24, 20, 34, 35, 22, 21]
47.781[19, 20, 28, 22, 35, 34, 22, 20]
47.804[18, 21, 26, 22, 34, 36, 23, 22]
47.819[18, 21, 25, 23, 35, 37, 23, 23]
47.85[19, 22, 27, 24, 34, 34, 23, 23]
47.864[19, 21, 26, 25, 33, 31, 21, 24]
47.879[17, 20, 22, 23, 35, 31, 22, 22]
47.91[22, 20, 22, 22, 34, 29, 22, 20]
47.924[22, 22, 24, 23, 33, 27, 21, 20]
47.947[23, 22, 22, 23, 33, 28, 24, 19]
47.961[24, 23, 23, 23, 36, 33, 24, 18]
47.984[24, 22, 23, 23, 34, 35, 22, 19]
48.007[22, 24, 23, 24, 35, 35, 20, 21]
48.022[23, 23, 22, 23, 39, 37, 20, 21]
48.044[22, 22, 20, 23, 38, 34, 17, 21]
48.067[21, 21, 20, 22, 33, 29, 17, 22]
48.081[20, 22, 19, 21, 31, 29, 18, 22]
48.104[18, 22, 20, 22, 34, 34, 20, 21]
48.127[19, 21, 20, 21, 31, 33, 20, 20]
48.141[19, 24, 22, 21, 35, 36, 19, 19]
48.164[19, 24, 24, 21, 34, 35, 20, 21]
48.187[21, 25, 24, 23, 34, 35, 22, 21]
48.202[20, 24, 23, 21, 30, 33, 22, 20]
48.224[21, 24, 24, 23, 32, 30, 23, 21]
48.248[21, 23, 24, 23, 34, 27, 24, 22]
48.261[22, 25, 24, 23, 41, 35, 23, 20]
48.284[20, 22, 24, 23, 42, 34, 23, 20]
48.307[24, 23, 25, 24, 42, 33, 21, 18]
48.321[21, 21, 24, 22, 41, 35, 22, 17]
48.344[20, 20, 22, 23, 38, 36, 21, 17]
48.367[20, 19, 21, 22, 35, 32, 22, 18]
48.381[22, 20, 22, 20, 37, 31, 23, 17]
48.404[18, 24, 21, 19, 36, 29, 22, 20]
48.427[19, 26, 21, 20, 35, 28, 21, 20]
48.441[21, 26, 24, 19, 33, 29, 21, 21]
48.465[20, 26, 23, 19, 29, 26, 20, 21]
48.487[19, 26, 23, 21, 25, 28, 21, 20]
48.501[21, 24, 24, 21, 31, 40, 20, 18]
48.524[21, 22, 23, 22, 38, 41, 20, 22]
48.547[19, 21, 20, 20, 38, 39, 21, 21]
48.57[20, 21, 22, 22, 39, 42, 21, 22]
48.584[20, 23, 21, 20, 39, 41, 19, 23]
48.608[19, 21, 21, 21, 35, 29, 20, 24]
48.621[18, 19, 22, 19, 32, 35, 21, 20]
48.644[18, 22, 24, 22, 34, 34, 21, 22]
48.667[18, 21, 22, 21, 31, 31, 21, 21]
48.681[19, 20, 21, 23, 36, 34, 20, 21]
48.705[19, 21, 21, 23, 36, 33, 20, 23]
48.728[19, 22, 20, 23, 30, 26, 19, 23]
48.742[19, 21, 17, 21, 30, 28, 19, 22]
48.765[19, 21, 18, 21, 33, 29, 22, 21]
48.787[19, 21, 20, 21, 31, 30, 22, 20]
48.801[19, 23, 20, 21, 34, 30, 21, 18]
48.825[20, 22, 21, 21, 37, 32, 22, 20]
48.847[19, 21, 22, 22, 37, 31, 20, 20]
48.861[18, 23, 23, 21, 41, 34, 18, 20]
48.885[18, 22, 24, 23, 38, 32, 19, 20]
48.907[17, 21, 24, 23, 41, 32, 21, 19]
48.921[18, 22, 22, 24, 39, 30, 19, 19]
48.945[18, 23, 27, 23, 40, 32, 20, 18]
48.967[18, 21, 26, 24, 35, 31, 21, 19]
48.99[20, 21, 26, 23, 36, 32, 21, 22]
49.005[20, 21, 26, 23, 34, 32, 22, 21]
49.027[20, 23, 27, 21, 34, 33, 23, 22]
49.05[22, 22, 23, 21, 34, 33, 24, 22]
49.065[21, 22, 22, 19, 35, 31, 24, 20]
49.087[21, 21, 22, 20, 35, 30, 24, 17]
49.11[21, 22, 26, 22, 32, 33, 22, 19]
49.125[19, 22, 26, 22, 36, 34, 22, 16]
49.147[17, 22, 26, 22, 36, 32, 19, 17]
49.17[16, 23, 28, 23, 35, 32, 20, 18]
49.185[18, 22, 28, 20, 35, 32, 19, 19]
49.207[18, 22, 25, 18, 35, 27, 19, 20]
49.23[19, 21, 24, 18, 31, 24, 20, 20]
49.245[20, 21, 24, 21, 33, 25, 21, 22]
49.267[22, 22, 24, 21, 36, 27, 18, 21]
49.29[20, 24, 23, 23, 35, 27, 18, 21]
49.305[19, 22, 24, 22, 37, 32, 20, 20]
49.327[19, 22, 24, 23, 36, 35, 18, 21]
49.349[18, 22, 25, 21, 35, 33, 18, 18]
49.365[18, 23, 24, 21, 30, 32, 21, 18]
49.387[17, 21, 24, 20, 28, 32, 21, 20]
49.409[16, 22, 23, 23, 28, 29, 20, 19]
49.425[17, 25, 25, 23, 31, 30, 23, 19]
49.447[19, 23, 23, 23, 30, 38, 22, 19]
49.47[18, 23, 26, 24, 32, 39, 21, 22]
49.484[19, 22, 25, 24, 36, 40, 22, 20]
49.507[19, 23, 27, 21, 33, 39, 21, 21]
49.537[20, 21, 25, 20, 34, 36, 17, 21]
49.544[18, 22, 26, 19, 36, 30, 20, 21]
49.575[17, 21, 23, 17, 35, 29, 20, 18]
49.589[19, 22, 23, 17, 31, 28, 21, 18]
49.604[20, 21, 21, 19, 30, 26, 20, 18]
49.627[18, 21, 22, 20, 34, 28, 21, 17]
49.65[19, 19, 22, 21, 34, 28, 19, 19]
49.664[20, 19, 23, 21, 39, 31, 19, 19]
49.687[19, 18, 22, 20, 41, 32, 19, 21]
49.709[19, 18, 23, 23, 42, 34, 19, 21]
49.732[23, 19, 25, 23, 39, 32, 21, 22]
49.747[23, 19, 25, 21, 40, 32, 21, 22]
49.77[22, 21, 24, 22, 36, 28, 22, 22]
49.792[21, 21, 25, 25, 41, 32, 21, 22]
49.808[21, 21, 25, 22, 42, 31, 22, 24]
49.83[17, 22, 21, 22, 40, 31, 20, 24]
49.852[15, 21, 21, 24, 37, 30, 20, 22]
49.867[17, 22, 22, 22, 38, 32, 19, 21]
49.897[18, 22, 20, 19, 30, 29, 18, 20]
49.912[16, 22, 18, 21, 28, 29, 18, 19]
49.927[17, 22, 20, 21, 27, 30, 18, 19]
49.95[17, 23, 21, 23, 29, 31, 18, 19]
49.972[16, 22, 20, 24, 29, 31, 19, 18]
49.987[15, 21, 22, 26, 33, 29, 19, 19]
50.017[16, 20, 22, 28, 36, 31, 19, 18]
50.032[15, 21, 24, 27, 37, 35, 20, 18]
50.047[17, 19, 24, 25, 36, 34, 19, 20]
50.069[17, 22, 25, 23, 34, 34, 20, 19]
50.092[19, 22, 24, 23, 32, 34, 20, 19]
50.107[20, 21, 25, 17, 33, 36, 22, 19]
50.13[21, 20, 24, 20, 35, 35, 21, 18]
50.152[20, 22, 23, 20, 35, 38, 23, 17]
50.167[19, 21, 23, 20, 36, 38, 23, 18]
50.19[19, 23, 23, 21, 36, 39, 23, 18]
50.212[18, 23, 23, 22, 34, 34, 21, 18]
50.227[17, 24, 23, 21, 33, 36, 21, 21]
50.257[17, 24, 22, 21, 32, 36, 21, 20]
50.272[17, 23, 21, 24, 32, 37, 19, 22]
50.287[17, 22, 20, 23, 32, 37, 20, 21]
50.31[17, 22, 19, 24, 37, 44, 19, 21]
50.332[17, 21, 17, 22, 37, 40, 23, 20]
50.348[17, 20, 18, 23, 37, 37, 22, 21]
50.37[16, 18, 18, 21, 38, 37, 21, 19]
50.392[17, 21, 22, 20, 38, 36, 22, 22]
50.415[16, 20, 22, 19, 37, 30, 24, 21]
50.43[18, 22, 22, 21, 33, 31, 21, 19]
50.46[20, 21, 23, 21, 35, 31, 22, 20]
50.468[21, 25, 24, 20, 35, 30, 22, 20]
50.49[21, 22, 21, 23, 35, 32, 21, 17]
50.513[22, 23, 21, 23, 35, 34, 21, 17]
50.528[20, 22, 20, 22, 39, 34, 21, 20]
50.549[19, 26, 20, 23, 39, 33, 20, 18]
50.571[19, 22, 20, 23, 37, 35, 21, 19]
50.588[19, 23, 21, 22, 39, 32, 21, 21]
50.609[20, 24, 21, 21, 36, 28, 19, 20]
50.632[20, 23, 23, 20, 36, 26, 18, 18]
50.648[21, 23, 23, 21, 39, 28, 19, 17]
50.669
