[20, 24, 19, 20, 19, 21, 21, 17]
0.82[22, 25, 22, 21, 20, 25, 22, 18]
0.844[22, 25, 22, 22, 18, 25, 21, 20]
0.866[22, 23, 24, 21, 20, 26, 23, 23]
0.881[23, 23, 23, 19, 22, 27, 22, 24]
0.903[25, 21, 22, 23, 23, 24, 21, 23]
0.926[23, 22, 19, 23, 22, 20, 18, 22]
0.944[23, 22, 22, 23, 21, 20, 21, 21]
0.963[25, 21, 20, 24, 22, 17, 20, 20]
0.986[24, 20, 20, 26, 19, 18, 20, 21]
1.001[20, 21, 22, 24, 20, 20, 21, 21]
1.024[21, 19, 23, 23, 21, 22, 22, 21]
1.046[21, 20, 20, 22, 23, 21, 22, 20]
1.061[18, 20, 21, 23, 22, 23, 21, 19]
1.084[21, 20, 21, 20, 22, 23, 21, 17]
1.106[20, 19, 20, 18, 20, 23, 22, 20]
1.121[19, 36, 21, 21, 21, 22, 21, 19]
1.144[19, 37, 22, 23, 18, 21, 20, 20]
1.174[21, 38, 22, 22, 19, 22, 21, 19]
1.188[21, 39, 24, 22, 19, 23, 21, 19]
1.204[22, 41, 23, 22, 19, 22, 20, 19]
1.226[22, 28, 22, 21, 21, 21, 20, 19]
1.248[22, 26, 21, 19, 23, 21, 21, 18]
1.271[21, 26, 20, 19, 22, 22, 21, 18]
1.286[18, 23, 19, 21, 21, 20, 22, 18]
1.308[19, 22, 20, 21, 19, 25, 22, 16]
1.323[21, 20, 19, 21, 15, 25, 23, 16]
1.346[20, 20, 18, 21, 12, 26, 20, 19]
1.368[20, 18, 18, 21, 12, 23, 21, 19]
1.391[20, 18, 18, 18, 13, 24, 22, 21]
1.406[18, 17, 20, 18, 14, 24, 21, 21]
1.428[15, 17, 20, 20, 16, 26, 24, 21]
1.444[13, 18, 20, 21, 19, 26, 25, 19]
1.468[14, 17, 21, 21, 19, 28, 24, 19]
1.488[14, 21, 22, 21, 21, 28, 23, 17]
1.51[15, 20, 22, 23, 21, 23, 24, 16]
1.525[18, 20, 25, 22, 20, 22, 20, 17]
1.548[19, 20, 24, 21, 18, 23, 20, 18]
1.563[18, 21, 23, 20, 19, 22, 19, 18]
1.585[19, 18, 21, 20, 23, 23, 18, 20]
1.608[19, 21, 23, 17, 22, 23, 17, 20]
1.624[19, 23, 20, 18, 23, 21, 18, 19]
1.646[20, 21, 21, 18, 23, 22, 17, 19]
1.668[22, 23, 22, 20, 25, 21, 17, 19]
1.684[21, 23, 22, 20, 21, 22, 18, 18]
1.706[19, 21, 21, 20, 22, 22, 17, 19]
1.728[19, 19, 22, 21, 22, 24, 19, 20]
1.752[18, 22, 24, 21, 24, 23, 21, 20]
1.773[15, 21, 24, 20, 21, 24, 20, 21]
1.787[18, 21, 24, 21, 22, 22, 19, 20]
1.811[21, 23, 21, 22, 23, 22, 19, 20]
1.833[20, 23, 21, 22, 23, 20, 17, 21]
1.847[21, 20, 19, 21, 22, 21, 16, 19]
1.871[22, 21, 21, 22, 23, 20, 19, 19]
1.893[21, 22, 22, 21, 21, 21, 18, 19]
1.907[19, 19, 24, 20, 19, 22, 19, 19]
1.931[20, 19, 23, 21, 21, 21, 19, 19]
1.953[19, 21, 22, 21, 21, 19, 19, 20]
1.967[18, 20, 21, 20, 23, 20, 16, 18]
1.991[16, 20, 20, 20, 23, 21, 17, 19]
2.029[18, 22, 19, 21, 24, 20, 16, 21]
2.03[16, 22, 20, 19, 23, 20, 16, 20]
2.051[17, 23, 20, 18, 22, 22, 18, 20]
2.073[18, 22, 19, 17, 20, 20, 18, 21]
2.087[31, 21, 22, 17, 20, 19, 18, 21]
2.111[31, 22, 22, 17, 21, 19, 18, 20]
2.133[32, 21, 21, 18, 21, 19, 18, 20]
2.147[33, 19, 22, 18, 22, 19, 17, 19]
2.171[33, 23, 22, 18, 21, 19, 17, 18]
2.193[24, 22, 20, 18, 22, 19, 16, 16]
2.207[23, 22, 22, 21, 21, 20, 15, 16]
2.231[22, 23, 21, 20, 22, 23, 15, 16]
2.253[21, 23, 21, 20, 22, 23, 15, 16]
2.267[20, 20, 21, 20, 23, 22, 15, 16]
2.298[20, 21, 23, 23, 22, 21, 19, 19]
2.313[20, 21, 23, 20, 22, 21, 20, 19]
2.327[21, 20, 23, 21, 19, 22, 20, 19]
2.351[22, 21, 23, 21, 18, 22, 20, 19]
2.373[23, 20, 23, 21, 16, 23, 20, 20]
2.387[21, 20, 21, 20, 16, 22, 18, 19]
2.411[21, 20, 18, 22, 20, 21, 17, 19]
2.433[20, 21, 21, 22, 20, 18, 18, 20]
2.447[18, 19, 20, 22, 22, 18, 19, 22]
2.471[17, 20, 22, 24, 22, 16, 21, 21]
2.501[16, 22, 21, 25, 23, 16, 21, 20]
2.508[16, 21, 22, 23, 20, 17, 21, 18]
2.531[16, 20, 21, 20, 21, 16, 21, 20]
2.553[19, 25, 20, 20, 20, 18, 23, 18]
2.567[21, 24, 20, 20, 21, 17, 23, 18]
2.591[20, 23, 20, 16, 21, 18, 21, 19]
2.62[21, 23, 20, 16, 21, 18, 23, 20]
2.627[21, 23, 19, 16, 21, 18, 22, 18]
2.658[19, 19, 21, 18, 24, 17, 20, 18]
2.673[17, 21, 22, 16, 24, 21, 20, 18]
2.696[19, 22, 22, 17, 22, 21, 22, 17]
2.711[19, 21, 22, 20, 23, 21, 22, 17]
2.741[18, 21, 23, 20, 25, 23, 21, 17]
2.756[20, 21, 23, 21, 23, 23, 22, 18]
2.771[20, 20, 21, 21, 22, 22, 22, 20]
2.793[21, 18, 21, 21, 23, 22, 21, 20]
2.815[21, 17, 22, 19, 22, 22, 23, 20]
2.831[21, 19, 20, 20, 20, 22, 22, 21]
2.853[19, 17, 22, 17, 20, 21, 22, 21]
2.876[18, 21, 22, 18, 22, 19, 21, 19]
2.898[17, 21, 24, 21, 21, 20, 20, 20]
2.913[18, 24, 25, 22, 20, 20, 18, 20]
2.935[19, 23, 26, 22, 21, 20, 20, 19]
2.951[17, 23, 23, 24, 21, 21, 19, 19]
2.981[19, 20, 24, 23, 19, 21, 20, 21]
2.996[19, 20, 21, 24, 22, 23, 20, 19]
3.018[19, 17, 20, 23, 24, 23, 20, 20]
3.033[18, 15, 20, 23, 23, 23, 18, 19]
3.056[19, 16, 22, 21, 22, 22, 18, 17]
3.071[20, 16, 22, 20, 21, 23, 16, 15]
3.093[20, 18, 21, 19, 19, 21, 16, 18]
3.116[20, 19, 21, 19, 17, 21, 18, 18]
3.131[19, 19, 22, 20, 17, 22, 18, 18]
3.153[18, 23, 20, 21, 20, 24, 21, 18]
3.175[17, 23, 21, 22, 19, 23, 22, 19]
3.19[17, 21, 22, 22, 20, 24, 23, 16]
3.213[16, 22, 22, 21, 20, 24, 21, 16]
3.236[17, 22, 22, 20, 20, 22, 22, 18]
3.25[20, 23, 23, 22, 19, 19, 20, 18]
3.28[19, 23, 22, 21, 20, 19, 18, 18]
3.295[21, 24, 22, 20, 20, 19, 19, 20]
3.31[21, 22, 21, 21, 21, 17, 19, 19]
3.333[22, 22, 21, 20, 20, 18, 18, 19]
3.356[20, 18, 21, 20, 18, 18, 19, 21]
3.37[22, 19, 22, 22, 21, 17, 19, 21]
3.393[20, 18, 21, 23, 19, 16, 18, 20]
3.415[19, 20, 21, 24, 21, 17, 18, 20]
3.43[19, 21, 21, 24, 22, 17, 19, 21]
3.453[19, 22, 21, 23, 24, 16, 19, 21]
3.475[19, 21, 20, 21, 22, 17, 22, 21]
3.49[18, 23, 20, 20, 25, 19, 21, 23]
3.513[19, 22, 21, 20, 23, 19, 22, 23]
3.536[19, 25, 19, 20, 21, 20, 21, 21]
3.55[21, 24, 18, 19, 20, 22, 20, 22]
3.574[20, 25, 17, 21, 21, 23, 19, 22]
3.596[21, 23, 18, 22, 19, 21, 20, 19]
3.61[19, 23, 17, 21, 19, 22, 22, 20]
3.633[20, 21, 19, 22, 21, 21, 22, 21]
3.655[18, 22, 19, 21, 20, 20, 22, 20]
3.678[18, 21, 19, 21, 19, 17, 22, 20]
3.693[17, 23, 19, 20, 20, 18, 22, 20]
3.716[16, 22, 18, 20, 22, 17, 21, 19]
3.738[16, 23, 20, 19, 20, 19, 20, 17]
3.754[16, 21, 20, 20, 20, 20, 20, 18]
3.775[16, 21, 21, 21, 20, 22, 19, 18]
3.798[18, 20, 21, 20, 20, 21, 18, 19]
3.814[18, 21, 21, 22, 18, 21, 18, 19]
3.835[18, 19, 20, 22, 18, 19, 19, 18]
3.858[17, 19, 20, 22, 20, 19, 21, 16]
3.874[20, 20, 20, 21, 20, 18, 21, 19]
3.895[18, 21, 19, 22, 20, 19, 21, 18]
3.918[18, 21, 20, 21, 21, 18, 21, 17]
3.934[17, 21, 20, 21, 22, 19, 19, 19]
3.955[17, 21, 19, 21, 20, 20, 17, 19]
3.977[15, 21, 19, 20, 20, 22, 18, 20]
3.994[17, 19, 21, 19, 21, 22, 18, 19]
4.015[17, 19, 21, 19, 20, 24, 18, 20]
4.045[17, 18, 20, 18, 19, 24, 18, 19]
4.054[20, 19, 21, 19, 21, 24, 18, 19]
4.091[19, 18, 20, 18, 22, 22, 19, 19]
4.098[19, 20, 22, 20, 21, 22, 17, 18]
4.114[19, 18, 20, 20, 25, 20, 18, 19]
4.135[21, 18, 21, 20, 24, 22, 18, 19]
4.165[19, 20, 21, 19, 22, 21, 19, 18]
4.174[21, 20, 20, 20, 24, 20, 18, 20]
4.195[21, 19, 17, 20, 22, 19, 19, 19]
4.219[21, 21, 20, 18, 21, 18, 19, 18]
4.24[20, 23, 18, 20, 21, 19, 19, 19]
4.255[23, 20, 19, 21, 22, 18, 20, 19]
4.277[21, 20, 19, 22, 20, 18, 20, 16]
4.294[20, 22, 22, 20, 23, 19, 19, 18]
4.322[23, 22, 20, 21, 20, 17, 18, 18]
4.337[22, 24, 22, 21, 20, 16, 19, 18]
4.354[20, 25, 22, 21, 21, 16, 17, 18]
4.375[19, 25, 23, 19, 21, 16, 20, 18]
4.398[19, 22, 23, 22, 20, 18, 20, 18]
4.414[15, 24, 24, 21, 22, 20, 21, 17]
4.442[17, 25, 23, 20, 23, 19, 20, 17]
4.458[16, 24, 22, 22, 21, 20, 19, 18]
4.481[18, 25, 24, 23, 21, 20, 20, 18]
4.495[19, 27, 21, 21, 23, 19, 21, 18]
4.517[21, 25, 22, 22, 22, 21, 20, 18]
4.534[20, 23, 22, 22, 21, 20, 21, 18]
4.555[21, 24, 22, 20, 23, 22, 21, 17]
4.578[19, 24, 20, 21, 23, 22, 19, 17]
4.6[20, 23, 21, 21, 21, 22, 19, 19]
4.615[18, 23, 19, 21, 21, 21, 19, 20]
4.639[18, 21, 20, 20, 19, 22, 18, 19]
4.66[16, 23, 20, 19, 19, 20, 18, 21]
4.675[18, 22, 20, 18, 18, 20, 19, 21]
4.698[17, 23, 21, 18, 18, 20, 18, 20]
4.72[18, 22, 20, 20, 20, 18, 18, 20]
4.735[21, 24, 20, 22, 20, 18, 23, 20]
4.758[21, 21, 23, 23, 19, 18, 22, 20]
4.78[20, 21, 24, 23, 19, 19, 21, 21]
4.796[20, 21, 25, 22, 21, 19, 21, 20]
4.818[22, 22, 25, 19, 21, 20, 21, 21]
4.841[20, 21, 25, 19, 21, 20, 16, 22]
4.855[21, 23, 25, 21, 22, 20, 17, 21]
4.878[22, 24, 24, 21, 22, 18, 16, 20]
4.9[23, 23, 23, 21, 20, 19, 17, 19]
4.915[20, 21, 22, 23, 20, 19, 18, 17]
4.938[19, 21, 24, 21, 21, 22, 18, 16]
4.961[20, 20, 21, 20, 21, 21, 18, 15]
4.975[21, 21, 23, 19, 21, 23, 20, 14]
4.998[22, 20, 23, 19, 21, 22, 19, 14]
5.02[22, 20, 23, 19, 21, 22, 19, 16]
5.035[23, 22, 22, 18, 21, 21, 21, 16]
5.058[21, 22, 23, 18, 21, 21, 21, 17]
5.082[22, 22, 22, 18, 22, 21, 22, 19]
5.095[22, 23, 22, 19, 22, 22, 22, 18]
5.119[21, 24, 24, 19, 20, 21, 22, 17]
5.14[23, 24, 22, 20, 22, 21, 21, 17]
5.156[22, 23, 21, 20, 20, 21, 20, 18]
5.177[23, 22, 20, 20, 20, 19, 18, 19]
5.201[21, 23, 22, 19, 21, 19, 19, 22]
5.215[23, 22, 19, 19, 23, 20, 20, 23]
5.237[21, 20, 19, 18, 21, 19, 20, 22]
5.26[20, 23, 22, 18, 22, 19, 22, 21]
5.275[21, 23, 22, 19, 22, 18, 22, 19]
5.297[21, 24, 20, 20, 21, 18, 21, 17]
5.32[20, 23, 22, 21, 21, 17, 20, 17]
5.335[22, 26, 22, 21, 24, 19, 18, 17]
5.358[21, 22, 20, 22, 22, 22, 17, 18]
5.38[19, 24, 19, 20, 21, 24, 17, 17]
5.395[21, 24, 21, 19, 22, 26, 17, 18]
5.418[21, 24, 23, 20, 21, 25, 17, 19]
5.44[21, 22, 24, 20, 18, 23, 17, 19]
5.455[22, 23, 23, 18, 18, 21, 16, 18]
5.479[24, 21, 23, 19, 18, 20, 16, 19]
5.5[21, 20, 24, 19, 18, 20, 17, 18]
5.522[21, 24, 21, 17, 20, 20, 19, 16]
5.537[19, 22, 19, 19, 20, 22, 19, 19]
5.56[19, 26, 20, 19, 22, 22, 19, 22]
5.583[18, 25, 20, 19, 23, 24, 17, 22]
5.605[18, 25, 18, 19, 24, 23, 18, 22]
5.62[19, 21, 19, 19, 24, 23, 17, 24]
5.642[23, 23, 19, 18, 23, 24, 19, 22]
5.658[23, 19, 19, 19, 24, 24, 20, 20]
5.68[24, 19, 20, 19, 24, 22, 21, 20]
5.702[25, 20, 20, 19, 22, 23, 21, 20]
5.717[25, 21, 19, 17, 21, 22, 20, 20]
5.74[21, 21, 19, 17, 22, 23, 19, 20]
5.762[21, 20, 21, 17, 22, 21, 17, 20]
5.778[20, 20, 21, 17, 21, 21, 18, 18]
5.8[19, 21, 22, 17, 21, 20, 18, 15]
5.822[19, 19, 23, 18, 23, 20, 19, 18]
5.838[19, 18, 23, 20, 23, 19, 18, 16]
5.868[19, 17, 23, 20, 22, 20, 19, 17]
5.883[18, 19, 21, 20, 19, 21, 18, 19]
5.897[17, 17, 21, 21, 21, 22, 19, 21]
5.92[18, 19, 19, 21, 21, 22, 18, 20]
5.942[18, 19, 21, 20, 22, 22, 19, 21]
5.957[18, 20, 21, 20, 24, 22, 20, 20]
5.988[19, 20, 20, 23, 25, 19, 20, 19]
6.003[19, 20, 22, 23, 25, 18, 20, 18]
6.017[18, 21, 23, 24, 24, 22, 19, 18]
6.04[17, 20, 22, 24, 22, 21, 18, 17]
6.063[16, 21, 22, 24, 20, 21, 19, 19]
6.077[17, 23, 24, 21, 19, 24, 19, 20]
6.1[19, 23, 23, 21, 19, 24, 19, 19]
6.123[19, 22, 22, 25, 21, 23, 22, 20]
6.137[19, 24, 22, 25, 21, 21, 22, 20]
6.16[21, 23, 21, 25, 24, 22, 20, 20]
6.183[20, 20, 19, 26, 24, 22, 21, 20]
6.197[19, 20, 21, 26, 23, 22, 20, 20]
6.228[23, 21, 20, 21, 23, 21, 20, 20]
6.243[22, 18, 22, 20, 24, 24, 21, 20]
6.258[21, 17, 24, 19, 23, 23, 21, 20]
6.28[22, 16, 24, 18, 24, 21, 20, 17]
6.303[22, 17, 22, 17, 24, 20, 21, 17]
6.318[20, 17, 23, 17, 23, 20, 20, 17]
6.34[20, 19, 22, 17, 24, 18, 18, 18]
6.363[19, 22, 22, 17, 23, 18, 18, 19]
6.386[18, 24, 22, 18, 21, 23, 17, 19]
6.4[20, 25, 22, 18, 21, 27, 18, 19]
6.422[18, 25, 23, 21, 20, 27, 17, 18]
6.439[19, 24, 22, 20, 20, 27, 17, 18]
6.46[19, 23, 21, 20, 20, 27, 19, 16]
6.483[26, 23, 21, 20, 21, 25, 20, 16]
6.506[27, 21, 22, 21, 22, 22, 19, 17]
6.52[26, 24, 20, 19, 22, 22, 20, 18]
6.543[25, 24, 21, 19, 21, 24, 20, 17]
6.566[25, 24, 22, 20, 23, 24, 18, 17]
6.58[17, 22, 23, 19, 22, 21, 19, 19]
6.602[17, 23, 21, 20, 21, 20, 19, 19]
6.626[19, 21, 24, 19, 21, 22, 19, 18]
6.64[24, 20, 22, 19, 22, 20, 19, 19]
6.662[24, 21, 22, 20, 20, 20, 19, 20]
6.685[23, 22, 21, 21, 20, 24, 17, 21]
6.7[23, 21, 23, 18, 23, 23, 16, 20]
6.722[23, 21, 23, 19, 22, 21, 15, 20]
6.746[19, 22, 25, 19, 23, 22, 19, 21]
6.76[21, 19, 23, 22, 23, 22, 18, 21]
6.782[22, 19, 24, 21, 23, 19, 19, 20]
6.806[19, 21, 22, 21, 20, 19, 21, 19]
6.82[22, 25, 20, 20, 20, 19, 22, 19]
6.842[22, 25, 20, 21, 19, 21, 18, 19]
6.866[22, 25, 22, 17, 20, 23, 18, 18]
6.88[21, 24, 20, 18, 19, 23, 21, 21]
6.903[23, 23, 20, 19, 19, 24, 20, 20]
6.926[22, 19, 22, 21, 22, 26, 20, 21]
6.94[23, 19, 22, 20, 22, 26, 20, 21]
6.964[22, 21, 19, 21, 22, 24, 21, 21]
6.986[22, 22, 19, 22, 22, 27, 17, 21]
7.0[21, 21, 21, 20, 22, 26, 20, 22]
7.023[20, 23, 20, 21, 21, 27, 19, 21]
7.046[19, 22, 21, 21, 21, 26, 20, 19]
7.06[20, 22, 22, 20, 20, 26, 20, 19]
7.083[19, 23, 22, 20, 19, 23, 21, 17]
7.106[20, 23, 21, 20, 20, 23, 18, 17]
7.12[21, 20, 21, 19, 22, 22, 20, 17]
7.143[21, 22, 19, 18, 22, 19, 19, 16]
7.166[19, 19, 20, 20, 22, 19, 21, 17]
7.18[22, 21, 20, 21, 25, 21, 20, 16]
7.203[20, 21, 20, 21, 25, 20, 19, 14]
7.226[17, 25, 22, 22, 21, 20, 20, 15]
7.24[18, 26, 22, 23, 21, 20, 21, 15]
7.263[19, 27, 23, 20, 22, 23, 20, 14]
7.286[18, 26, 24, 21, 21, 20, 20, 15]
7.3[21, 27, 26, 22, 20, 22, 22, 15]
7.323[23, 23, 23, 19, 23, 22, 21, 16]
7.345[24, 21, 22, 20, 24, 21, 20, 16]
7.36[24, 21, 22, 20, 25, 18, 20, 16]
7.383[24, 18, 22, 19, 23, 19, 19, 17]
7.405[24, 18, 20, 19, 23, 20, 19, 17]
7.428[22, 18, 20, 19, 21, 20, 17, 18]
7.443[21, 19, 22, 20, 21, 21, 15, 18]
7.466[22, 20, 23, 19, 22, 21, 15, 18]
7.488[23, 20, 22, 21, 24, 20, 16, 18]
7.503[20, 21, 25, 22, 24, 21, 16, 19]
7.525[23, 21, 24, 22, 24, 20, 17, 19]
7.548[22, 22, 22, 22, 24, 19, 20, 19]
7.571[20, 20, 21, 22, 23, 20, 19, 19]
7.585[22, 21, 22, 23, 25, 22, 22, 19]
7.615[23, 21, 21, 22, 25, 19, 21, 19]
7.623[21, 23, 21, 22, 25, 21, 24, 19]
7.645[23, 20, 22, 21, 23, 23, 22, 19]
7.668[25, 23, 22, 23, 23, 23, 21, 19]
7.683[21, 22, 21, 19, 21, 21, 18, 22]
7.705[21, 23, 20, 17, 20, 23, 20, 21]
7.728[22, 24, 21, 20, 23, 20, 17, 20]
7.743[20, 23, 21, 20, 22, 19, 17, 20]
7.773[20, 22, 19, 20, 24, 22, 18, 22]
7.788[21, 25, 21, 22, 25, 21, 20, 19]
7.803[23, 23, 20, 22, 25, 20, 20, 19]
7.826[21, 21, 21, 21, 24, 20, 20, 18]
7.848[23, 23, 22, 21, 25, 24, 21, 19]
7.863[22, 23, 22, 20, 24, 23, 22, 16]
7.886[21, 21, 18, 20, 22, 25, 19, 16]
7.908[22, 23, 18, 21, 23, 25, 19, 18]
7.922[21, 23, 15, 21, 24, 26, 20, 20]
7.946[20, 22, 15, 20, 23, 24, 19, 21]
7.968[20, 23, 19, 22, 21, 22, 19, 20]
7.983[23, 25, 20, 22, 23, 21, 21, 20]
8.013[23, 23, 22, 21, 22, 21, 22, 19]
8.028[23, 23, 22, 22, 19, 20, 21, 19]
8.042[24, 24, 23, 22, 19, 20, 22, 17]
8.066[24, 22, 22, 22, 20, 19, 21, 18]
8.088[27, 20, 23, 23, 19, 17, 23, 17]
8.102[26, 22, 23, 23, 20, 20, 21, 18]
8.133[29, 23, 24, 22, 21, 24, 21, 17]
8.148[30, 22, 23, 24, 20, 23, 21, 20]
8.17[29, 25, 23, 23, 26, 25, 20, 20]
8.185[28, 26, 23, 22, 33, 28, 17, 21]
8.208[30, 23, 22, 21, 35, 25, 18, 21]
8.223[28, 25, 21, 20, 37, 21, 19, 20]
8.245[31, 25, 20, 19, 38, 30, 20, 18]
8.268[35, 23, 18, 17, 35, 31, 20, 18]
8.282[34, 22, 19, 17, 28, 28, 29, 20]
8.306[35, 23, 20, 18, 25, 29, 29, 22]
8.328[38, 20, 18, 17, 22, 31, 27, 22]
8.351[35, 23, 24, 19, 25, 23, 26, 21]
8.365[32, 22, 24, 22, 27, 22, 25, 20]
8.388[30, 22, 23, 24, 28, 21, 13, 18]
8.411[28, 23, 22, 24, 28, 27, 13, 17]
8.426[28, 24, 22, 24, 27, 25, 15, 19]
8.448[48, 22, 17, 21, 24, 29, 15, 19]
8.471[60, 22, 20, 19, 21, 29, 17, 18]
8.486[60, 26, 20, 19, 23, 31, 20, 18]
8.508[59, 32, 20, 20, 26, 28, 22, 17]
8.531[57, 32, 22, 20, 28, 28, 29, 20]
8.545[41, 33, 20, 20, 33, 25, 29, 21]
8.569[26, 36, 20, 21, 37, 25, 31, 21]
8.591[26, 36, 21, 21, 37, 22, 30, 21]
8.606[30, 32, 21, 21, 43, 20, 30, 23]
8.628[38, 31, 18, 28, 44, 21, 29, 20]
8.65[40, 35, 19, 40, 40, 19, 37, 19]
8.666[51, 35, 18, 72, 39, 19, 36, 21]
8.687[67, 34, 17, 90, 40, 20, 38, 32]
8.71[70, 31, 17, 94, 50, 21, 37, 44]
8.726[70, 34, 18, 95, 58, 26, 33, 51]
8.747[72, 29, 19, 93, 61, 26, 25, 52]
8.77[64, 25, 22, 73, 60, 25, 26, 51]
8.786[67, 22, 22, 48, 62, 25, 22, 45]
8.809[64, 24, 22, 40, 52, 31, 23, 35]
8.83[67, 29, 23, 34, 45, 31, 28, 28]
8.846[64, 29, 23, 29, 48, 32, 34, 40]
8.867[68, 37, 21, 25, 48, 36, 33, 41]
8.89[61, 41, 22, 26, 42, 35, 39, 47]
8.906[63, 39, 21, 27, 39, 33, 42, 48]
8.935[57, 36, 20, 24, 37, 29, 41, 48]
8.951[64, 46, 21, 23, 27, 28, 35, 42]
8.966[73, 40, 23, 22, 28, 21, 40, 50]
8.987[66, 37, 25, 22, 29, 34, 40, 47]
9.01[66, 41, 26, 26, 35, 31, 41, 51]
9.026[66, 44, 26, 31, 53, 31, 56, 54]
9.047[60, 33, 26, 31, 58, 34, 67, 56]
9.07[47, 34, 24, 30, 59, 35, 66, 56]
9.086[49, 38, 23, 28, 59, 33, 66, 54]
9.107[49, 34, 21, 24, 55, 34, 68, 56]
9.13[49, 38, 23, 19, 47, 37, 57, 51]
9.146[45, 43, 25, 17, 43, 35, 56, 45]
9.167[39, 48, 28, 20, 44, 36, 56, 48]
9.197[36, 49, 27, 22, 45, 29, 54, 62]
9.206[33, 54, 27, 22, 48, 29, 50, 63]
9.227[32, 53, 27, 21, 40, 35, 48, 65]
9.25[37, 52, 25, 22, 40, 37, 32, 65]
9.266[56, 47, 23, 24, 38, 38, 28, 57]
9.287[57, 47, 26, 23, 39, 48, 25, 41]
9.311[59, 42, 29, 23, 36, 52, 30, 34]
9.332[62, 39, 29, 24, 35, 50, 30, 31]
9.347[67, 33, 27, 25, 41, 54, 29, 34]
9.37[55, 32, 26, 23, 40, 54, 30, 40]
9.392[55, 25, 22, 24, 43, 47, 30, 42]
9.407[50, 27, 16, 24, 45, 42, 24, 45]
9.43[47, 30, 15, 24, 44, 40, 25, 45]
9.452[42, 32, 17, 27, 37, 34, 25, 43]
9.467[40, 32, 21, 29, 36, 34, 24, 36]
9.49[40, 34, 23, 28, 31, 31, 24, 32]
9.522[36, 35, 24, 27, 28, 34, 26, 22]
9.527[44, 31, 28, 26, 30, 39, 29, 64]
9.55[37, 28, 30, 23, 29, 43, 33, 76]
9.572[39, 28, 30, 18, 37, 42, 40, 84]
9.587[40, 26, 29, 19, 41, 44, 46, 94]
9.61[42, 41, 29, 20, 39, 43, 46, 97]
9.633[37, 41, 28, 21, 46, 39, 44, 81]
9.647[40, 43, 25, 20, 50, 39, 43, 70]
9.67[39, 49, 25, 22, 51, 36, 36, 60]
9.692[50, 51, 25, 21, 52, 35, 28, 43]
9.707[51, 40, 26, 23, 54, 35, 28, 35]
9.73[50, 39, 25, 23, 45, 34, 27, 24]
9.754[48, 39, 24, 24, 42, 26, 43, 25]
9.769[48, 47, 24, 24, 48, 29, 51, 23]
9.79[32, 50, 23, 24, 44, 32, 56, 23]
9.812[31, 48, 21, 25, 44, 30, 58, 22]
9.827[34, 49, 23, 25, 44, 31, 57, 19]
9.85[35, 46, 24, 26, 44, 33, 115, 20]
9.874[33, 33, 22, 26, 31, 39, 129, 29]
9.887[35, 27, 23, 26, 35, 38, 130, 30]
9.91[37, 35, 23, 23, 37, 42, 130, 32]
9.932[36, 37, 24, 23, 37, 49, 133, 35]
9.955[43, 39, 24, 22, 44, 57, 87, 34]
9.97[44, 43, 22, 21, 45, 71, 62, 27]
9.992[44, 42, 26, 23, 42, 73, 55, 28]
10.007[41, 35, 27, 21, 40, 70, 53, 27]
10.03[38, 33, 26, 22, 40, 69, 48, 26]
10.052[29, 33, 27, 22, 32, 67, 41, 28]
10.067[25, 29, 29, 22, 36, 49, 36, 31]
10.09[32, 30, 26, 20, 34, 44, 39, 33]
10.112[30, 32, 24, 21, 35, 43, 38, 34]
10.127[31, 32, 25, 24, 38, 39, 35, 32]
10.151[32, 33, 24, 23, 36, 30, 28, 35]
10.172[33, 29, 23, 22, 33, 25, 26, 34]
10.195[36, 31, 27, 22, 36, 43, 22, 34]
10.21[47, 30, 26, 24, 38, 45, 23, 38]
10.234[48, 29, 27, 21, 40, 48, 24, 39]
10.255[50, 40, 28, 24, 41, 46, 28, 34]
10.272[50, 44, 27, 25, 43, 49, 29, 40]
10.292[46, 46, 24, 24, 41, 37, 28, 37]
10.315[39, 47, 28, 22, 39, 35, 25, 31]
10.33[39, 52, 25, 22, 42, 35, 24, 31]
10.352[39, 42, 24, 19, 46, 36, 22, 37]
10.375[43, 39, 28, 23, 50, 36, 26, 29]
10.391[43, 33, 29, 23, 50, 34, 26, 30]
10.412[42, 38, 26, 22, 50, 33, 27, 35]
10.435[46, 31, 32, 21, 51, 30, 28, 37]
10.45[46, 38, 32, 21, 48, 30, 27, 30]
10.472[45, 36, 30, 17, 41, 27, 23, 31]
10.495[43, 38, 31, 22, 40, 29, 26, 30]
10.512[45, 43, 33, 23, 40, 27, 24, 27]
10.532[41, 43, 28, 23, 36, 27, 23, 28]
10.555[37, 37, 28, 24, 32, 25, 22, 29]
10.57[36, 42, 27, 21, 30, 32, 24, 31]
10.594[35, 42, 24, 19, 37, 33, 22, 33]
10.615[29, 32, 24, 18, 37, 35, 22, 31]
10.63[26, 35, 23, 19, 33, 34, 28, 30]
10.652[35, 36, 25, 19, 35, 41, 30, 30]
10.675[40, 30, 25, 22, 37, 42, 28, 27]
10.69[45, 28, 23, 20, 35, 38, 26, 31]
10.712[45, 28, 24, 22, 35, 38, 28, 33]
10.735[45, 29, 25, 20, 38, 38, 25, 31]
10.75[40, 31, 23, 23, 41, 38, 29, 30]
10.772[33, 31, 23, 21, 39, 34, 29, 31]
10.795[27, 37, 23, 21, 38, 36, 28, 22]
10.81[29, 38, 21, 20, 38, 37, 29, 20]
10.833[28, 34, 20, 21, 39, 41, 26, 23]
10.863[38, 32, 22, 17, 35, 38, 18, 25]
10.87[40, 36, 22, 18, 39, 40, 22, 27]
10.9[41, 33, 25, 17, 38, 40, 24, 28]
10.915[41, 32, 24, 22, 37, 39, 22, 30]
10.93[48, 33, 23, 23, 34, 37, 27, 33]
10.952[42, 33, 24, 24, 37, 33, 26, 33]
10.975[42, 28, 25, 23, 36, 27, 25, 30]
10.99[42, 25, 24, 24, 36, 32, 25, 30]
11.02[40, 22, 24, 22, 37, 36, 26, 27]
11.035[29, 28, 24, 21, 36, 34, 23, 21]
11.065[25, 29, 23, 20, 31, 34, 26, 22]
11.072[25, 30, 21, 21, 36, 36, 27, 25]
11.103[23, 30, 22, 23, 34, 31, 26, 28]
11.109[26, 29, 22, 19, 34, 27, 25, 29]
11.132[26, 26, 25, 20, 36, 29, 25, 28]
11.155[31, 28, 26, 21, 38, 30, 26, 27]
11.178[31, 26, 28, 21, 29, 33, 23, 25]
11.193[31, 25, 27, 19, 29, 31, 25, 23]
11.223[36, 29, 28, 23, 34, 31, 25, 22]
11.238[38, 27, 26, 23, 29, 30, 24, 24]
11.26[35, 28, 25, 22, 28, 32, 21, 24]
11.275[34, 29, 25, 22, 32, 27, 24, 23]
11.305[40, 30, 23, 25, 31, 27, 23, 20]
11.313[34, 29, 23, 22, 27, 26, 24, 22]
11.335[31, 30, 22, 23, 32, 25, 24, 30]
11.358[31, 27, 23, 25, 30, 21, 25, 32]
11.38[32, 26, 20, 24, 25, 29, 22, 33]
11.395[26, 28, 22, 24, 28, 29, 20, 33]
11.418[24, 25, 23, 23, 29, 29, 22, 34]
11.432[26, 24, 24, 21, 24, 37, 22, 26]
11.455[31, 21, 23, 20, 26, 35, 22, 27]
11.478[31, 23, 24, 20, 31, 32, 26, 26]
11.508[31, 23, 22, 18, 32, 32, 25, 26]
11.515[32, 24, 24, 20, 34, 34, 23, 25]
11.538[32, 27, 23, 21, 35, 25, 23, 27]
11.552[30, 27, 25, 18, 34, 24, 22, 23]
11.574[29, 27, 35, 19, 31, 20, 19, 26]
11.598[30, 26, 37, 19, 30, 26, 21, 26]
11.612[33, 25, 36, 18, 24, 22, 22, 28]
11.635[36, 26, 36, 19, 25, 25, 20, 28]
11.658[32, 28, 36, 20, 29, 28, 22, 29]
11.672[33, 27, 26, 20, 26, 35, 23, 32]
11.695[32, 29, 25, 20, 25, 33, 20, 32]
11.718[33, 31, 24, 20, 30, 36, 18, 29]
11.74[27, 29, 24, 18, 28, 34, 23, 27]
11.763[33, 28, 21, 17, 27, 32, 20, 27]
11.778[32, 25, 23, 19, 27, 27, 20, 20]
11.792[32, 26, 20, 20, 26, 25, 20, 21]
11.814[28, 22, 22, 19, 20, 21, 21, 20]
11.838[29, 23, 23, 19, 22, 21, 20, 17]
11.86[24, 22, 24, 19, 22, 22, 20, 20]
11.875[33, 22, 24, 20, 26, 18, 21, 24]
11.898[33, 21, 25, 19, 26, 18, 21, 27]
11.912[33, 29, 26, 24, 28, 20, 21, 27]
11.935[40, 30, 26, 23, 27, 21, 20, 28]
11.958[40, 31, 24, 23, 27, 21, 22, 28]
11.972[34, 33, 23, 22, 25, 22, 21, 27]
11.994[35, 31, 21, 22, 28, 26, 21, 23]
12.019[37, 26, 20, 18, 27, 24, 21, 22]
12.032[32, 39, 20, 22, 27, 28, 19, 22]
12.055[32, 40, 21, 21, 27, 30, 20, 19]
12.078[30, 40, 22, 22, 26, 30, 20, 18]
12.092[29, 43, 22, 22, 29, 26, 18, 20]
12.115[29, 43, 18, 23, 29, 32, 19, 22]
12.138[27, 30, 18, 20, 29, 30, 21, 22]
12.16[30, 28, 20, 21, 27, 30, 19, 25]
12.175[32, 27, 18, 20, 28, 30, 19, 26]
12.198[31, 24, 21, 22, 24, 29, 21, 25]
12.22[29, 22, 22, 22, 24, 24, 22, 23]
12.235[28, 33, 22, 24, 26, 21, 21, 25]
12.258[31, 41, 23, 23, 27, 22, 21, 21]
12.28[28, 43, 24, 25, 27, 22, 21, 20]
12.295[28, 43, 23, 23, 25, 25, 20, 21]
12.318[28, 45, 24, 24, 27, 24, 19, 22]
12.34[28, 39, 24, 23, 25, 25, 21, 21]
12.355[23, 30, 24, 24, 24, 22, 24, 22]
12.378[28, 28, 22, 23, 24, 23, 26, 23]
12.4[29, 29, 23, 23, 26, 21, 26, 23]
12.415[32, 25, 22, 22, 22, 24, 25, 22]
12.438[31, 22, 25, 21, 23, 24, 23, 18]
12.46[30, 20, 22, 19, 21, 23, 20, 19]
12.475[27, 20, 23, 20, 25, 24, 20, 17]
12.498[25, 20, 21, 21, 25, 30, 20, 16]
12.52[21, 20, 21, 20, 25, 29, 19, 17]
12.535[25, 21, 19, 21, 26, 27, 19, 23]
12.558[23, 22, 25, 23, 26, 29, 21, 24]
12.58[20, 23, 25, 29, 26, 30, 20, 24]
12.595[19, 24, 25, 33, 30, 23, 20, 26]
12.618[21, 25, 26, 32, 33, 21, 25, 25]
12.641[20, 25, 26, 33, 34, 25, 24, 22]
12.655[22, 24, 21, 31, 34, 24, 22, 20]
12.678[23, 23, 22, 26, 32, 21, 21, 23]
12.7[23, 23, 23, 19, 30, 23, 22, 22]
12.715[22, 23, 22, 19, 27, 24, 17, 24]
12.738[21, 23, 24, 18, 25, 23, 17, 26]
12.76[20, 23, 25, 19, 23, 25, 18, 25]
12.775[22, 22, 25, 18, 25, 26, 18, 22]
12.798[24, 21, 24, 19, 23, 26, 20, 22]
12.82[22, 20, 25, 20, 24, 27, 18, 20]
12.835[23, 28, 27, 19, 24, 24, 18, 15]
12.857[23, 29, 27, 23, 31, 24, 20, 17]
12.88[20, 29, 27, 22, 28, 22, 20, 19]
12.894[20, 28, 26, 22, 29, 21, 18, 17]
12.925[20, 28, 26, 22, 28, 21, 20, 20]
12.94[19, 19, 20, 22, 29, 21, 20, 20]
12.963[19, 24, 24, 18, 22, 19, 18, 21]
12.978[19, 26, 25, 18, 23, 22, 18, 21]
13.0[18, 25, 23, 18, 20, 21, 19, 21]
13.014[25, 27, 23, 18, 23, 19, 17, 20]
13.045[25, 27, 24, 20, 23, 20, 17, 20]
13.06[24, 24, 22, 20, 23, 24, 18, 18]
13.074[26, 24, 22, 21, 22, 22, 18, 17]
13.098[27, 24, 23, 21, 24, 23, 17, 17]
13.121[22, 25, 23, 22, 24, 27, 20, 17]
13.143[22, 25, 24, 21, 24, 28, 20, 18]
13.158[25, 23, 22, 21, 23, 24, 19, 17]
13.18[23, 21, 22, 21, 23, 23, 20, 16]
13.203[22, 23, 22, 21, 20, 25, 22, 18]
13.218[23, 23, 24, 20, 18, 23, 21, 19]
13.24[24, 23, 21, 21, 18, 23, 21, 18]
13.263[23, 22, 20, 21, 20, 22, 21, 20]
13.278[24, 27, 21, 21, 20, 23, 20, 23]
13.301[23, 25, 21, 21, 23, 20, 19, 22]
13.323[24, 25, 22, 22, 24, 17, 20, 23]
13.338[23, 25, 25, 21, 23, 18, 21, 23]
13.361[23, 25, 25, 22, 24, 18, 21, 23]
13.383[24, 21, 25, 23, 24, 21, 20, 20]
13.398[26, 24, 24, 23, 23, 21, 20, 20]
13.42[24, 23, 24, 22, 21, 24, 18, 21]
13.443[24, 20, 21, 22, 21, 23, 19, 21]
13.459[22, 23, 22, 20, 21, 24, 20, 21]
13.481[23, 22, 22, 19, 20, 22, 20, 22]
13.503[21, 21, 26, 20, 23, 21, 21, 21]
13.518[23, 21, 24, 19, 23, 19, 21, 18]
13.541[25, 25, 25, 21, 24, 20, 19, 21]
13.562[24, 24, 24, 21, 25, 21, 19, 22]
13.578[22, 26, 24, 21, 26, 19, 21, 22]
13.601[23, 24, 20, 21, 24, 21, 20, 24]
13.622[21, 24, 19, 22, 24, 20, 21, 25]
13.638[19, 23, 19, 20, 24, 21, 23, 24]
13.661[20, 24, 19, 21, 23, 21, 22, 24]
13.682[21, 22, 21, 22, 23, 21, 23, 25]
13.698[20, 22, 20, 21, 24, 20, 22, 23]
13.721[21, 25, 23, 22, 24, 21, 21, 23]
13.742[21, 22, 24, 23, 24, 21, 23, 22]
13.758[21, 21, 23, 23, 23, 21, 23, 23]
13.779[21, 23, 24, 23, 22, 21, 21, 20]
13.802[21, 24, 26, 24, 20, 21, 23, 19]
13.818[20, 20, 24, 23, 21, 21, 24, 17]
13.839[21, 21, 24, 22, 22, 23, 21, 15]
13.862[23, 23, 26, 20, 22, 22, 22, 13]
13.878[22, 22, 23, 18, 21, 22, 27, 13]
13.899[24, 26, 22, 16, 21, 21, 28, 15]
13.922[29, 27, 22, 16, 21, 21, 28, 14]
13.938[37, 28, 23, 17, 19, 19, 28, 15]
13.959[36, 26, 20, 18, 18, 17, 27, 18]
13.982[37, 29, 21, 22, 23, 17, 21, 18]
13.998[36, 24, 20, 22, 22, 15, 17, 18]
14.019[33, 24, 21, 22, 28, 15, 13, 21]
14.042[24, 23, 19, 24, 27, 19, 15, 22]
14.073[26, 27, 20, 23, 29, 20, 16, 19]
14.08[24, 23, 18, 19, 25, 24, 21, 19]
14.102[23, 26, 22, 20, 27, 24, 20, 20]
14.124[22, 27, 26, 20, 22, 25, 22, 27]
14.139[22, 28, 26, 19, 22, 23, 24, 27]
14.162[19, 24, 26, 21, 22, 21, 26, 30]
14.184[21, 24, 27, 21, 26, 18, 22, 31]
14.199[23, 21, 24, 21, 28, 21, 27, 30]
14.222[24, 26, 19, 21, 28, 19, 27, 22]
14.244[24, 30, 19, 21, 30, 20, 25, 22]
14.259[29, 29, 20, 18, 38, 21, 27, 18]
14.282[27, 31, 24, 18, 37, 21, 28, 19]
14.305[27, 34, 26, 21, 42, 18, 24, 25]
14.319[27, 33, 27, 21, 44, 28, 24, 26]
14.342[26, 32, 27, 19, 43, 30, 24, 28]
14.364[30, 32, 28, 21, 37, 33, 22, 29]
14.379[32, 30, 25, 28, 35, 33, 20, 27]
14.402[31, 27, 25, 27, 26, 34, 24, 22]
14.425[35, 27, 24, 26, 24, 29, 26, 23]
14.441[41, 24, 25, 26, 29, 26, 26, 35]
14.462[45, 36, 24, 24, 32, 22, 47, 42]
14.484[44, 37, 23, 21, 38, 25, 66, 49]
14.499[45, 37, 24, 22, 38, 23, 75, 68]
14.523[48, 36, 23, 24, 57, 19, 74, 71]
14.544[43, 36, 26, 29, 58, 19, 74, 77]
14.559[34, 25, 28, 33, 59, 21, 62, 77]
14.582[40, 24, 32, 32, 70, 19, 41, 73]
14.604[44, 30, 33, 31, 76, 19, 28, 58]
14.619[40, 29, 37, 34, 63, 22, 32, 55]
14.642[41, 29, 38, 32, 68, 28, 34, 37]
14.664[42, 30, 38, 31, 70, 30, 37, 29]
14.68[35, 33, 34, 29, 64, 32, 39, 31]
14.709[29, 30, 32, 30, 63, 32, 36, 29]
14.724[57, 33, 28, 26, 66, 32, 31, 50]
14.747[56, 38, 42, 24, 61, 29, 37, 59]
14.762[55, 40, 44, 22, 61, 28, 34, 59]
14.784[68, 41, 46, 31, 77, 32, 35, 63]
14.8[69, 45, 48, 31, 78, 32, 33, 69]
14.83[49, 44, 49, 33, 76, 32, 39, 56]
14.844[52, 40, 34, 34, 77, 40, 36, 50]
14.86[52, 37, 29, 34, 76, 47, 35, 52]
14.882[43, 34, 28, 29, 57, 44, 37, 52]
14.905[47, 28, 24, 33, 52, 48, 40, 54]
14.919[50, 31, 23, 31, 52, 50, 35, 55]
14.949[51, 38, 26, 31, 51, 43, 31, 56]
14.965[55, 38, 29, 32, 63, 34, 33, 55]
14.987[55, 38, 36, 33, 65, 37, 27, 64]
15.002[57, 42, 40, 30, 61, 35, 29, 60]
15.024[58, 41, 41, 33, 63, 31, 33, 60]
15.047[58, 36, 40, 33, 63, 45, 40, 56]
15.063[57, 39, 37, 32, 46, 49, 39, 58]
15.084[58, 42, 33, 36, 50, 59, 55, 41]
15.108[56, 46, 30, 38, 54, 64, 57, 40]
15.122[58, 50, 32, 36, 55, 73, 55, 45]
15.145[61, 50, 32, 37, 64, 94, 57, 42]
15.167[66, 54, 33, 40, 65, 107, 58, 38]
15.183[61, 54, 36, 38, 57, 104, 54, 42]
15.204[60, 49, 41, 38, 56, 101, 58, 39]
15.227[55, 44, 40, 37, 59, 95, 69, 35]
15.242[55, 54, 45, 37, 61, 71, 65, 36]
15.266[48, 63, 44, 32, 65, 50, 64, 36]
15.287[56, 68, 41, 31, 65, 42, 61, 33]
15.302[65, 67, 35, 28, 66, 43, 55, 35]
15.324[66, 76, 34, 30, 69, 49, 54, 40]
15.347[61, 74, 27, 27, 57, 53, 61, 51]
15.362[65, 64, 25, 29, 54, 57, 62, 55]
15.385[56, 67, 32, 26, 61, 63, 62, 58]
15.407[45, 69, 37, 30, 61, 63, 62, 57]
15.423[41, 60, 37, 29, 57, 61, 73, 52]
15.445[57, 58, 37, 33, 61, 59, 72, 45]
15.467[52, 59, 39, 31, 62, 56, 72, 42]
15.482[51, 47, 35, 31, 56, 53, 69, 38]
15.504[50, 44, 35, 32, 57, 53, 68, 39]
15.527[49, 48, 39, 34, 45, 50, 43, 41]
15.55[31, 55, 39, 36, 39, 41, 37, 43]
15.564[33, 63, 38, 37, 39, 44, 40, 41]
15.587[36, 65, 36, 36, 40, 45, 41, 48]
15.602[40, 82, 30, 32, 39, 44, 45, 49]
15.624[43, 80, 25, 29, 42, 46, 43, 52]
15.647[43, 74, 27, 25, 74, 49, 45, 59]
15.663[44, 71, 31, 23, 86, 47, 42, 63]
15.684[48, 70, 34, 27, 83, 48, 41, 62]
15.707[51, 50, 33, 29, 83, 48, 38, 60]
15.722[53, 60, 32, 28, 85, 47, 46, 57]
15.745[56, 62, 33, 25, 60, 50, 56, 47]
15.767[57, 64, 30, 27, 38, 45, 54, 43]
15.782[72, 63, 35, 25, 45, 56, 52, 36]
15.805[67, 64, 35, 24, 51, 54, 53, 39]
15.827[66, 58, 36, 26, 47, 54, 45, 39]
15.842[65, 55, 38, 28, 47, 58, 27, 34]
15.872[62, 47, 38, 26, 66, 59, 28, 31]
15.895[42, 57, 45, 28, 76, 47, 35, 31]
15.902[42, 57, 46, 28, 73, 49, 32, 25]
15.924[43, 55, 46, 33, 75, 49, 34, 22]
15.947[47, 53, 42, 32, 75, 40, 40, 34]
15.97[49, 56, 44, 33, 60, 44, 39, 33]
15.985[60, 47, 30, 38, 52, 44, 39, 37]
16.007[62, 60, 28, 37, 51, 40, 38, 38]
16.031[58, 62, 28, 32, 55, 38, 41, 39]
16.044[53, 65, 32, 35, 57, 37, 40, 36]
16.075[53, 62, 31, 35, 63, 30, 96, 42]
16.098[37, 60, 30, 27, 55, 31, 114, 40]
16.105[34, 46, 29, 31, 56, 31, 117, 38]
16.127[36, 41, 31, 32, 51, 33, 130, 40]
16.152[38, 37, 26, 32, 46, 42, 158, 35]
16.18[41, 44, 29, 30, 40, 47, 139, 26]
16.187[41, 43, 32, 30, 45, 51, 123, 24]
16.218[42, 56, 33, 28, 42, 56, 123, 34]
16.224[42, 54, 33, 26, 42, 56, 108, 36]
16.263[53, 55, 35, 27, 47, 54, 58, 37]
16.27[52, 50, 31, 27, 45, 54, 36, 48]
16.285[70, 50, 28, 34, 49, 47, 34, 54]
16.307[71, 38, 29, 36, 63, 44, 34, 51]
16.33[75, 39, 31, 36, 61, 44, 34, 50]
16.344[72, 37, 29, 36, 57, 47, 36, 50]
16.375[71, 39, 30, 38, 60, 42, 36, 48]
16.39[54, 41, 33, 32, 56, 47, 40, 40]
16.413[54, 42, 34, 31, 41, 45, 36, 38]
16.427[52, 45, 32, 34, 44, 47, 37, 37]
16.45[48, 45, 33, 35, 56, 43, 36, 36]
16.465[49, 46, 36, 31, 57, 45, 39, 35]
16.495[50, 48, 32, 34, 54, 40, 35, 37]
16.51[47, 43, 29, 34, 52, 43, 35, 41]
16.524[42, 39, 29, 30, 61, 42, 27, 44]
16.547[41, 39, 30, 27, 53, 36, 27, 47]
16.571[40, 34, 22, 27, 51, 36, 25, 43]
16.585[46, 32, 29, 22, 51, 37, 27, 42]
16.615[46, 35, 30, 26, 57, 35, 27, 39]
16.63[49, 50, 29, 26, 44, 34, 29, 34]
16.645[47, 55, 27, 24, 44, 34, 29, 30]
16.667[51, 56, 28, 25, 48, 28, 25, 29]
16.69[42, 59, 22, 26, 47, 30, 24, 36]
16.704[45, 60, 25, 22, 42, 27, 23, 36]
16.735[45, 48, 25, 24, 42, 27, 23, 36]
16.75[42, 43, 26, 26, 38, 32, 23, 39]
16.764[40, 41, 27, 26, 37, 34, 25, 36]
16.787[42, 46, 28, 26, 37, 32, 25, 32]
16.811[37, 39, 32, 26, 37, 34, 27, 39]
16.824[39, 40, 34, 24, 45, 32, 27, 41]
16.847[49, 39, 34, 23, 44, 28, 29, 40]
16.87[47, 43, 33, 22, 39, 26, 31, 40]
16.893[49, 31, 32, 23, 38, 25, 34, 38]
16.907[47, 40, 29, 20, 37, 22, 32, 31]
16.93[48, 40, 31, 21, 29, 23, 30, 30]
16.953[38, 44, 30, 22, 31, 23, 28, 28]
16.967[39, 43, 30, 22, 36, 23, 23, 28]
16.99[40, 47, 32, 22, 39, 22, 24, 30]
17.013[47, 40, 30, 25, 38, 29, 27, 27]
17.027[45, 39, 26, 28, 37, 28, 28, 25]
17.05[46, 36, 26, 26, 36, 28, 27, 35]
17.073[44, 33, 27, 27, 30, 31, 27, 36]
17.087[38, 31, 25, 27, 26, 32, 27, 35]
17.11[32, 32, 22, 28, 28, 25, 23, 35]
17.133[29, 30, 21, 28, 29, 26, 24, 38]
17.147[29, 30, 23, 31, 31, 30, 23, 28]
17.17[33, 29, 23, 31, 32, 26, 24, 26]
17.193[34, 32, 21, 31, 38, 25, 21, 24]
17.207[30, 32, 22, 28, 37, 28, 23, 32]
17.231[32, 33, 24, 25, 35, 29, 23, 29]
17.253[32, 30, 23, 20, 33, 27, 26, 30]
17.268[29, 29, 20, 21, 32, 29, 27, 31]
17.291[29, 27, 23, 20, 26, 28, 27, 32]
17.313[33, 28, 22, 19, 27, 26, 27, 27]
17.327[36, 28, 22, 18, 30, 23, 27, 28]
17.35[32, 30, 24, 23, 32, 20, 28, 27]
17.373[285, 32, 25, 23, 32, 19, 26, 26]
17.387[370, 29, 25, 24, 29, 22, 26, 25]
17.41[376, 28, 27, 24, 30, 23, 28, 23]
17.433[377, 29, 25, 25, 33, 23, 29, 22]
17.447[380, 28, 25, 24, 35, 28, 26, 22]
17.47[257, 27, 25, 24, 36, 27, 25, 22]
17.493[102, 27, 26, 26, 37, 25, 24, 19]
17.507[74, 23, 24, 25, 36, 24, 22, 20]
17.53[67, 21, 27, 27, 30, 25, 20, 18]
17.553[48, 20, 23, 27, 30, 21, 21, 20]
17.567[34, 26, 28, 26, 31, 21, 20, 21]
17.59[31, 27, 25, 25, 31, 18, 19, 22]
17.613[29, 28, 25, 29, 31, 22, 17, 24]
17.627[31, 35, 24, 27, 35, 20, 20, 25]
17.65[31, 37, 26, 26, 31, 20, 21, 24]
17.673[30, 33, 21, 26, 28, 24, 22, 26]
17.687[26, 35, 22, 24, 28, 25, 23, 27]
17.71[28, 36, 22, 21, 35, 24, 22, 23]
17.733[24, 29, 23, 19, 35, 24, 21, 25]
17.747[23, 28, 21, 19, 35, 24, 22, 24]
17.77[28, 26, 20, 19, 34, 25, 22, 22]
17.8[29, 21, 20, 19, 33, 29, 24, 24]
17.807[29, 24, 22, 18, 27, 27, 25, 25]
17.845[29, 23, 21, 21, 23, 27, 25, 27]
17.853[29, 23, 22, 18, 29, 27, 23, 29]
17.883[21, 24, 30, 23, 30, 24, 25, 28]
17.89[20, 25, 30, 24, 30, 20, 25, 26]
17.92[22, 22, 29, 25, 31, 23, 24, 24]
17.935[22, 22, 28, 24, 35, 23, 24, 21]
17.958[29, 23, 27, 26, 30, 22, 23, 22]
17.973[30, 25, 22, 22, 31, 22, 18, 22]
17.995[31, 24, 20, 22, 32, 23, 18, 21]
18.01[31, 26, 20, 22, 30, 21, 18, 25]
18.048[31, 29, 21, 21, 28, 23, 22, 28]
18.055[25, 27, 22, 18, 29, 25, 22, 24]
18.07[27, 30, 24, 20, 28, 26, 24, 28]
18.093[24, 29, 25, 23, 30, 24, 24, 29]
18.115[26, 27, 24, 22, 31, 24, 27, 27]
18.13[28, 27, 23, 23, 29, 23, 24, 25]
18.16[28, 28, 28, 24, 30, 21, 25, 29]
18.175[27, 22, 25, 25, 29, 20, 23, 25]
18.198[30, 22, 24, 23, 27, 24, 21, 25]
18.213[24, 24, 26, 23, 26, 24, 17, 25]
18.243[23, 21, 27, 22, 32, 26, 21, 27]
18.25[19, 20, 22, 28, 32, 25, 19, 23]
18.274[21, 22, 23, 24, 32, 26, 19, 23]
18.295[23, 24, 25, 24, 37, 24, 20, 24]
18.317[24, 27, 23, 26, 37, 23, 20, 22]
18.332[26, 27, 22, 25, 31, 20, 18, 19]
18.355[28, 29, 25, 20, 30, 26, 19, 20]
18.37[26, 28, 25, 20, 31, 26, 19, 23]
18.393[27, 26, 23, 20, 25, 24, 21, 22]
18.415[27, 25, 25, 21, 22, 25, 22, 22]
18.438[25, 25, 25, 22, 26, 26, 22, 21]
18.453[26, 24, 24, 23, 25, 22, 23, 21]
18.476[25, 24, 22, 23, 25, 21, 25, 20]
18.498[22, 25, 23, 23, 25, 22, 24, 20]
18.514[22, 28, 20, 22, 27, 20, 25, 20]
18.535[21, 28, 22, 22, 25, 22, 26, 23]
18.557[23, 27, 21, 21, 24, 21, 25, 23]
18.573[23, 29, 21, 25, 24, 20, 24, 24]
18.596[21, 30, 22, 25, 23, 21, 23, 24]
18.617[22, 22, 23, 23, 21, 26, 21, 24]
18.633[23, 22, 23, 24, 25, 24, 22, 23]
18.654[18, 24, 24, 26, 27, 24, 21, 24]
18.678[18, 26, 26, 21, 27, 28, 22, 22]
18.693[19, 24, 25, 22, 29, 28, 24, 22]
18.716[18, 25, 25, 21, 28, 26, 26, 21]
18.731[18, 25, 23, 19, 24, 27, 23, 24]
18.754[18, 26, 22, 17, 24, 27, 24, 23]
18.775[21, 21, 23, 21, 22, 23, 22, 23]
18.797[21, 21, 24, 20, 23, 23, 18, 23]
18.814[22, 21, 26, 21, 24, 23, 17, 25]
18.836[23, 22, 26, 22, 25, 21, 18, 21]
18.857[25, 20, 27, 22, 24, 22, 17, 20]
18.873[24, 21, 24, 19, 25, 24, 22, 20]
18.895[24, 21, 24, 19, 23, 24, 22, 19]
18.925[25, 22, 21, 23, 21, 21, 22, 19]
18.932[24, 26, 23, 21, 20, 21, 20, 22]
18.955[21, 25, 22, 23, 18, 21, 26, 24]
18.977[21, 25, 22, 22, 19, 21, 22, 27]
18.994[21, 27, 21, 27, 20, 18, 24, 31]
19.015[20, 26, 21, 22, 23, 20, 23, 30]
19.037[26, 22, 18, 23, 22, 23, 26, 30]
19.053[27, 24, 18, 22, 25, 25, 21, 29]
19.075[28, 26, 19, 23, 29, 22, 22, 27]
19.097[27, 24, 20, 18, 30, 23, 21, 24]
19.113[29, 25, 18, 20, 27, 22, 21, 23]
19.135[25, 24, 26, 22, 32, 22, 19, 21]
19.157[25, 24, 29, 22, 30, 24, 17, 19]
19.172[25, 22, 29, 20, 27, 31, 18, 18]
19.194[26, 27, 30, 20, 26, 31, 19, 19]
19.226[27, 29, 31, 20, 33, 30, 19, 17]
19.233[27, 32, 29, 20, 32, 28, 23, 23]
19.255[27, 32, 28, 19, 42, 24, 25, 23]
19.277[29, 31, 27, 21, 40, 15, 25, 29]
19.292[34, 26, 25, 23, 41, 23, 22, 30]
19.314[31, 26, 27, 22, 44, 26, 23, 31]
19.353[32, 23, 26, 23, 43, 28, 23, 31]
19.355[36, 23, 25, 25, 40, 33, 21, 33]
19.375[36, 23, 26, 23, 48, 36, 26, 31]
19.397[38, 25, 25, 26, 50, 35, 27, 36]
19.412[38, 23, 23, 27, 45, 35, 29, 37]
19.434[37, 23, 28, 25, 46, 35, 27, 40]
19.465[34, 23, 29, 23, 43, 32, 26, 40]
19.472[30, 25, 33, 24, 37, 30, 23, 39]
19.502[30, 31, 33, 21, 36, 29, 28, 35]
19.517[37, 36, 32, 25, 35, 31, 24, 33]
19.532[41, 38, 25, 36, 41, 31, 26, 26]
19.554[43, 39, 23, 38, 48, 29, 29, 27]
19.585[45, 39, 16, 38, 55, 28, 31, 30]
19.592[43, 41, 19, 38, 59, 29, 29, 28]
19.63[41, 37, 20, 37, 61, 24, 29, 31]
19.637[45, 35, 26, 34, 64, 24, 31, 31]
19.652[46, 34, 32, 49, 58, 26, 30, 44]
19.675[49, 34, 35, 59, 51, 25, 27, 44]
19.705[51, 27, 34, 60, 46, 25, 27, 45]
19.712[49, 25, 33, 60, 46, 25, 40, 44]
19.742[41, 30, 32, 57, 42, 29, 53, 45]
19.757[39, 31, 30, 44, 45, 28, 53, 35]
19.788[42, 32, 25, 31, 56, 29, 53, 42]
19.794[41, 33, 28, 30, 64, 27, 52, 42]
19.817[43, 40, 27, 28, 63, 39, 47, 43]
19.84[50, 35, 26, 27, 63, 41, 35, 42]
19.862[52, 36, 23, 26, 60, 41, 36, 38]
19.877[57, 37, 24, 25, 49, 41, 37, 30]
19.899[55, 38, 22, 23, 42, 46, 36, 29]
19.914[59, 40, 24, 23, 47, 40, 32, 28]
19.945[57, 42, 22, 22, 46, 43, 25, 42]
19.959[56, 45, 23, 22, 53, 44, 27, 46]
19.982[48, 44, 23, 25, 59, 46, 24, 49]
19.997[48, 41, 23, 30, 63, 40, 30, 65]
20.019[48, 34, 22, 33, 61, 41, 30, 68]
20.035[45, 34, 27, 50, 61, 32, 31, 64]
20.067[52, 30, 27, 50, 55, 35, 30, 62]
20.088[50, 32, 27, 50, 55, 31, 31, 60]
20.102[53, 48, 28, 48, 51, 31, 30, 40]
20.117[51, 68, 35, 46, 47, 33, 28, 35]
20.139[56, 69, 32, 31, 44, 34, 25, 29]
20.155[59, 72, 31, 31, 65, 31, 26, 40]
20.178[69, 71, 32, 35, 72, 31, 33, 47]
20.199[68, 65, 33, 37, 75, 37, 35, 51]
20.215[66, 50, 23, 45, 77, 32, 38, 74]
20.237[64, 50, 29, 44, 80, 34, 47, 78]
20.259[54, 45, 31, 96, 65, 36, 48, 77]
20.275[42, 46, 29, 101, 56, 36, 47, 74]
20.298[54, 45, 29, 104, 51, 34, 44, 75]
20.32[56, 40, 34, 102, 55, 53, 43, 58]
20.335[59, 40, 33, 101, 55, 52, 37, 50]
20.357[65, 40, 34, 54, 55, 51, 41, 44]
20.379[69, 38, 38, 43, 55, 52, 38, 43]
20.394[57, 42, 39, 35, 57, 61, 45, 40]
20.418[55, 42, 39, 34, 55, 45, 47, 39]
20.44[56, 60, 37, 36, 66, 47, 47, 40]
20.463[47, 69, 34, 51, 78, 49, 41, 39]
20.477[44, 69, 29, 48, 75, 51, 40, 41]
20.5[62, 64, 31, 44, 73, 38, 37, 46]
20.515[61, 64, 30, 45, 70, 41, 35, 42]
20.538[54, 46, 31, 43, 60, 41, 32, 41]
20.567[53, 37, 36, 27, 44, 41, 31, 41]
20.574[50, 44, 39, 25, 49, 41, 31, 46]
20.597[30, 46, 36, 31, 50, 43, 27, 41]
20.621[39, 52, 36, 34, 57, 42, 26, 38]
20.635[50, 53, 38, 33, 62, 41, 41, 42]
20.658[57, 57, 37, 33, 70, 38, 45, 48]
20.679[58, 57, 37, 34, 66, 39, 53, 40]
20.703[56, 59, 40, 31, 66, 40, 52, 40]
20.717[52, 56, 40, 28, 70, 40, 52, 44]
20.739[44, 54, 35, 34, 66, 41, 44, 40]
20.763[36, 45, 31, 38, 57, 45, 38, 33]
20.777[34, 39, 33, 39, 60, 45, 26, 38]
20.799[37, 36, 30, 37, 62, 42, 26, 43]
20.823[35, 42, 36, 38, 52, 44, 27, 39]
20.837[32, 45, 39, 35, 48, 43, 23, 39]
20.868[32, 49, 43, 28, 47, 46, 25, 38]
20.89[31, 49, 42, 29, 50, 45, 23, 40]
20.897[46, 47, 42, 37, 57, 46, 24, 38]
20.919[53, 37, 36, 36, 62, 46, 22, 40]
20.943[57, 37, 36, 37, 63, 44, 24, 54]
20.957[57, 34, 51, 36, 73, 40, 33, 56]
20.979[61, 36, 51, 40, 67, 49, 34, 53]
21.003[50, 40, 51, 32, 57, 49, 31, 54]
21.017[42, 50, 52, 29, 57, 47, 33, 57]
21.039[34, 53, 49, 27, 59, 46, 33, 45]
21.063[39, 56, 30, 31, 52, 48, 25, 42]
21.077[42, 58, 26, 27, 71, 37, 27, 44]
21.099[43, 55, 26, 29, 72, 32, 28, 40]
21.123[43, 46, 27, 32, 72, 32, 30, 34]
21.145[45, 36, 31, 32, 70, 33, 37, 42]
21.16[40, 33, 31, 34, 66, 27, 36, 43]
21.182[33, 39, 34, 34, 46, 24, 34, 46]
21.197[36, 57, 33, 34, 50, 27, 35, 44]
21.219[47, 59, 35, 32, 50, 26, 33, 44]
21.243[59, 64, 35, 33, 54, 26, 22, 39]
21.257[63, 63, 36, 29, 57, 34, 27, 36]
21.279[65, 57, 34, 26, 59, 37, 27, 27]
21.303[61, 42, 33, 24, 53, 38, 28, 26]
21.317[57, 40, 31, 26, 46, 39, 29, 30]
21.339[45, 32, 30, 27, 39, 38, 29, 30]
21.363[42, 30, 29, 25, 37, 31, 25, 32]
21.377[43, 35, 26, 28, 31, 32, 32, 31]
21.399[44, 29, 34, 28, 39, 30, 35, 34]
21.423[41, 29, 33, 28, 39, 36, 39, 29]
21.445[44, 30, 34, 26, 39, 40, 39, 38]
21.459[48, 34, 34, 27, 38, 40, 40, 38]
21.482[45, 33, 36, 28, 47, 38, 35, 41]
21.497[46, 34, 29, 31, 42, 39, 29, 39]
21.528[43, 40, 29, 28, 43, 34, 26, 38]
21.543[38, 39, 27, 30, 42, 30, 27, 29]
21.557[40, 36, 28, 29, 44, 33, 26, 28]
21.579[39, 34, 27, 29, 37, 35, 25, 29]
21.603[39, 40, 27, 30, 45, 33, 26, 32]
21.626[43, 37, 25, 30, 47, 31, 29, 32]
21.64[45, 40, 28, 30, 48, 34, 29, 32]
21.663[39, 40, 32, 30, 51, 32, 29, 32]
21.685[43, 43, 39, 26, 50, 29, 31, 29]
21.699[41, 47, 42, 25, 51, 29, 32, 24]
21.723[37, 50, 43, 25, 50, 33, 30, 26]
21.745[36, 56, 41, 24, 49, 41, 28, 27]
21.76[33, 56, 37, 25, 51, 43, 28, 25]
21.783[32, 53, 29, 26, 50, 44, 27, 26]
21.805[37, 48, 26, 24, 40, 44, 27, 27]
21.82[36, 45, 25, 25, 40, 41, 23, 27]
21.843[36, 32, 24, 24, 42, 31, 22, 26]
21.865[39, 33, 28, 24, 33, 30, 21, 32]
21.879[47, 37, 30, 28, 35, 28, 22, 32]
21.903[46, 37, 29, 28, 35, 33, 20, 34]
21.925[47, 36, 29, 27, 40, 35, 21, 33]
21.939[49, 38, 30, 29, 42, 33, 25, 32]
21.963[47, 38, 26, 26, 44, 30, 24, 29]
21.985[35, 35, 23, 23, 44, 34, 22, 28]
21.999[36, 31, 28, 25, 47, 29, 23, 28]
22.022[32, 29, 29, 24, 44, 32, 27, 27]
22.045[33, 31, 28, 21, 42, 35, 28, 28]
22.06[37, 30, 29, 27, 39, 38, 34, 30]
22.083[39, 33, 30, 26, 36, 37, 35, 29]
22.105[36, 33, 27, 25, 35, 37, 34, 32]
22.119[37, 34, 25, 26, 34, 32, 31, 34]
22.143[34, 33, 25, 26, 32, 32, 28, 34]
22.165[36, 32, 23, 22, 31, 29, 28, 32]
22.179[33, 31, 22, 25, 36, 28, 28, 35]
22.203[34, 32, 24, 27, 33, 29, 30, 32]
22.225[37, 33, 24, 25, 32, 30, 29, 33]
22.239[37, 34, 24, 26, 32, 30, 29, 30]
22.262[37, 36, 24, 26, 33, 32, 23, 30]
22.285[39, 35, 25, 27, 34, 29, 22, 28]
22.299[37, 42, 21, 25, 36, 29, 22, 26]
22.322[33, 40, 21, 27, 35, 34, 24, 24]
22.346[32, 38, 24, 27, 34, 33, 26, 23]
22.359[25, 35, 24, 25, 37, 35, 25, 25]
22.383[28, 36, 24, 22, 32, 36, 26, 21]
22.405[30, 23, 25, 22, 35, 37, 23, 25]
22.419[31, 23, 25, 20, 35, 33, 24, 27]
22.443[34, 26, 26, 21, 35, 31, 20, 28]
22.465[34, 29, 25, 22, 37, 28, 23, 26]
22.479[31, 27, 27, 21, 34, 27, 26, 28]
22.503[28, 26, 26, 21, 29, 30, 25, 24]
22.525[35, 27, 24, 20, 30, 29, 23, 22]
22.547[33, 29, 22, 20, 33, 30, 26, 25]
22.563[33, 30, 22, 22, 29, 27, 23, 27]
22.585[32, 29, 24, 26, 31, 30, 22, 27]
22.608[32, 30, 24, 25, 29, 24, 22, 26]
22.622[26, 32, 26, 28, 26, 24, 21, 25]
22.645[30, 30, 25, 26, 36, 27, 20, 20]
22.675[32, 24, 25, 24, 35, 28, 23, 18]
22.683[31, 24, 21, 22, 35, 24, 22, 19]
22.705[31, 29, 23, 23, 39, 27, 24, 19]
22.727[36, 30, 22, 20, 40, 27, 25, 21]
22.743[32, 34, 24, 22, 27, 23, 27, 21]
22.765[32, 34, 25, 22, 29, 23, 23, 26]
22.795[33, 34, 25, 19, 30, 25, 21, 24]
22.81[43, 31, 24, 20, 27, 23, 20, 24]
22.825[39, 30, 23, 21, 29, 24, 21, 24]
22.848[39, 34, 24, 21, 30, 24, 18, 23]
22.863[37, 40, 23, 22, 35, 27, 20, 17]
22.885[38, 41, 24, 22, 33, 27, 24, 17]
22.915[29, 41, 25, 21, 34, 29, 23, 19]
22.922[28, 41, 25, 22, 32, 29, 21, 20]
22.952[27, 31, 24, 21, 33, 30, 27, 23]
22.967[27, 23, 25, 20, 25, 27, 27, 22]
22.983[28, 20, 22, 21, 26, 27, 25, 24]
23.005[24, 22, 25, 22, 23, 27, 25, 27]
23.035[24, 21, 25, 24, 23, 27, 27, 25]
23.042[23, 26, 23, 23, 20, 28, 21, 23]
23.072[30, 25, 23, 23, 22, 29, 22, 27]
23.087[35, 28, 24, 23, 23, 29, 23, 26]
23.102[36, 32, 24, 22, 23, 27, 24, 23]
23.125[37, 32, 23, 19, 31, 25, 22, 23]
23.155[38, 28, 24, 21, 32, 23, 22, 23]
23.17[35, 30, 23, 22, 30, 27, 21, 20]
23.185[26, 27, 22, 20, 30, 25, 24, 19]
23.208[26, 20, 19, 21, 35, 25, 22, 19]
23.222[27, 20, 19, 19, 29, 27, 24, 19]
23.245[25, 20, 18, 20, 31, 27, 24, 21]
23.268[25, 21, 19, 19, 31, 24, 25, 19]
23.282[27, 23, 23, 19, 31, 25, 22, 20]
23.313[27, 27, 21, 20, 25, 22, 27, 22]
23.327[26, 28, 22, 23, 27, 21, 25, 23]
23.349[25, 28, 22, 22, 33, 22, 24, 23]
23.366[22, 26, 23, 23, 34, 23, 23, 24]
23.394[24, 27, 20, 25, 32, 23, 24, 23]
23.41[22, 24, 21, 23, 35, 25, 21, 20]
23.433[22, 24, 21, 21, 33, 28, 21, 20]
23.447[23, 26, 21, 20, 25, 30, 22, 21]
23.471[27, 27, 21, 20, 25, 29, 21, 20]
23.486[24, 28, 23, 19, 27, 28, 20, 21]
23.507[25, 28, 25, 20, 24, 27, 21, 25]
23.529[23, 29, 26, 20, 23, 24, 21, 25]
23.546[28, 27, 28, 22, 26, 18, 20, 23]
23.567[26, 25, 27, 26, 26, 26, 24, 24]
23.591[26, 24, 25, 25, 24, 25, 23, 24]
23.606[25, 24, 22, 25, 24, 25, 21, 22]
23.627[27, 19, 21, 24, 24, 26, 21, 21]
23.649[23, 21, 19, 24, 20, 26, 21, 22]
23.672[21, 21, 17, 20, 21, 18, 21, 21]
23.687[23, 19, 19, 20, 24, 18, 21, 21]
23.711[24, 18, 19, 20, 24, 26, 19, 19]
23.726[23, 21, 21, 21, 23, 26, 21, 19]
23.747[28, 23, 21, 21, 22, 26, 21, 23]
23.769[29, 24, 21, 18, 23, 30, 17, 24]
23.786[28, 24, 21, 20, 20, 38, 21, 22]
23.807[29, 27, 22, 19, 24, 33, 21, 23]
23.829[30, 25, 20, 20, 22, 33, 22, 23]
23.846[28, 23, 22, 22, 23, 32, 23, 20]
23.868[28, 26, 22, 23, 22, 28, 25, 18]
23.889[30, 30, 20, 20, 23, 18, 23, 19]
23.906[27, 27, 24, 21, 25, 18, 24, 18]
23.927[31, 30, 24, 25, 27, 20, 22, 22]
23.95[29, 31, 22, 23, 28, 23, 20, 23]
23.966[29, 28, 24, 23, 28, 23, 19, 25]
23.987[26, 24, 23, 24, 29, 22, 19, 25]
24.01[30, 25, 21, 25, 27, 24, 20, 26]
24.026[26, 22, 20, 20, 26, 24, 22, 22]
24.047[25, 20, 21, 19, 26, 21, 22, 21]
24.07[25, 23, 20, 21, 28, 22, 22, 20]
24.086[26, 23, 19, 22, 26, 24, 21, 23]
24.107[21, 24, 19, 20, 27, 21, 23, 20]
24.129[20, 25, 19, 22, 27, 21, 21, 19]
24.146[19, 25, 20, 22, 29, 21, 24, 20]
24.167[22, 24, 20, 22, 29, 19, 24, 21]
24.189[20, 24, 24, 20, 29, 17, 25, 19]
24.204[19, 22, 24, 22, 26, 21, 22, 20]
24.228[26, 22, 25, 21, 25, 19, 24, 22]
24.25[28, 21, 25, 21, 20, 20, 22, 23]
24.266[26, 21, 25, 20, 18, 23, 22, 22]
24.287[27, 23, 21, 20, 19, 23, 21, 23]
24.309[28, 23, 22, 18, 18, 19, 23, 24]
24.324[23, 23, 22, 17, 21, 21, 22, 25]
24.347[27, 24, 20, 20, 20, 20, 22, 23]
24.37[27, 27, 22, 18, 22, 18, 23, 25]
24.384[27, 27, 21, 18, 22, 23, 24, 24]
24.407[26, 27, 22, 17, 24, 23, 22, 22]
24.429[24, 28, 23, 18, 21, 22, 21, 20]
24.444[19, 30, 23, 17, 24, 24, 23, 23]
24.467[18, 27, 23, 18, 25, 27, 21, 24]
24.49[20, 25, 23, 20, 24, 22, 21, 24]
24.512[21, 26, 23, 20, 25, 23, 21, 23]
24.527[23, 23, 24, 20, 28, 26, 24, 26]
24.549[22, 24, 22, 19, 26, 26, 22, 24]
24.58[25, 24, 22, 19, 25, 22, 23, 20]
24.587[24, 24, 24, 20, 25, 25, 23, 20]
24.618[24, 22, 22, 20, 23, 26, 23, 21]
24.632[24, 29, 21, 22, 21, 25, 21, 19]
24.647[25, 29, 21, 25, 21, 24, 21, 18]
24.67[24, 28, 21, 24, 20, 25, 23, 18]
24.7[23, 30, 21, 22, 20, 22, 21, 18]
24.708[24, 31, 21, 22, 20, 22, 20, 17]
24.729[23, 25, 24, 23, 21, 22, 21, 16]
24.751[21, 24, 24, 20, 21, 21, 19, 19]
24.767[22, 23, 24, 21, 22, 22, 17, 19]
24.789[22, 23, 24, 20, 26, 23, 22, 21]
24.812[22, 22, 24, 21, 26, 22, 23, 25]
24.827[22, 24, 21, 19, 25, 19, 24, 24]
24.858[22, 24, 21, 18, 23, 22, 25, 26]
24.872[22, 24, 20, 19, 24, 22, 25, 26]
24.887[21, 23, 20, 20, 23, 22, 21, 24]
24.91[25, 25, 21, 19, 23, 23, 20, 20]
24.932[25, 24, 22, 20, 24, 24, 23, 21]
24.947[25, 23, 22, 21, 26, 23, 22, 18]
24.969[25, 23, 22, 19, 25, 21, 23, 19]
24.992[26, 21, 23, 21, 22, 23, 24, 19]
25.007[21, 22, 22, 22, 22, 22, 26, 19]
25.029[20, 21, 21, 22, 21, 22, 24, 19]
25.052[21, 22, 23, 20, 19, 21, 24, 19]
25.067[21, 22, 23, 21, 23, 21, 22, 16]
25.098[20, 23, 23, 20, 22, 22, 22, 18]
25.112[20, 21, 24, 19, 22, 20, 21, 19]
25.127[20, 21, 25, 19, 23, 22, 19, 20]
25.149[18, 22, 24, 20, 23, 24, 21, 21]
25.172[21, 24, 24, 23, 19, 25, 23, 21]
25.189[22, 22, 24, 22, 18, 24, 22, 20]
25.209[21, 23, 24, 21, 19, 24, 20, 19]
25.232[22, 23, 23, 21, 19, 23, 20, 20]
25.247[21, 21, 25, 21, 19, 22, 19, 21]
25.271[20, 21, 24, 20, 21, 21, 19, 21]
25.292[20, 21, 23, 20, 21, 19, 19, 24]
25.307[20, 21, 21, 22, 22, 18, 19, 25]
25.329[21, 21, 21, 22, 21, 17, 19, 25]
25.352[21, 24, 20, 23, 23, 16, 18, 23]
25.367[19, 21, 21, 23, 23, 18, 15, 24]
25.389[20, 21, 21, 24, 25, 17, 15, 20]
25.412[22, 23, 22, 21, 23, 17, 16, 24]
25.434[21, 23, 22, 24, 24, 19, 16, 22]
25.449[21, 23, 22, 21, 22, 21, 17, 22]
25.472[23, 27, 21, 22, 20, 19, 18, 21]
25.494[22, 27, 23, 21, 19, 20, 20, 22]
25.51[21, 27, 23, 24, 19, 19, 21, 17]
25.532[22, 26, 21, 24, 20, 18, 21, 17]
25.554[22, 27, 22, 25, 21, 17, 22, 21]
25.569[24, 26, 24, 23, 22, 20, 20, 21]
25.592[24, 25, 23, 24, 22, 18, 21, 23]
25.614[22, 24, 21, 21, 24, 19, 18, 24]
25.629[22, 27, 22, 17, 24, 19, 19, 24]
25.652[20, 23, 23, 17, 25, 19, 19, 19]
25.674[17, 20, 21, 18, 24, 18, 19, 20]
25.689[17, 23, 23, 20, 24, 23, 17, 19]
25.712[18, 26, 24, 20, 24, 23, 20, 21]
25.735[17, 22, 24, 21, 24, 23, 19, 22]
25.749[17, 25, 25, 20, 21, 24, 18, 21]
25.772[17, 27, 25, 21, 20, 24, 20, 20]
25.795[22, 24, 24, 20, 19, 20, 19, 21]
25.811[23, 22, 24, 24, 19, 19, 17, 16]
25.832[24, 24, 24, 22, 21, 19, 18, 16]
25.854[24, 22, 23, 22, 24, 17, 19, 18]
25.869[24, 20, 23, 20, 24, 18, 18, 19]
25.892[20, 19, 22, 22, 26, 20, 17, 18]
25.915[18, 22, 22, 18, 26, 20, 18, 19]
25.929[20, 22, 26, 22, 28, 20, 18, 20]
25.952[21, 22, 25, 23, 25, 21, 16, 18]
25.975[21, 23, 25, 24, 25, 20, 17, 18]
25.99[21, 24, 27, 23, 24, 19, 18, 18]
26.012[21, 22, 25, 23, 22, 18, 16, 20]
26.035[18, 21, 22, 20, 20, 19, 18, 22]
26.05[18, 26, 23, 20, 24, 21, 17, 22]
26.072[22, 25, 23, 18, 23, 20, 18, 23]
26.095[22, 26, 21, 21, 21, 21, 19, 23]
26.109[21, 25, 24, 22, 21, 23, 20, 23]
26.132[23, 27, 23, 22, 22, 23, 21, 22]
26.155[21, 22, 22, 23, 18, 25, 24, 22]
26.169[18, 22, 22, 24, 18, 24, 23, 22]
26.192[18, 23, 22, 20, 21, 24, 22, 20]
26.215[22, 23, 21, 19, 23, 24, 23, 19]
26.229[21, 21, 23, 18, 21, 23, 21, 21]
26.252[21, 21, 25, 19, 20, 19, 20, 20]
26.275[22, 21, 24, 18, 21, 25, 22, 22]
26.29[23, 20, 24, 19, 18, 24, 21, 24]
26.312[20, 20, 24, 21, 16, 24, 22, 24]
26.335[23, 21, 23, 22, 16, 25, 20, 23]
26.357[24, 23, 21, 23, 17, 25, 20, 23]
26.372[22, 22, 22, 23, 19, 19, 20, 23]
26.395[22, 22, 21, 22, 20, 23, 20, 21]
26.418[24, 24, 20, 22, 22, 22, 20, 23]
26.432[21, 25, 19, 21, 22, 20, 21, 22]
26.455[20, 23, 20, 19, 24, 22, 22, 21]
26.478[20, 23, 19, 20, 24, 22, 21, 21]
26.492[20, 24, 21, 19, 23, 18, 21, 22]
26.523[23, 21, 21, 23, 23, 19, 19, 20]
26.537[22, 22, 22, 22, 25, 20, 19, 21]
26.552[23, 23, 23, 22, 24, 20, 17, 20]
26.575[22, 25, 23, 21, 23, 20, 16, 20]
26.605[22, 27, 22, 21, 23, 22, 18, 18]
26.612[18, 28, 23, 15, 25, 22, 18, 17]
26.635[20, 26, 23, 15, 21, 21, 20, 15]
26.658[20, 26, 22, 18, 22, 23, 20, 15]
26.672[25, 23, 20, 18, 22, 23, 21, 14]
26.695[25, 21, 22, 18, 24, 22, 19, 13]
26.718[24, 19, 20, 20, 22, 23, 21, 14]
26.732[24, 19, 20, 21, 24, 22, 18, 18]
26.755[25, 21, 21, 20, 25, 19, 18, 18]
26.778[24, 22, 21, 21, 24, 20, 19, 20]
26.792[24, 24, 19, 21, 28, 21, 20, 21]
26.815[25, 24, 20, 22, 28, 20, 19, 21]
26.838[24, 23, 19, 21, 27, 20, 21, 19]
26.852[24, 27, 21, 22, 25, 19, 21, 20]
26.875[22, 26, 21, 19, 27, 20, 20, 19]
26.898[23, 24, 23, 20, 20, 18, 19, 20]
26.912[23, 24, 25, 18, 21, 19, 19, 20]
26.935[24, 27, 27, 21, 22, 20, 18, 20]
26.958[23, 24, 24, 20, 21, 21, 17, 20]
26.972[22, 26, 26, 23, 20, 19, 17, 21]
26.995[21, 26, 23, 22, 19, 20, 17, 21]
27.018[22, 25, 21, 21, 19, 20, 19, 23]
27.032[23, 22, 20, 20, 19, 20, 19, 23]
27.055[23, 20, 20, 21, 20, 20, 19, 23]
27.078[22, 17, 20, 18, 22, 19, 21, 23]
27.092[25, 19, 21, 21, 23, 20, 20, 23]
27.115[23, 21, 20, 21, 23, 21, 20, 23]
27.138[22, 19, 19, 20, 23, 20, 21, 21]
27.152[22, 19, 20, 21, 22, 19, 23, 20]
27.175[23, 19, 18, 22, 19, 20, 20, 19]
27.198[18, 18, 20, 20, 18, 21, 21, 19]
27.212[18, 16, 20, 22, 19, 22, 21, 21]
27.235[21, 20, 23, 21, 17, 22, 19, 21]
27.258[21, 21, 24, 20, 19, 22, 18, 21]
27.272[21, 23, 25, 22, 21, 23, 20, 22]
27.295[21, 23, 24, 23, 21, 21, 19, 21]
27.333[21, 23, 24, 20, 20, 19, 18, 18]
27.34[20, 19, 22, 23, 21, 21, 18, 19]
27.355[21, 21, 19, 24, 20, 20, 18, 18]
27.377[22, 17, 19, 22, 19, 20, 19, 17]
27.4[23, 21, 19, 20, 19, 22, 19, 18]
27.415[24, 22, 23, 22, 21, 22, 21, 17]
27.437[21, 24, 24, 20, 24, 22, 22, 16]
27.46[20, 23, 25, 21, 25, 22, 22, 18]
27.475[18, 24, 25, 22, 25, 21, 21, 19]
27.497[19, 22, 24, 23, 27, 20, 20, 18]
27.52[20, 21, 21, 22, 27, 20, 20, 18]
27.535[19, 19, 21, 22, 25, 23, 18, 18]
27.557[18, 21, 21, 20, 23, 24, 19, 18]
27.58[20, 24, 19, 22, 22, 24, 19, 16]
27.595[19, 23, 20, 21, 20, 25, 19, 16]
27.618[18, 23, 21, 19, 19, 25, 16, 15]
27.64[20, 25, 22, 21, 20, 19, 18, 18]
27.655[21, 21, 22, 21, 24, 21, 17, 19]
27.678[19, 19, 23, 17, 24, 20, 17, 21]
27.7[22, 21, 22, 17, 24, 19, 19, 21]
27.715[22, 22, 22, 19, 25, 19, 19, 22]
27.738[22, 26, 21, 20, 24, 20, 18, 21]
27.76[21, 27, 21, 20, 21, 17, 20, 19]
27.775[23, 29, 24, 20, 22, 20, 22, 21]
27.798[20, 26, 25, 21, 22, 21, 20, 21]
27.82[23, 26, 24, 20, 21, 20, 20, 24]
27.834[21, 20, 28, 20, 20, 20, 18, 24]
27.858[20, 20, 27, 19, 20, 21, 17, 25]
27.88[20, 18, 23, 20, 19, 20, 16, 22]
27.895[20, 23, 22, 21, 21, 21, 16, 22]
27.917[17, 23, 23, 19, 21, 21, 18, 20]
27.94[18, 22, 20, 19, 21, 21, 19, 20]
27.954[20, 23, 21, 19, 24, 20, 19, 20]
27.977[18, 23, 22, 18, 25, 19, 20, 21]
28.0[17, 20, 23, 22, 25, 18, 21, 22]
28.014[17, 22, 23, 22, 26, 20, 21, 20]
28.037[15, 23, 22, 21, 27, 22, 20, 20]
28.061[13, 21, 25, 21, 25, 24, 20, 21]
28.083[19, 26, 24, 23, 23, 23, 20, 21]
28.105[22, 27, 24, 18, 22, 23, 20, 21]
28.12[22, 29, 26, 18, 20, 23, 18, 20]
28.135[24, 29, 25, 19, 21, 21, 18, 20]
28.157[25, 31, 22, 19, 22, 18, 19, 19]
28.18[23, 26, 22, 18, 22, 20, 19, 18]
28.194[23, 26, 22, 20, 23, 20, 20, 19]
28.217[22, 26, 21, 22, 23, 19, 19, 20]
28.239[22, 28, 20, 22, 20, 18, 22, 19]
28.269[22, 26, 22, 21, 19, 19, 21, 18]
28.278[21, 26, 23, 21, 17, 16, 20, 20]
28.299[20, 25, 21, 18, 16, 16, 20, 18]
28.322[22, 21, 24, 20, 15, 16, 21, 18]
28.344[23, 19, 24, 21, 18, 16, 18, 21]
28.359[21, 19, 22, 23, 19, 18, 19, 20]
28.382[23, 20, 23, 23, 20, 19, 22, 19]
28.398[22, 19, 24, 24, 21, 19, 21, 20]
28.419[22, 21, 20, 21, 19, 21, 23, 21]
28.442[20, 21, 20, 22, 19, 21, 22, 19]
28.466[22, 22, 20, 22, 19, 22, 22, 21]
28.481[21, 21, 21, 22, 20, 21, 20, 21]
28.509[23, 23, 20, 21, 21, 20, 20, 20]
28.518[23, 23, 21, 23, 23, 20, 17, 20]
28.539[25, 24, 21, 20, 25, 20, 21, 21]
28.562[23, 26, 21, 20, 25, 19, 21, 19]
28.586[24, 25, 19, 19, 23, 19, 20, 20]
28.599[24, 26, 18, 20, 23, 20, 21, 19]
28.623[23, 24, 18, 19, 22, 19, 21, 18]
28.638[22, 26, 18, 20, 21, 20, 17, 21]
28.667[25, 22, 22, 18, 21, 20, 18, 21]
28.682[22, 22, 20, 20, 22, 20, 18, 23]
28.704[23, 20, 23, 20, 22, 20, 17, 25]
28.719[23, 18, 22, 21, 22, 23, 17, 24]
28.743[23, 19, 24, 20, 23, 22, 21, 22]
28.758[21, 20, 22, 20, 21, 22, 21, 21]
28.779[21, 22, 24, 20, 23, 21, 20, 19]
28.802[17, 23, 22, 20, 21, 21, 20, 19]
28.826[18, 23, 21, 21, 21, 19, 20, 21]
28.839[20, 25, 23, 19, 20, 21, 20, 22]
28.862[21, 26, 21, 20, 21, 20, 20, 22]
28.878[24, 25, 21, 19, 19, 20, 21, 22]
28.901[25, 25, 22, 18, 20, 20, 21, 22]
28.922[26, 29, 25, 21, 20, 20, 22, 20]
28.938[24, 25, 22, 21, 20, 19, 21, 19]
28.959[27, 26, 23, 21, 20, 18, 22, 19]
28.982[25, 25, 23, 21, 20, 19, 22, 21]
28.998[24, 25, 22, 22, 20, 18, 23, 21]
29.021[23, 20, 19, 20, 21, 20, 22, 22]
29.042[23, 21, 21, 21, 21, 20, 22, 22]
29.058[19, 18, 19, 20, 22, 20, 21, 23]
29.079[20, 20, 17, 19, 21, 18, 21, 21]
29.102[20, 20, 19, 22, 22, 19, 18, 21]
29.118[19, 22, 19, 23, 21, 17, 20, 19]
29.139[18, 23, 18, 24, 23, 19, 19, 20]
29.169[17, 24, 18, 25, 20, 22, 19, 17]
29.178[18, 23, 19, 26, 21, 22, 20, 16]
29.199[19, 23, 18, 24, 21, 22, 23, 16]
29.223[21, 23, 22, 22, 24, 20, 22, 18]
29.244[20, 22, 21, 21, 21, 18, 22, 17]
29.259[21, 21, 23, 22, 22, 18, 22, 18]
29.282[21, 20, 24, 20, 24, 21, 20, 20]
29.304[20, 24, 24, 21, 23, 20, 19, 22]
29.319[18, 23, 23, 20, 23, 21, 22, 21]
29.35[22, 25, 23, 21, 25, 23, 21, 23]
29.364[20, 24, 21, 19, 25, 21, 21, 22]
29.379[19, 24, 23, 20, 24, 21, 21, 21]
29.402[19, 21, 22, 19, 24, 23, 20, 19]
29.424[22, 21, 21, 18, 22, 24, 15, 18]
29.439[19, 17, 22, 15, 20, 22, 17, 18]
29.47[20, 24, 24, 18, 23, 23, 19, 18]
29.484[20, 25, 25, 18, 22, 22, 19, 21]
29.499[24, 25, 26, 20, 22, 20, 22, 21]
29.522[22, 24, 25, 21, 25, 18, 22, 22]
29.552[24, 24, 25, 23, 25, 18, 22, 21]
29.559[22, 22, 23, 21, 22, 18, 22, 21]
29.582[24, 25, 19, 22, 23, 18, 22, 19]
29.604[22, 25, 18, 21, 22, 18, 19, 18]
29.62[21, 26, 18, 20, 22, 19, 21, 18]
29.642[22, 28, 18, 18, 22, 18, 20, 17]
29.672[22, 26, 18, 19, 23, 18, 20, 16]
29.679[21, 23, 18, 17, 22, 17, 22, 16]
29.702[21, 22, 19, 18, 22, 19, 23, 17]
29.732[21, 21, 19, 17, 19, 20, 22, 19]
29.739[18, 21, 20, 17, 19, 21, 23, 18]
29.763[19, 19, 19, 17, 20, 22, 21, 19]
29.785[17, 22, 19, 19, 19, 21, 20, 17]
29.8[21, 22, 18, 20, 21, 21, 21, 22]
29.83[20, 23, 21, 24, 21, 18, 21, 20]
29.844[23, 21, 21, 25, 22, 19, 21, 20]
29.859[22, 21, 22, 26, 20, 20, 21, 21]
29.881[25, 21, 23, 26, 20, 19, 20, 20]
29.904[21, 23, 24, 26, 22, 19, 20, 16]
29.919[22, 25, 21, 22, 22, 22, 20, 17]
29.942[21, 27, 21, 22, 22, 21, 20, 19]
29.964[21, 26, 22, 21, 22, 20, 23, 19]
29.979[19, 24, 21, 20, 23, 21, 21, 20]
30.01[19, 24, 23, 19, 20, 22, 20, 20]
30.024[22, 23, 24, 20, 23, 18, 19, 22]
30.055[21, 21, 24, 19, 20, 20, 19, 20]
30.062[21, 24, 24, 18, 19, 18, 16, 20]
30.085[23, 25, 25, 18, 19, 19, 17, 22]
30.099[23, 23, 24, 19, 19, 16, 18, 22]
30.13[20, 21, 23, 21, 17, 17, 20, 23]
30.144[20, 23, 23, 22, 19, 17, 21, 22]
30.167[20, 22, 22, 22, 22, 19, 22, 24]
30.182[20, 21, 23, 24, 22, 19, 22, 22]
30.204[21, 21, 22, 22, 23, 21, 20, 22]
30.227[22, 22, 22, 18, 25, 21, 19, 21]
30.242[21, 22, 22, 17, 24, 21, 20, 22]
30.264[21, 21, 23, 18, 23, 19, 20, 19]
30.287[31, 21, 21, 17, 22, 18, 21, 18]
30.302[34, 20, 21, 19, 21, 20, 21, 19]
30.324[33, 20, 21, 20, 19, 21, 22, 19]
30.347[34, 16, 22, 21, 18, 23, 20, 19]
30.37[34, 25, 22, 20, 17, 23, 20, 20]
30.384[24, 26, 24, 20, 17, 25, 19, 21]
30.407[20, 27, 25, 19, 17, 23, 19, 21]
30.423[22, 28, 23, 20, 18, 21, 15, 20]
30.444[21, 29, 22, 19, 19, 18, 19, 19]
30.467[21, 22, 20, 19, 19, 20, 20, 19]
30.49[21, 25, 20, 20, 22, 19, 20, 19]
30.513[21, 23, 19, 20, 22, 19, 20, 16]
30.536[18, 24, 20, 19, 22, 19, 22, 17]
30.542[20, 22, 22, 17, 22, 21, 20, 19]
30.564[20, 25, 20, 20, 23, 19, 21, 20]
30.587[21, 23, 22, 20, 20, 19, 24, 19]
30.602[23, 23, 23, 19, 19, 19, 25, 19]
30.624[22, 21, 22, 19, 20, 18, 24, 23]
30.647[20, 23, 21, 20, 20, 20, 25, 20]
30.662[22, 23, 21, 18, 20, 20, 23, 20]
30.684[20, 23, 18, 16, 21, 19, 19, 20]
30.706[18, 23, 17, 19, 22, 21, 19, 20]
30.722[21, 25, 17, 20, 25, 21, 19, 17]
30.744[22, 23, 16, 21, 24, 19, 17, 17]
30.767[21, 21, 17, 23, 25, 19, 16, 19]
30.782[21, 21, 18, 24, 26, 18, 18, 18]
30.804[21, 20, 19, 23, 25, 16, 17, 18]
30.827[19, 19, 19, 23, 23, 18, 18, 18]
30.843[19, 21, 21, 23, 23, 17, 21, 19]
30.864[19, 21, 22, 22, 22, 18, 22, 16]
30.886[18, 20, 22, 22, 22, 20, 22, 18]
30.902[22, 22, 21, 22, 23, 21, 21, 19]
30.924[21, 21, 22, 21, 22, 21, 21, 20]
30.947[22, 24, 22, 22, 21, 23, 18, 19]
30.964[21, 24, 21, 22, 22, 22, 21, 21]
30.984[23, 27, 20, 25, 24, 21, 19, 18]
31.007[20, 27, 20, 26, 23, 21, 19, 17]
31.022[21, 28, 20, 26, 23, 19, 19, 17]
31.044[20, 28, 21, 24, 23, 19, 20, 18]
31.067[20, 29, 19, 23, 24, 19, 16, 17]
31.09[19, 26, 20, 20, 23, 18, 17, 18]
31.105[21, 26, 21, 18, 22, 18, 18, 19]
31.127[19, 25, 21, 17, 22, 23, 19, 18]
31.15[20, 22, 20, 17, 23, 20, 20, 18]
31.164[20, 26, 20, 16, 19, 19, 21, 19]
31.187[22, 25, 22, 15, 17, 20, 22, 20]
31.21[19, 28, 23, 18, 20, 20, 22, 18]
31.224[21, 27, 23, 20, 21, 15, 24, 20]
31.247[21, 28, 25, 21, 22, 16, 25, 21]
31.27[21, 23, 24, 23, 22, 18, 24, 20]
31.284[20, 25, 25, 22, 25, 18, 24, 21]
31.307[20, 19, 23, 22, 22, 18, 25, 21]
31.33[19, 24, 23, 22, 24, 20, 22, 21]
31.344[18, 23, 20, 22, 23, 19, 20, 21]
31.367[19, 23, 22, 21, 22, 18, 21, 21]
31.39[20, 23, 20, 23, 21, 18, 23, 20]
31.404[20, 23, 20, 22, 22, 19, 21, 20]
31.427[21, 22, 20, 23, 21, 18, 22, 21]
31.45[20, 22, 20, 23, 22, 17, 23, 19]
31.464[18, 23, 18, 22, 22, 20, 22, 19]
31.487[23, 24, 20, 22, 24, 20, 19, 19]
31.51[22, 23, 20, 23, 24, 20, 18, 19]
31.524[22, 22, 19, 21, 22, 20, 20, 18]
31.562[23, 23, 25, 20, 23, 23, 20, 19]
31.57[25, 23, 24, 23, 25, 23, 20, 19]
31.584[20, 23, 22, 22, 24, 23, 21, 18]
31.607[19, 23, 23, 22, 23, 22, 21, 18]
31.637[20, 22, 23, 22, 24, 24, 19, 19]
31.644[20, 23, 18, 23, 23, 22, 19, 18]
31.667[19, 21, 19, 21, 21, 20, 17, 19]
31.69[21, 20, 21, 21, 21, 21, 18, 18]
31.704[21, 23, 20, 21, 21, 20, 17, 17]
31.727[21, 22, 21, 22, 19, 18, 19, 18]
31.75[23, 22, 21, 22, 19, 21, 18, 17]
31.764[23, 23, 22, 22, 20, 20, 17, 18]
31.787[21, 23, 21, 24, 21, 19, 17, 18]
31.81[22, 23, 22, 22, 21, 19, 19, 20]
31.824[20, 22, 23, 21, 21, 19, 18, 19]
31.847[19, 20, 22, 21, 23, 19, 19, 20]
31.87[20, 22, 21, 20, 23, 18, 20, 17]
31.884[20, 23, 22, 18, 22, 18, 19, 21]
31.907[19, 23, 21, 19, 21, 20, 18, 20]
31.931[19, 24, 21, 19, 23, 21, 18, 20]
31.952[18, 26, 23, 17, 21, 19, 17, 20]
31.967[18, 24, 23, 17, 24, 18, 17, 20]
31.99[19, 23, 22, 17, 23, 21, 17, 17]
32.004[17, 25, 22, 18, 25, 19, 16, 15]
32.035[18, 26, 20, 22, 22, 18, 17, 15]
32.05[20, 27, 20, 21, 22, 20, 18, 16]
32.072[19, 26, 19, 22, 20, 22, 18, 17]
32.087[19, 25, 20, 24, 22, 19, 17, 17]
32.11[18, 22, 20, 22, 20, 20, 18, 18]
32.132[18, 23, 21, 20, 19, 20, 17, 19]
32.148[16, 19, 19, 21, 19, 18, 16, 19]
32.17[20, 20, 22, 20, 18, 18, 20, 19]
32.192[19, 20, 22, 19, 18, 19, 21, 18]
32.207[20, 20, 21, 20, 20, 20, 20, 17]
32.23[19, 17, 22, 21, 21, 21, 21, 16]
32.252[23, 18, 21, 20, 22, 20, 22, 16]
32.267[20, 17, 22, 21, 22, 19, 20, 17]
32.29[21, 19, 21, 20, 21, 19, 20, 17]
32.312[21, 19, 23, 20, 28, 22, 22, 17]
32.327[22, 22, 25, 18, 28, 23, 23, 19]
32.35[19, 21, 25, 17, 29, 23, 21, 18]
32.389[18, 22, 23, 17, 29, 26, 22, 16]
32.39[16, 23, 24, 19, 27, 25, 22, 19]
32.41[19, 23, 22, 20, 22, 22, 21, 19]
32.432[17, 21, 21, 21, 22, 20, 20, 17]
32.447[19, 22, 21, 20, 20, 20, 21, 17]
32.47[19, 20, 20, 20, 20, 18, 20, 19]
32.492[20, 20, 22, 20, 22, 18, 20, 18]
32.507[19, 19, 22, 21, 22, 18, 18, 21]
32.53[21, 17, 20, 20, 24, 22, 20, 21]
32.552[19, 19, 21, 22, 24, 21, 20, 22]
32.567[20, 22, 22, 20, 26, 20, 19, 21]
32.59[22, 20, 20, 21, 24, 20, 20, 22]
32.612[21, 22, 21, 21, 23, 21, 20, 18]
32.627[23, 23, 21, 21, 23, 21, 19, 18]
32.65[23, 22, 21, 20, 22, 20, 19, 20]
32.672[25, 20, 22, 21, 20, 20, 20, 20]
32.687[22, 22, 20, 21, 21, 20, 21, 21]
32.71[22, 22, 23, 19, 20, 20, 22, 21]
32.733[19, 23, 22, 19, 20, 18, 21, 20]
32.746[20, 22, 24, 19, 20, 19, 21, 19]
32.77[16, 25, 24, 19, 21, 22, 21, 18]
32.792[16, 22, 24, 21, 22, 23, 20, 18]
32.807[17, 22, 20, 22, 22, 24, 20, 18]
32.83[19, 23, 21, 22, 24, 23, 20, 19]
32.853[18, 24, 19, 23, 23, 24, 20, 18]
32.867[18, 22, 20, 24, 24, 20, 18, 20]
32.89[20, 23, 22, 22, 21, 19, 19, 19]
32.912[24, 23, 23, 20, 23, 16, 20, 20]
32.927[23, 23, 22, 21, 22, 16, 20, 19]
32.95[23, 23, 21, 22, 22, 16, 19, 20]
32.972[23, 21, 23, 20, 21, 16, 19, 19]
32.995[24, 22, 23, 23, 23, 18, 20, 19]
33.01[20, 23, 24, 24, 25, 21, 20, 20]
33.032[19, 21, 25, 22, 23, 20, 22, 21]
33.055[20, 22, 25, 21, 24, 20, 22, 20]
33.07[19, 24, 23, 23, 24, 21, 22, 21]
33.093[18, 24, 21, 22, 24, 20, 21, 23]
33.115[18, 22, 21, 20, 21, 18, 21, 22]
33.131[17, 23, 19, 22, 21, 19, 19, 21]
33.152[17, 22, 20, 22, 24, 20, 18, 21]
33.182[18, 19, 20, 22, 24, 21, 22, 19]
33.19[16, 20, 22, 22, 22, 24, 23, 15]
33.227[19, 19, 21, 21, 21, 24, 22, 15]
33.234[21, 19, 22, 22, 21, 23, 21, 18]
33.25[20, 25, 20, 21, 17, 22, 22, 17]
33.271[19, 27, 20, 19, 15, 22, 19, 19]
33.303[20, 27, 19, 18, 15, 19, 18, 20]
33.313[19, 28, 19, 19, 17, 20, 19, 23]
33.331[17, 28, 19, 18, 20, 19, 18, 21]
33.354[18, 23, 19, 18, 19, 20, 18, 21]
33.37[22, 22, 19, 19, 21, 20, 19, 22]
33.391[21, 20, 19, 21, 21, 20, 18, 21]
33.417[20, 20, 23, 23, 19, 19, 17, 21]
33.431[24, 20, 23, 22, 19, 21, 21, 20]
33.452[24, 19, 23, 23, 20, 21, 21, 24]
33.474[21, 18, 25, 22, 20, 19, 20, 23]
33.49[22, 22, 24, 20, 21, 21, 21, 23]
33.513[23, 22, 23, 19, 22, 22, 22, 22]
33.534[21, 22, 22, 20, 20, 20, 19, 25]
33.55[20, 20, 24, 20, 18, 21, 20, 23]
33.572[20, 22, 23, 21, 19, 20, 21, 23]
33.594[20, 19, 23, 21, 20, 20, 20, 23]
33.618[18, 20, 22, 18, 22, 20, 19, 23]
33.631[15, 20, 23, 18, 23, 21, 20, 21]
33.654[18, 21, 21, 19, 24, 20, 20, 21]
33.67[19, 24, 20, 20, 23, 19, 20, 20]
33.691[19, 24, 20, 21, 23, 19, 20, 21]
33.714[20, 23, 20, 22, 20, 17, 20, 20]
33.73[21, 23, 20, 22, 22, 16, 19, 20]
33.751[21, 26, 18, 21, 20, 16, 18, 16]
33.775[19, 21, 19, 21, 21, 16, 16, 17]
33.79[20, 22, 22, 20, 20, 18, 20, 17]
33.819[21, 22, 21, 20, 23, 19, 20, 19]
33.834[21, 24, 21, 20, 20, 20, 20, 22]
33.85[21, 23, 22, 20, 22, 21, 20, 24]
33.871[22, 22, 23, 20, 21, 23, 21, 24]
33.894[20, 22, 21, 21, 22, 22, 18, 22]
33.911[19, 23, 21, 21, 19, 23, 19, 23]
33.931[22, 20, 23, 20, 20, 23, 19, 20]
33.954[20, 19, 23, 20, 18, 23, 18, 18]
33.976[19, 22, 21, 21, 21, 22, 18, 20]
33.991[21, 22, 21, 20, 19, 20, 18, 20]
34.014[20, 23, 20, 19, 21, 19, 18, 17]
34.036[17, 25, 20, 20, 21, 19, 18, 19]
34.052[17, 26, 20, 20, 21, 17, 18, 19]
34.074[18, 26, 19, 18, 20, 18, 18, 18]
34.097[17, 27, 22, 19, 22, 20, 20, 22]
34.112[19, 26, 23, 21, 23, 20, 19, 23]
34.134[21, 25, 20, 20, 22, 24, 19, 21]
34.157[20, 24, 22, 18, 24, 24, 20, 21]
34.171[21, 20, 22, 19, 24, 23, 20, 23]
34.194[21, 19, 20, 18, 25, 23, 19, 21]
34.217[20, 19, 19, 17, 24, 22, 20, 20]
34.231[19, 20, 22, 20, 25, 20, 21, 22]
34.255[19, 23, 20, 21, 22, 20, 19, 23]
34.277[22, 27, 21, 21, 23, 19, 21, 23]
34.291[20, 27, 20, 21, 22, 18, 21, 20]
34.314[21, 28, 20, 21, 22, 20, 20, 21]
34.338[20, 28, 19, 19, 20, 21, 19, 19]
34.351[21, 25, 20, 19, 21, 20, 21, 18]
34.374[21, 22, 22, 20, 22, 20, 20, 16]
34.397[24, 20, 23, 20, 20, 19, 20, 17]
34.413[25, 18, 22, 20, 21, 18, 19, 17]
34.435[25, 18, 26, 21, 20, 16, 19, 18]
34.456[24, 20, 25, 21, 21, 18, 19, 18]
34.471[22, 20, 23, 18, 20, 17, 20, 18]
34.494[20, 20, 24, 20, 20, 17, 19, 20]
34.517[19, 21, 25, 19, 21, 18, 20, 19]
34.531[19, 19, 20, 17, 21, 16, 20, 21]
34.554[21, 20, 21, 19, 19, 19, 19, 21]
34.577[21, 21, 21, 20, 18, 22, 19, 21]
34.591[22, 20, 19, 19, 16, 22, 18, 19]
34.622[21, 20, 21, 19, 17, 23, 17, 20]
34.636[23, 20, 23, 20, 19, 24, 17, 18]
34.651[22, 22, 23, 19, 20, 22, 16, 17]
34.674[21, 21, 23, 20, 20, 19, 16, 16]
34.696[20, 22, 22, 20, 21, 20, 18, 18]
34.711[22, 23, 23, 22, 21, 19, 19, 20]
34.734[21, 24, 21, 22, 20, 18, 21, 20]
34.756[22, 25, 21, 21, 19, 18, 21, 21]
34.771[23, 24, 24, 20, 19, 21, 21, 20]
34.794[24, 25, 24, 22, 18, 19, 20, 18]
34.817[23, 26, 23, 19, 19, 21, 20, 16]
34.831[21, 25, 23, 19, 21, 22, 18, 18]
34.854[22, 22, 24, 20, 22, 23, 22, 18]
34.877[21, 24, 23, 20, 22, 23, 21, 20]
34.899[18, 24, 24, 20, 23, 22, 21, 21]
34.914[20, 23, 22, 20, 21, 21, 20, 22]
34.937[21, 23, 22, 22, 19, 22, 19, 19]
34.96[22, 22, 21, 23, 21, 19, 17, 21]
34.974[22, 22, 20, 22, 21, 18, 18, 19]
35.005[24, 22, 21, 21, 21, 21, 20, 18]
35.019[21, 21, 21, 21, 23, 21, 20, 16]
35.034[22, 22, 22, 20, 24, 20, 21, 17]
35.057[20, 23, 21, 19, 23, 20, 21, 17]
35.079[19, 23, 23, 20, 22, 22, 20, 18]
35.094[20, 25, 22, 19, 23, 21, 18, 20]
35.116[19, 24, 22, 18, 22, 20, 21, 21]
35.139[18, 25, 21, 18, 22, 20, 19, 20]
35.154[19, 23, 22, 19, 21, 19, 19, 19]
35.176[20, 23, 22, 17, 23, 18, 18, 19]
35.207[18, 23, 21, 22, 22, 19, 18, 17]
35.214[18, 25, 21, 23, 24, 21, 20, 17]
35.236[18, 26, 22, 22, 24, 22, 21, 17]
35.259[17, 27, 21, 21, 22, 21, 20, 17]
35.282[16, 29, 19, 22, 21, 20, 22, 19]
35.296[16, 26, 18, 18, 22, 19, 21, 19]
35.319[15, 27, 20, 18, 21, 17, 18, 17]
35.334[17, 27, 22, 19, 20, 17, 20, 22]
35.356[19, 29, 24, 21, 22, 19, 21, 22]
35.379[21, 25, 24, 20, 22, 19, 22, 22]
35.394[25, 29, 25, 20, 22, 17, 22, 22]
35.417[25, 26, 23, 21, 21, 18, 23, 23]
35.439[26, 25, 22, 19, 22, 18, 22, 19]
35.454[24, 27, 22, 17, 22, 17, 22, 21]
35.476[23, 27, 23, 18, 22, 19, 19, 19]
35.499[18, 25, 25, 19, 21, 20, 20, 22]
35.515[21, 24, 26, 19, 22, 20, 21, 22]
35.538[19, 25, 25, 20, 21, 20, 19, 22]
35.559[21, 21, 25, 20, 22, 20, 18, 22]
35.574[23, 22, 27, 21, 20, 19, 20, 23]
35.597[24, 21, 25, 21, 20, 20, 18, 21]
35.619[23, 21, 24, 19, 18, 20, 18, 19]
35.634[24, 20, 25, 22, 22, 21, 18, 17]
35.656[21, 20, 25, 22, 22, 21, 19, 16]
35.679[21, 21, 26, 20, 22, 20, 17, 14]
35.694[19, 22, 24, 20, 22, 21, 18, 18]
35.716[18, 24, 24, 21, 23, 22, 18, 19]
35.739[19, 24, 25, 21, 20, 22, 20, 19]
35.754[19, 25, 25, 21, 21, 22, 22, 21]
35.776[17, 22, 23, 20, 21, 22, 22, 22]
35.799[17, 22, 23, 22, 21, 21, 22, 18]
35.814[18, 20, 23, 21, 22, 18, 21, 19]
35.836[20, 19, 22, 19, 21, 18, 19, 18]
35.884[21, 19, 21, 19, 21, 18, 16, 17]
35.885[20, 20, 19, 20, 20, 20, 16, 18]
35.897[21, 22, 20, 18, 21, 20, 17, 19]
35.919[21, 25, 23, 17, 20, 21, 17, 21]
35.943[17, 25, 22, 17, 22, 23, 20, 20]
35.956[19, 23, 21, 18, 21, 22, 21, 21]
35.979[19, 26, 22, 18, 22, 21, 20, 20]
36.003[19, 23, 21, 18, 22, 20, 20, 20]
36.017[21, 19, 20, 19, 21, 21, 21, 20]
36.039[22, 19, 19, 18, 20, 21, 19, 20]
36.07[21, 19, 19, 17, 20, 20, 19, 21]
36.078[21, 18, 23, 17, 19, 20, 20, 19]
36.099[22, 21, 22, 18, 20, 22, 19, 20]
36.122[21, 21, 21, 19, 22, 20, 19, 19]
36.136[20, 20, 20, 19, 22, 19, 18, 20]
36.167[20, 23, 22, 19, 20, 20, 19, 20]
36.182[22, 26, 18, 21, 24, 19, 19, 22]
36.196[21, 26, 19, 20, 22, 17, 18, 22]
36.219[22, 27, 18, 21, 21, 19, 18, 23]
36.242[21, 27, 18, 21, 21, 19, 17, 26]
36.257[20, 25, 19, 20, 22, 19, 19, 27]
36.279[19, 24, 19, 18, 18, 21, 19, 25]
36.31[19, 22, 19, 20, 18, 20, 19, 24]
36.317[17, 22, 19, 19, 19, 21, 20, 22]
36.34[17, 24, 21, 19, 21, 22, 22, 18]
36.362[17, 24, 21, 20, 20, 21, 19, 16]
36.376[19, 25, 20, 21, 20, 20, 19, 18]
36.4[19, 25, 22, 20, 20, 20, 19, 19]
36.423[20, 26, 24, 19, 19, 18, 21, 18]
36.446[21, 26, 22, 22, 19, 18, 20, 17]
36.46[22, 26, 22, 21, 20, 19, 19, 17]
36.482[20, 24, 24, 20, 18, 18, 20, 16]
36.497[20, 23, 23, 18, 21, 18, 19, 16]
36.52[20, 20, 22, 20, 20, 19, 18, 17]
36.542[21, 16, 23, 19, 20, 17, 17, 17]
36.564[21, 18, 23, 19, 20, 16, 19, 18]
36.58[20, 19, 22, 20, 25, 16, 19, 17]
36.602[19, 21, 21, 23, 23, 17, 18, 19]
36.617[19, 23, 19, 23, 25, 16, 20, 19]
36.64[17, 24, 18, 20, 24, 16, 19, 20]
36.67[17, 22, 20, 21, 24, 19, 19, 19]
36.676[18, 23, 21, 20, 19, 19, 18, 20]
36.707[20, 23, 22, 20, 22, 20, 19, 18]
36.723[21, 22, 21, 19, 22, 22, 19, 20]
36.736[20, 40, 21, 21, 22, 23, 19, 19]
36.759[20, 41, 21, 23, 23, 22, 19, 19]
36.782[19, 39, 18, 22, 24, 23, 21, 18]
36.805[17, 40, 18, 21, 22, 21, 21, 20]
36.827[16, 39, 20, 20, 21, 21, 22, 21]
36.842[18, 21, 21, 20, 23, 21, 21, 21]
36.865[19, 21, 22, 21, 22, 20, 21, 21]
36.88[18, 24, 23, 21, 23, 19, 20, 20]
36.903[20, 21, 23, 23, 24, 19, 21, 18]
36.925[21, 23, 21, 23, 23, 18, 19, 15]
36.947[20, 25, 22, 23, 21, 16, 19, 15]
36.963[19, 23, 21, 21, 19, 15, 18, 16]
36.985[21, 22, 21, 22, 18, 14, 20, 17]
37.0[21, 24, 21, 20, 19, 16, 18, 18]
37.022[19, 23, 22, 20, 20, 17, 19, 19]
37.045[19, 23, 24, 20, 21, 18, 21, 20]
37.067[19, 25, 24, 19, 24, 20, 21, 19]
37.09[19, 28, 24, 19, 24, 20, 23, 20]
37.121[19, 27, 25, 21, 23, 18, 24, 22]
37.122[20, 27, 23, 20, 22, 17, 23, 22]
37.142[18, 28, 20, 19, 22, 20, 22, 20]
37.165[20, 26, 22, 20, 22, 18, 23, 21]
37.18[19, 22, 21, 21, 28, 19, 19, 20]
37.202[18, 23, 20, 18, 31, 21, 19, 16]
37.224[17, 27, 20, 19, 31, 21, 18, 16]
37.239[17, 26, 21, 19, 32, 20, 18, 18]
37.262[16, 25, 20, 21, 28, 21, 19, 18]
37.285[15, 25, 20, 20, 22, 20, 20, 19]
37.299[16, 26, 19, 20, 20, 19, 19, 19]
37.322[18, 21, 19, 20, 21, 19, 18, 21]
37.345[19, 21, 17, 21, 20, 20, 18, 19]
37.359[19, 24, 17, 20, 23, 20, 17, 19]
37.383[20, 23, 19, 19, 24, 19, 16, 19]
37.405[20, 24, 20, 20, 23, 20, 18, 20]
37.419[19, 23, 19, 20, 22, 19, 18, 19]
37.442[17, 25, 19, 19, 20, 18, 18, 21]
37.465[16, 25, 19, 18, 18, 17, 19, 22]
37.479[16, 26, 22, 19, 16, 23, 17, 20]
37.503[17, 24, 20, 20, 20, 22, 16, 19]
37.525[17, 24, 21, 20, 20, 22, 16, 18]
37.539[17, 20, 22, 19, 20, 22, 19, 20]
37.562[16, 19, 24, 20, 21, 22, 18, 18]
37.585[20, 20, 22, 21, 21, 19, 19, 17]
37.599[18, 21, 23, 21, 16, 20, 21, 17]
37.623[18, 20, 22, 21, 18, 21, 20, 17]
37.645[19, 21, 23, 24, 18, 21, 19, 15]
37.659[19, 22, 21, 25, 17, 21, 20, 18]
37.682[16, 22, 21, 23, 18, 20, 21, 19]
37.705[16, 23, 22, 21, 19, 19, 19, 19]
37.727[20, 23, 24, 21, 19, 19, 20, 21]
37.742[21, 24, 24, 20, 18, 17, 22, 20]
37.765[21, 23, 24, 17, 18, 19, 21, 19]
37.795[22, 23, 24, 19, 17, 19, 20, 20]
37.802[24, 26, 24, 20, 16, 20, 20, 20]
37.825[21, 26, 22, 21, 23, 20, 19, 20]
37.847[19, 26, 20, 20, 24, 22, 20, 20]
37.862[20, 27, 20, 21, 23, 20, 18, 19]
37.884[19, 26, 19, 19, 24, 20, 17, 19]
37.907[17, 24, 21, 19, 24, 20, 18, 19]
37.922[17, 23, 22, 21, 20, 21, 19, 17]
37.945[16, 23, 22, 21, 20, 18, 16, 17]
37.967[15, 22, 21, 21, 22, 18, 18, 20]
37.982[16, 22, 25, 23, 22, 19, 19, 20]
38.005[17, 21, 21, 24, 23, 17, 18, 20]
38.027[16, 24, 21, 22, 21, 18, 20, 20]
38.043[18, 23, 21, 21, 22, 20, 20, 21]
38.071[20, 24, 21, 21, 19, 20, 21, 20]
38.087[17, 24, 19, 21, 20, 20, 20, 21]
38.103[18, 24, 20, 22, 19, 22, 19, 21]
38.124[19, 24, 21, 23, 22, 22, 18, 22]
38.147[20, 23, 22, 22, 22, 22, 19, 22]
38.163[20, 24, 21, 23, 21, 21, 19, 21]
38.184[22, 23, 20, 21, 21, 20, 18, 19]
38.206[23, 24, 21, 19, 20, 19, 20, 20]
38.223[22, 21, 19, 17, 18, 18, 18, 19]
38.244[21, 23, 17, 20, 18, 20, 17, 18]
38.267[20, 20, 19, 20, 18, 19, 17, 18]
38.283[18, 20, 20, 19, 19, 20, 17, 19]
38.304[16, 20, 20, 21, 20, 21, 17, 21]
38.327[17, 19, 19, 22, 19, 23, 17, 21]
38.349[18, 20, 19, 20, 20, 21, 18, 22]
38.364[17, 21, 19, 20, 19, 22, 18, 21]
38.386[17, 22, 21, 22, 22, 19, 18, 21]
38.403[18, 22, 19, 21, 22, 22, 18, 18]
38.424[19, 24, 21, 19, 24, 19, 19, 18]
38.446[16, 24, 21, 20, 23, 19, 18, 19]
38.463[18, 24, 21, 20, 26, 20, 18, 18]
38.484[19, 24, 22, 20, 24, 22, 18, 18]
38.506[19, 23, 24, 20, 23, 20, 20, 19]
38.523[20, 21, 25, 21, 21, 21, 22, 19]
38.544[21, 21, 26, 21, 22, 21, 23, 18]
38.574[22, 20, 25, 21, 21, 23, 22, 18]
38.583[22, 21, 25, 20, 21, 22, 22, 18]
38.604[21, 22, 23, 21, 20, 21, 21, 19]
38.627[20, 22, 22, 20, 22, 21, 17, 20]
38.65[20, 21, 21, 21, 21, 21, 16, 22]
38.664[19, 20, 23, 20, 20, 21, 16, 22]
38.694[17, 22, 22, 19, 19, 20, 17, 21]
38.709[18, 23, 22, 19, 20, 22, 19, 20]
38.724[18, 25, 21, 18, 18, 23, 20, 21]
38.747[18, 25, 21, 15, 21, 25, 20, 20]
38.769[18, 26, 19, 17, 20, 25, 20, 20]
38.784[20, 22, 19, 19, 21, 26, 20, 21]
38.814[20, 18, 18, 19, 21, 26, 17, 20]
38.829[20, 20, 18, 21, 23, 26, 17, 18]
38.851[20, 19, 17, 25, 21, 23, 17, 18]
38.866[22, 20, 20, 25, 21, 23, 18, 17]
38.889[21, 21, 17, 23, 19, 22, 17, 17]
38.904[20, 23, 21, 24, 18, 21, 20, 18]
38.928[20, 21, 22, 23, 16, 19, 22, 19]
38.949[21, 22, 22, 19, 19, 19, 22, 21]
38.964[18, 22, 21, 20, 19, 17, 21, 20]
38.987[21, 23, 21, 21, 18, 18, 21, 20]
39.018[22, 23, 20, 20, 19, 19, 20, 20]
39.024[23, 24, 19, 19, 19, 20, 18, 20]
39.055[21, 23, 19, 20, 17, 20, 17, 18]
39.069[22, 23, 20, 21, 19, 22, 19, 19]
39.084[20, 24, 19, 22, 20, 22, 21, 18]
39.107[22, 24, 19, 22, 19, 24, 20, 17]
39.129[20, 25, 20, 22, 20, 23, 21, 18]
39.144[20, 25, 20, 22, 21, 22, 21, 18]
39.167[19, 26, 19, 22, 18, 22, 20, 18]
39.189[19, 23, 20, 21, 20, 20, 20, 19]
39.204[16, 25, 19, 22, 21, 19, 20, 20]
39.227[15, 26, 19, 22, 19, 20, 19, 19]
39.249[19, 26, 19, 21, 18, 23, 19, 19]
39.264[20, 24, 18, 19, 19, 23, 19, 21]
39.287[20, 23, 18, 18, 16, 24, 18, 21]
39.309[21, 22, 19, 17, 16, 26, 17, 21]
39.324[21, 19, 18, 17, 18, 25, 16, 21]
39.347[20, 20, 18, 19, 17, 22, 17, 21]
39.37[19, 21, 19, 19, 17, 24, 20, 20]
39.384[19, 22, 18, 21, 20, 24, 22, 19]
39.406[18, 20, 18, 21, 20, 24, 22, 18]
39.429[21, 23, 20, 21, 20, 24, 23, 16]
39.444[20, 21, 19, 19, 20, 25, 22, 17]
39.466[20, 21, 22, 19, 20, 22, 21, 17]
39.497[20, 25, 24, 18, 18, 26, 19, 18]
39.504[21, 26, 23, 17, 18, 29, 19, 19]
39.527[20, 24, 25, 18, 18, 29, 20, 18]
39.549[21, 25, 25, 18, 19, 30, 21, 20]
39.571[22, 28, 23, 20, 18, 30, 21, 18]
39.586[21, 24, 22, 22, 17, 27, 21, 17]
39.61[21, 24, 22, 21, 18, 21, 20, 18]
39.631[20, 24, 20, 21, 19, 21, 19, 18]
39.648[18, 25, 22, 20, 18, 20, 19, 17]
39.669[17, 23, 21, 19, 19, 21, 18, 17]
39.691[17, 22, 22, 17, 22, 20, 19, 18]
39.707[18, 25, 22, 16, 21, 20, 20, 18]
39.737[18, 24, 21, 19, 19, 21, 19, 18]
39.751[21, 23, 19, 19, 21, 21, 20, 19]
39.774[21, 22, 19, 19, 21, 22, 19, 19]
39.789[23, 21, 21, 22, 19, 22, 19, 19]
39.812[23, 19, 20, 22, 19, 21, 19, 18]
39.827[23, 20, 22, 21, 20, 21, 20, 20]
39.849[22, 19, 22, 23, 19, 20, 18, 21]
39.88[22, 20, 23, 23, 16, 20, 21, 22]
39.887[21, 21, 22, 21, 17, 21, 19, 20]
39.909[19, 21, 21, 22, 18, 22, 19, 21]
39.932[20, 21, 23, 21, 20, 21, 21, 20]
39.946[20, 23, 23, 20, 20, 21, 20, 18]
39.969[20, 23, 23, 21, 21, 20, 19, 18]
39.991[21, 23, 22, 21, 21, 18, 19, 20]
40.006[24, 24, 21, 21, 21, 18, 19, 19]
40.029[23, 24, 19, 20, 19, 17, 18, 20]
40.051[25, 22, 22, 22, 19, 17, 21, 22]
40.067[25, 22, 21, 22, 18, 18, 20, 22]
40.089[24, 22, 20, 23, 20, 19, 20, 21]
40.112[21, 21, 21, 23, 20, 19, 21, 20]
40.126[23, 19, 19, 23, 20, 19, 21, 21]
40.149[20, 20, 18, 22, 19, 19, 19, 17]
40.171[20, 21, 17, 21, 20, 21, 18, 18]
40.187[21, 20, 19, 19, 17, 20, 19, 19]
40.21[20, 21, 19, 19, 20, 22, 17, 20]
40.232[18, 23, 20, 20, 20, 22, 17, 19]
40.247[20, 21, 21, 19, 21, 22, 17, 19]
40.269[21, 20, 21, 19, 21, 20, 19, 19]
40.291[20, 21, 20, 19, 21, 21, 18, 19]
40.306[24, 20, 20, 21, 18, 19, 19, 18]
40.329[24, 20, 21, 21, 21, 18, 19, 19]
40.352[21, 24, 20, 22, 21, 18, 18, 19]
40.367[21, 24, 21, 23, 21, 19, 18, 17]
40.389[21, 23, 21, 23, 22, 20, 18, 18]
40.411[20, 23, 22, 21, 22, 19, 18, 20]
40.427[21, 24, 24, 21, 20, 20, 21, 20]
40.449[21, 23, 23, 20, 20, 19, 22, 22]
40.471[22, 22, 22, 19, 19, 18, 22, 22]
40.487[21, 24, 21, 19, 20, 20, 22, 21]
40.509[21, 24, 24, 20, 22, 20, 20, 19]
40.531[22, 21, 23, 20, 21, 20, 17, 17]
40.546[22, 20, 23, 18, 21, 22, 16, 15]
40.569[21, 22, 23, 18, 21, 23, 15, 16]
40.591[21, 20, 25, 21, 22, 20, 13, 17]
40.615[22, 20, 23, 21, 22, 20, 15, 17]
40.629[19, 22, 25, 22, 21, 20, 17, 17]
40.651[19, 22, 24, 22, 21, 20, 17, 17]
40.675[22, 20, 23, 25, 23, 20, 19, 20]
40.689[22, 20, 23, 23, 20, 21, 20, 19]
40.711[23, 21, 22, 21, 21, 21, 20, 19]
40.735[25, 21, 19, 20, 21, 21, 22, 21]
40.749[25, 19, 19, 21, 22, 23, 22, 20]
40.771[23, 22, 19, 18, 23, 22, 21, 19]
40.795[24, 22, 19, 19, 25, 23, 22, 17]
40.809[21, 22, 20, 18, 27, 21, 20, 18]
40.831[19, 22, 20, 18, 27, 21, 17, 19]
40.855[18, 22, 20, 17, 26, 20, 18, 20]
40.877[20, 20, 21, 19, 22, 19, 17, 21]
40.891[19, 19, 20, 20, 23, 18, 18, 21]
40.915[20, 18, 20, 20, 20, 19, 19, 19]
40.929[21, 23, 23, 20, 19, 19, 19, 16]
40.951[21, 24, 22, 20, 18, 19, 20, 16]
40.975[18, 24, 21, 19, 19, 20, 21, 17]
40.989[20, 24, 21, 18, 20, 25, 20, 16]
41.011[22, 25, 21, 17, 20, 25, 19, 20]
41.035[21, 24, 20, 16, 21, 26, 22, 21]
41.05[22, 23, 20, 16, 22, 25, 20, 22]
41.071[21, 23, 21, 18, 24, 27, 19, 21]
41.095[24, 35, 23, 18, 21, 25, 19, 25]
41.109[22, 34, 23, 20, 23, 24, 20, 23]
41.131[23, 33, 22, 20, 22, 23, 18, 23]
41.154[24, 34, 24, 19, 23, 23, 19, 22]
41.169[25, 34, 24, 17, 21, 21, 19, 21]
41.192[21, 23, 23, 17, 21, 19, 17, 17]
41.215[20, 23, 24, 20, 20, 19, 17, 19]
41.229[21, 24, 22, 22, 19, 20, 16, 17]
41.251[19, 23, 25, 22, 18, 19, 15, 18]
41.275[19, 25, 24, 21, 18, 23, 16, 19]
41.289[21, 24, 22, 22, 20, 23, 17, 19]
41.311[20, 23, 22, 20, 20, 24, 18, 18]
41.335[21, 22, 23, 19, 22, 24, 19, 18]
41.349[21, 23, 20, 18, 21, 24, 20, 18]
41.371[20, 35, 21, 20, 22, 22, 19, 20]
41.394[20, 38, 21, 20, 22, 22, 19, 19]
41.41[22, 60, 23, 19, 23, 23, 17, 19]
41.432[21, 60, 23, 22, 22, 23, 18, 19]
41.455[23, 61, 24, 23, 23, 23, 18, 19]
41.469[23, 55, 23, 23, 22, 23, 17, 17]
41.491[21, 56, 23, 22, 21, 23, 17, 19]
41.515[20, 33, 22, 22, 21, 20, 19, 18]
41.537[21, 31, 21, 21, 21, 20, 19, 20]
41.552[19, 32, 21, 23, 20, 21, 19, 20]
41.575[20, 29, 21, 21, 18, 20, 20, 20]
41.597[21, 25, 21, 22, 20, 19, 20, 19]
41.613[21, 22, 22, 22, 19, 20, 19, 21]
41.635[19, 22, 24, 21, 19, 17, 18, 20]
41.657[19, 21, 22, 20, 21, 17, 19, 22]
41.679[20, 24, 25, 21, 22, 18, 18, 22]
41.695[20, 24, 25, 20, 21, 17, 19, 21]
41.717[21, 26, 24, 20, 21, 19, 19, 22]
41.732[20, 27, 24, 20, 20, 21, 21, 22]
41.755[20, 25, 24, 17, 18, 22, 21, 20]
41.777[19, 22, 20, 15, 18, 23, 21, 20]
41.792[20, 21, 21, 16, 19, 25, 20, 22]
41.815[19, 18, 20, 16, 19, 24, 20, 19]
41.837[22, 18, 18, 16, 21, 22, 19, 19]
41.851[23, 21, 20, 19, 21, 23, 21, 18]
41.875[24, 20, 22, 20, 22, 21, 21, 20]
41.897[21, 21, 22, 19, 22, 19, 22, 20]
41.912[22, 22, 21, 20, 21, 18, 21, 20]
41.935[20, 24, 21, 20, 19, 21, 21, 18]
41.957[22, 22, 22, 20, 20, 21, 17, 20]
41.972[21, 23, 21, 18, 19, 22, 17, 16]
41.995[24, 23, 21, 19, 19, 23, 19, 18]
42.017[23, 22, 21, 19, 21, 24, 19, 18]
42.031[25, 21, 22, 19, 21, 21, 18, 19]
42.055[24, 23, 21, 18, 19, 23, 20, 20]
42.077[25, 23, 20, 17, 21, 23, 20, 21]
42.091[24, 27, 20, 16, 20, 22, 18, 18]
42.115[25, 26, 20, 16, 19, 23, 17, 22]
42.145[23, 26, 19, 17, 19, 23, 18, 21]
42.151[22, 25, 18, 18, 18, 23, 17, 21]
42.174[22, 27, 18, 18, 16, 21, 20, 22]
42.198[21, 23, 19, 20, 16, 21, 22, 22]
42.212[21, 25, 18, 22, 19, 19, 23, 16]
42.235[19, 22, 20, 21, 20, 19, 22, 17]
42.257[18, 23, 20, 21, 21, 16, 22, 16]
42.271[17, 20, 19, 22, 21, 18, 18, 17]
42.295[17, 22, 19, 21, 21, 20, 16, 18]
42.317[18, 22, 22, 21, 19, 21, 16, 19]
42.331[19, 23, 21, 21, 22, 22, 16, 19]
42.355[19, 23, 22, 23, 22, 23, 17, 20]
42.377[19, 23, 22, 23, 23, 22, 18, 20]
42.391[20, 22, 23, 22, 23, 20, 19, 20]
42.415[19, 22, 23, 21, 24, 19, 20, 20]
42.437[19, 22, 23, 19, 22, 22, 20, 20]
42.459[20, 21, 22, 17, 22, 22, 20, 20]
42.475[20, 21, 22, 19, 22, 22, 20, 17]
42.497[19, 21, 21, 20, 22, 24, 20, 17]
42.519[18, 22, 21, 20, 21, 24, 20, 16]
42.542[19, 23, 22, 20, 21, 19, 20, 16]
42.557[19, 26, 21, 22, 20, 20, 19, 17]
42.579[19, 26, 22, 21, 20, 23, 20, 17]
42.595[18, 27, 23, 20, 21, 21, 19, 17]
42.618[17, 24, 21, 21, 20, 22, 17, 17]
42.639[18, 22, 21, 21, 20, 24, 17, 17]
42.655[21, 23, 22, 17, 22, 24, 20, 17]
42.677[19, 23, 21, 20, 23, 20, 19, 20]
42.699[19, 21, 23, 19, 23, 20, 21, 20]
42.715[21, 22, 24, 20, 23, 20, 20, 22]
42.737[22, 22, 22, 19, 21, 19, 21, 22]
42.759[20, 19, 21, 21, 22, 20, 20, 22]
42.775[22, 20, 23, 18, 21, 21, 21, 21]
42.797[22, 20, 20, 19, 19, 20, 21, 20]
42.82[21, 19, 21, 20, 19, 19, 22, 18]
42.835[20, 19, 21, 22, 18, 20, 22, 16]
42.858[21, 22, 24, 20, 16, 19, 22, 19]
42.879[19, 21, 22, 22, 15, 19, 20, 18]
42.895[22, 21, 22, 21, 16, 20, 20, 20]
42.917[23, 23, 22, 20, 17, 20, 21, 20]
42.939[22, 24, 21, 19, 21, 20, 19, 22]
42.955[21, 22, 20, 19, 21, 19, 19, 20]
42.978[23, 22, 23, 17, 21, 18, 19, 20]
42.999[20, 21, 23, 18, 23, 19, 19, 19]
43.015[21, 20, 26, 18, 22, 18, 18, 21]
43.038[21, 19, 27, 19, 21, 19, 19, 20]
43.06[23, 18, 26, 20, 23, 20, 19, 20]
43.075[23, 22, 24, 21, 25, 23, 18, 20]
43.098[24, 23, 24, 21, 25, 23, 19, 19]
43.119[23, 23, 20, 23, 24, 24, 19, 19]
43.141[24, 24, 18, 22, 24, 23, 16, 18]
43.158[24, 25, 18, 21, 21, 23, 16, 18]
43.179[23, 21, 19, 22, 19, 20, 18, 20]
43.195[22, 22, 20, 21, 19, 21, 18, 21]
43.218[22, 22, 21, 19, 20, 22, 21, 19]
43.239[19, 22, 21, 19, 22, 21, 21, 20]
43.255[20, 20, 21, 18, 23, 21, 20, 22]
43.276[21, 20, 18, 18, 24, 21, 20, 20]
43.299[21, 23, 20, 20, 22, 21, 20, 18]
43.315[22, 24, 19, 19, 22, 19, 17, 18]
43.336[22, 24, 20, 20, 21, 19, 19, 19]
43.359[23, 28, 20, 20, 21, 19, 19, 18]
43.375[22, 30, 20, 21, 19, 20, 16, 18]
43.396[22, 29, 19, 19, 21, 19, 16, 17]
43.419[22, 29, 19, 20, 22, 18, 17, 18]
43.441[24, 29, 20, 19, 21, 18, 18, 17]
43.456[22, 26, 20, 20, 20, 21, 20, 17]
43.479[24, 25, 21, 20, 20, 20, 20, 19]
43.502[23, 23, 21, 21, 20, 20, 21, 20]
43.516[21, 21, 24, 20, 19, 21, 20, 20]
43.539[22, 20, 24, 21, 20, 20, 19, 21]
43.561[22, 18, 24, 20, 21, 18, 17, 20]
43.576[18, 18, 25, 20, 22, 19, 18, 20]
43.599[19, 20, 25, 19, 21, 23, 18, 23]
43.623[21, 21, 23, 19, 21, 24, 21, 22]
43.636[19, 19, 21, 18, 21, 23, 19, 21]
43.659[20, 25, 21, 19, 23, 23, 19, 23]
43.682[21, 25, 21, 41, 41, 25, 18, 22]
43.696[24, 24, 20, 60, 61, 23, 21, 18]
43.726[22, 24, 22, 76, 77, 28, 19, 19]
43.741[21, 26, 23, 78, 81, 28, 21, 21]
43.756[23, 21, 23, 85, 83, 28, 20, 20]
43.779[25, 22, 24, 81, 82, 28, 22, 20]
43.81[22, 22, 24, 74, 73, 25, 19, 19]
43.817[25, 25, 23, 78, 74, 20, 21, 21]
43.839[24, 26, 23, 114, 104, 24, 20, 18]
43.862[24, 25, 25, 127, 117, 26, 21, 20]
43.876[22, 25, 23, 125, 113, 26, 20, 23]
43.899[23, 23, 22, 122, 112, 26, 21, 24]
43.921[22, 20, 23, 112, 101, 27, 20, 22]
43.936[21, 18, 22, 74, 67, 24, 19, 24]
43.967[19, 20, 21, 38, 33, 22, 18, 24]
43.983[21, 22, 21, 35, 31, 22, 18, 21]
43.996[19, 22, 22, 30, 29, 22, 18, 20]
44.019[18, 24, 22, 24, 25, 20, 19, 20]
44.051[18, 25, 23, 19, 21, 19, 19, 19]
44.056[18, 26, 22, 19, 22, 18, 19, 17]
44.086[15, 25, 24, 17, 21, 17, 19, 17]
44.101[18, 25, 23, 18, 23, 17, 21, 19]
44.116[18, 26, 21, 21, 26, 17, 19, 22]
44.139[20, 26, 20, 32, 30, 19, 20, 22]
44.163[20, 25, 20, 34, 29, 18, 19, 23]
44.178[21, 23, 20, 34, 28, 20, 19, 23]
44.199[20, 25, 21, 35, 25, 20, 17, 23]
44.221[20, 24, 22, 34, 24, 19, 19, 20]
44.244[20, 22, 22, 25, 21, 20, 17, 20]
44.26[21, 21, 22, 21, 20, 20, 19, 19]
44.283[21, 22, 22, 24, 21, 19, 19, 21]
44.296[20, 21, 20, 24, 22, 19, 20, 20]
44.327[21, 20, 19, 24, 22, 20, 20, 20]
44.342[20, 20, 19, 26, 21, 18, 23, 19]
44.364[19, 23, 18, 26, 21, 18, 21, 21]
44.379[20, 23, 18, 25, 21, 18, 22, 19]
44.401[19, 24, 23, 25, 21, 18, 22, 19]
44.424[19, 24, 23, 23, 21, 17, 22, 19]
44.439[19, 24, 26, 22, 21, 18, 20, 18]
44.461[17, 23, 26, 21, 21, 19, 21, 15]
44.484[17, 22, 26, 20, 22, 18, 21, 15]
44.499[17, 21, 25, 17, 22, 17, 19, 16]
44.523[18, 23, 25, 18, 22, 19, 19, 17]
44.544[18, 21, 24, 20, 24, 20, 19, 19]
44.559[18, 22, 23, 21, 24, 20, 19, 20]
44.581[17, 26, 23, 21, 23, 20, 19, 19]
44.604[19, 25, 21, 22, 22, 21, 19, 20]
44.619[19, 25, 25, 22, 22, 18, 21, 20]
44.641[18, 26, 24, 20, 20, 20, 21, 20]
44.664[18, 26, 25, 19, 20, 18, 20, 20]
44.679[22, 23, 25, 20, 22, 18, 20, 19]
44.701[21, 23, 25, 20, 22, 17, 20, 20]
44.724[21, 21, 22, 21, 21, 18, 17, 19]
44.739[22, 20, 22, 19, 20, 17, 19, 20]
44.761[22, 18, 23, 19, 18, 17, 20, 19]
44.784[19, 17, 22, 19, 19, 18, 18, 19]
44.799[19, 18, 22, 18, 19, 20, 18, 18]
44.822[18, 17, 22, 18, 19, 20, 18, 17]
44.844[19, 18, 21, 21, 18, 20, 16, 17]
44.859[19, 19, 19, 21, 20, 20, 17, 18]
44.883[21, 19, 19, 22, 19, 20, 18, 20]
44.904[20, 17, 20, 22, 17, 20, 19, 21]
44.92[19, 20, 20, 22, 17, 20, 20, 22]
44.957[17, 21, 19, 22, 18, 20, 19, 20]
44.965[19, 22, 21, 21, 18, 21, 19, 20]
44.979[16, 22, 21, 19, 17, 21, 18, 20]
45.01[18, 25, 21, 19, 19, 19, 18, 20]
45.024[19, 24, 22, 21, 22, 18, 19, 20]
45.04[21, 24, 22, 18, 22, 18, 19, 20]
45.062[20, 23, 21, 19, 21, 18, 20, 19]
45.084[19, 24, 21, 20, 23, 18, 20, 17]
45.099[20, 23, 22, 19, 23, 20, 20, 17]
45.121[20, 23, 24, 19, 20, 20, 21, 16]
45.144[19, 24, 26, 20, 21, 21, 20, 18]
45.159[19, 24, 25, 20, 20, 20, 18, 17]
45.181[21, 24, 26, 20, 20, 21, 19, 20]
45.204[19, 25, 24, 20, 18, 20, 17, 21]
45.219[19, 28, 23, 20, 17, 20, 16, 22]
45.242[17, 26, 20, 20, 19, 17, 16, 22]
45.264[17, 27, 20, 20, 18, 21, 17, 23]
45.279[15, 28, 20, 20, 19, 20, 15, 19]
45.301[16, 27, 21, 22, 19, 20, 17, 18]
45.324[15, 23, 19, 22, 21, 21, 16, 18]
45.347[17, 23, 22, 21, 22, 22, 19, 16]
45.362[17, 24, 22, 22, 24, 22, 19, 18]
45.392[18, 22, 21, 21, 21, 23, 20, 18]
45.407[16, 22, 25, 20, 22, 25, 19, 18]
45.421[17, 25, 25, 19, 21, 24, 19, 18]
45.444[23, 26, 24, 19, 20, 23, 16, 18]
45.467[22, 25, 24, 18, 17, 20, 16, 17]
45.482[22, 24, 27, 17, 20, 20, 17, 17]
45.504[22, 24, 22, 15, 21, 16, 18, 19]
45.527[23, 21, 23, 17, 22, 18, 17, 22]
45.55[18, 23, 23, 17, 21, 18, 17, 22]
45.564[19, 21, 23, 17, 23, 23, 18, 22]
45.595[20, 23, 21, 17, 21, 21, 16, 23]
45.601[21, 21, 20, 18, 19, 21, 17, 22]
45.632[19, 22, 20, 19, 20, 21, 18, 19]
45.647[21, 21, 19, 19, 21, 21, 19, 19]
45.662[22, 21, 19, 19, 20, 17, 18, 19]
45.684[22, 20, 20, 19, 21, 18, 19, 18]
45.715[23, 21, 20, 20, 21, 17, 18, 18]
45.721[23, 22, 22, 18, 18, 19, 19, 17]
45.744[23, 21, 22, 18, 17, 19, 17, 16]
45.767[21, 22, 20, 17, 16, 18, 20, 16]
45.781[20, 25, 20, 16, 19, 19, 19, 16]
45.804[20, 25, 22, 16, 21, 19, 20, 16]
45.828[21, 23, 21, 17, 21, 17, 19, 16]
45.842[21, 24, 22, 16, 22, 17, 19, 18]
45.864[20, 23, 23, 19, 22, 16, 17, 18]
45.887[20, 21, 23, 20, 20, 16, 18, 19]
45.91[19, 22, 20, 18, 18, 18, 19, 18]
45.924[18, 24, 20, 19, 20, 20, 19, 18]
45.947[17, 23, 20, 19, 19, 20, 18, 18]
45.961[18, 24, 21, 19, 20, 20, 20, 17]
45.992[16, 24, 21, 19, 21, 21, 21, 16]
46.007[18, 24, 22, 19, 22, 20, 21, 18]
46.021[18, 22, 21, 18, 21, 22, 23, 21]
46.044[19, 23, 22, 19, 21, 21, 23, 22]
46.067[19, 23, 21, 17, 21, 23, 23, 22]
46.081[20, 24, 22, 20, 22, 23, 21, 23]
46.104[18, 23, 23, 20, 20, 22, 20, 22]
46.127[19, 24, 24, 21, 22, 21, 20, 19]
46.15[18, 22, 22, 19, 22, 22, 20, 16]
46.164[23, 21, 23, 20, 22, 20, 18, 16]
46.187[24, 22, 21, 16, 20, 19, 19, 16]
46.202[24, 21, 21, 17, 22, 19, 19, 16]
46.224[23, 23, 21, 18, 21, 19, 16, 17]
46.247[24, 24, 22, 19, 20, 18, 17, 17]
46.269[21, 23, 20, 18, 19, 18, 20, 18]
46.284[22, 22, 23, 22, 21, 17, 18, 18]
46.307[22, 23, 23, 23, 21, 18, 19, 18]
46.33[23, 22, 23, 23, 21, 18, 19, 19]
46.344[22, 21, 24, 26, 21, 18, 22, 21]
46.367[21, 22, 25, 27, 20, 17, 20, 19]
46.39[19, 21, 23, 26, 24, 20, 21, 21]
46.404[17, 20, 23, 41, 38, 19, 21, 21]
46.428[17, 21, 23, 71, 72, 24, 21, 22]
46.449[19, 20, 24, 102, 93, 29, 19, 21]
46.464[18, 21, 25, 117, 108, 31, 19, 22]
46.487[20, 21, 27, 127, 119, 31, 19, 21]
46.509[20, 23, 25, 134, 125, 32, 18, 22]
46.524[21, 23, 26, 146, 135, 30, 19, 21]
46.548[21, 23, 24, 128, 123, 26, 20, 20]
46.57[23, 24, 22, 115, 111, 24, 27, 22]
46.584[22, 25, 20, 104, 98, 23, 31, 21]
46.607[22, 23, 20, 90, 85, 22, 32, 23]
46.63[21, 25, 20, 38, 32, 19, 32, 21]
46.644[18, 25, 19, 32, 30, 19, 32, 21]
46.667[16, 24, 20, 28, 28, 20, 27, 20]
46.705[17, 23, 23, 29, 30, 23, 22, 20]
46.706[18, 22, 25, 25, 29, 22, 21, 17]
46.727[19, 21, 25, 25, 27, 23, 20, 17]
46.749[20, 20, 24, 26, 24, 25, 19, 16]
46.764[22, 23, 30, 28, 27, 24, 19, 16]
46.795[21, 26, 33, 29, 23, 23, 18, 17]
46.81[21, 27, 36, 32, 23, 23, 16, 19]
46.824[21, 27, 35, 33, 22, 22, 16, 20]
46.847[22, 28, 37, 30, 23, 19, 16, 23]
46.87[22, 26, 33, 29, 20, 20, 19, 23]
46.884[21, 25, 28, 27, 21, 20, 19, 23]
46.907[23, 23, 23, 25, 21, 20, 19, 22]
46.93[23, 22, 29, 31, 22, 20, 29, 23]
46.944[22, 25, 39, 34, 21, 22, 37, 20]
46.967[21, 24, 40, 34, 21, 21, 37, 21]
46.989[23, 22, 40, 34, 19, 20, 38, 22]
47.004[22, 23, 42, 50, 31, 22, 38, 22]
47.035[21, 22, 38, 47, 31, 22, 32, 21]
47.057[22, 19, 27, 45, 32, 21, 23, 20]
47.064[20, 21, 24, 46, 32, 21, 22, 18]
47.102[19, 23, 23, 46, 33, 23, 21, 19]
47.109[18, 22, 19, 26, 22, 19, 22, 18]
47.124[18, 23, 20, 26, 22, 21, 20, 16]
47.147[17, 23, 18, 25, 19, 22, 19, 17]
47.169[17, 23, 20, 25, 19, 22, 20, 18]
47.192[16, 21, 21, 23, 17, 23, 19, 17]
47.207[19, 23, 22, 22, 18, 22, 19, 18]
47.23[20, 23, 23, 21, 18, 21, 19, 19]
47.252[21, 20, 26, 21, 21, 21, 18, 19]
47.267[22, 19, 24, 19, 21, 20, 17, 19]
47.297[22, 20, 25, 20, 21, 19, 19, 19]
47.312[20, 18, 26, 21, 20, 20, 18, 19]
47.335[20, 19, 24, 21, 21, 20, 20, 18]
47.35[19, 23, 22, 21, 21, 21, 22, 21]
47.372[20, 24, 23, 21, 22, 21, 23, 23]
47.387[20, 23, 21, 21, 24, 21, 22, 21]
47.417[19, 23, 20, 21, 24, 21, 23, 21]
47.432[20, 23, 24, 19, 24, 20, 22, 21]
47.455[18, 23, 24, 20, 22, 18, 21, 17]
47.47[18, 21, 24, 21, 22, 19, 19, 15]
47.492[18, 21, 24, 20, 21, 18, 20, 15]
47.507[21, 23, 24, 19, 21, 17, 20, 16]
47.537[20, 22, 21, 21, 20, 21, 18, 17]
47.552[21, 22, 23, 21, 21, 20, 18, 18]
47.575[22, 22, 24, 20, 20, 19, 19, 19]
47.59[22, 23, 25, 21, 18, 21, 17, 18]
47.613[23, 20, 25, 21, 19, 22, 18, 18]
47.627[21, 22, 25, 23, 19, 20, 19, 17]
47.657[22, 21, 24, 23, 19, 21, 18, 17]
47.672[20, 24, 22, 22, 20, 20, 18, 17]
47.694[21, 23, 21, 23, 21, 18, 19, 18]
47.709[18, 24, 21, 23, 21, 20, 18, 17]
47.732[19, 24, 21, 21, 21, 20, 18, 18]
47.746[19, 24, 21, 20, 21, 18, 21, 21]
47.77[19, 22, 21, 21, 20, 19, 21, 22]
47.792[18, 21, 23, 18, 21, 19, 20, 23]
47.815[19, 21, 22, 17, 22, 17, 19, 24]
47.829[19, 19, 23, 18, 22, 15, 18, 23]
47.852[18, 19, 24, 17, 23, 18, 14, 20]
47.874[19, 21, 24, 19, 24, 19, 16, 19]
47.89[22, 21, 24, 21, 22, 20, 17, 19]
47.911[21, 23, 24, 21, 25, 20, 17, 20]
47.934[21, 23, 23, 20, 27, 20, 19, 21]
47.951[22, 23, 22, 21, 27, 22, 22, 21]
47.971[22, 22, 23, 21, 27, 21, 21, 22]
47.994[18, 25, 21, 20, 28, 21, 20, 22]
48.01[20, 25, 22, 21, 25, 21, 21, 21]
48.031[20, 24, 21, 21, 23, 21, 19, 21]
48.061[18, 25, 22, 20, 22, 18, 18, 20]
48.07[20, 25, 20, 20, 19, 18, 18, 20]
48.093[22, 24, 21, 19, 18, 17, 18, 19]
48.114[22, 24, 20, 19, 16, 18, 17, 18]
48.13[21, 24, 23, 19, 19, 19, 17, 19]
48.151[22, 24, 21, 19, 18, 19, 17, 19]
48.174[21, 25, 21, 18, 20, 18, 17, 19]
48.19[19, 23, 20, 19, 21, 19, 18, 18]
48.213[18, 22, 21, 19, 22, 19, 20, 18]
48.234[19, 22, 20, 20, 22, 18, 19, 17]
48.25[18, 21, 22, 22, 22, 18, 18, 18]
48.271[18, 17, 22, 22, 20, 18, 19, 18]
48.294[18, 19, 23, 22, 21, 19, 17, 18]
48.31[19, 23, 22, 22, 21, 18, 17, 18]
48.331[20, 23, 21, 22, 18, 18, 18, 19]
48.37[19, 25, 21, 20, 19, 19, 19, 18]
48.372[19, 25, 22, 19, 20, 18, 18, 16]
48.391[18, 24, 20, 20, 19, 17, 17, 17]
48.421[18, 21, 19, 18, 19, 17, 17, 18]
48.43[16, 20, 20, 18, 20, 16, 16, 17]
48.451[17, 20, 18, 17, 20, 16, 15, 18]
48.49[17, 19, 18, 18, 20, 16, 17, 21]
48.492[16, 21, 18, 19, 21, 18, 18, 23]
48.511[18, 22, 20, 20, 23, 19, 18, 23]
48.534[18, 22, 19, 19, 23, 20, 18, 23]
48.549[19, 21, 20, 20, 24, 20, 18, 21]
48.571[19, 22, 21, 21, 24, 19, 17, 20]
48.602[20, 21, 22, 19, 23, 17, 16, 19]
48.609[19, 21, 21, 17, 21, 18, 18, 19]
48.647[19, 21, 21, 18, 22, 16, 18, 19]
48.654[19, 23, 21, 18, 20, 16, 18, 19]
48.668[18, 22, 19, 16, 19, 18, 20, 21]
48.691[19, 21, 21, 18, 19, 18, 20, 20]
48.722[18, 20, 21, 20, 18, 18, 17, 21]
48.73[19, 21, 22, 20, 19, 21, 18, 23]
48.767[19, 19, 21, 18, 20, 21, 18, 23]
48.774[20, 19, 21, 19, 20, 21, 18, 21]
48.789[20, 21, 19, 20, 20, 22, 21, 21]
48.811[19, 20, 19, 20, 20, 22, 21, 20]
48.843[19, 19, 17, 22, 19, 20, 22, 19]
48.849[18, 20, 19, 23, 20, 20, 22, 17]
48.878[19, 19, 20, 24, 21, 19, 21, 18]
48.894[19, 18, 21, 22, 22, 20, 19, 18]
48.924[20, 20, 21, 22, 22, 19, 20, 17]
48.931[21, 21, 22, 22, 21, 18, 19, 17]
48.962[21, 21, 21, 22, 20, 19, 18, 19]
48.969[19, 22, 23, 20, 19, 18, 17, 20]
48.999[21, 25, 23, 21, 19, 18, 18, 19]
49.014[19, 27, 22, 23, 18, 20, 16, 19]
49.044[18, 26, 23, 21, 19, 20, 15, 19]
49.053[17, 25, 22, 20, 19, 19, 14, 17]
49.082[18, 26, 21, 20, 20, 20, 15, 16]
49.096[17, 24, 23, 20, 21, 19, 15, 16]
49.111[19, 23, 23, 18, 23, 19, 17, 17]
49.134[20, 23, 22, 19, 24, 20, 18, 16]
49.156[21, 25, 22, 19, 25, 20, 18, 18]
49.171[20, 23, 22, 21, 24, 20, 18, 17]
49.196[21, 23, 19, 19, 23, 20, 19, 17]
49.216[20, 23, 23, 19, 21, 18, 18, 18]
49.239[19, 25, 25, 19, 21, 17, 21, 19]
49.254[18, 23, 25, 18, 18, 16, 20, 19]
49.276[18, 25, 25, 19, 19, 18, 20, 20]
49.291[17, 24, 25, 19, 18, 18, 20, 20]
49.315[18, 24, 23, 18, 19, 18, 20, 18]
49.337[19, 22, 23, 20, 20, 18, 19, 17]
49.359[20, 23, 24, 21, 21, 19, 19, 16]
49.374[21, 22, 22, 19, 21, 19, 22, 17]
49.396[21, 21, 20, 19, 22, 19, 23, 16]
49.411[19, 19, 22, 20, 21, 19, 22, 16]
49.435[20, 21, 21, 18, 18, 19, 22, 18]
49.456[20, 22, 21, 17, 18, 18, 23, 17]
49.48[19, 22, 22, 19, 16, 17, 20, 17]
49.494[19, 24, 22, 19, 16, 17, 19, 19]
49.517[21, 25, 22, 19, 16, 17, 20, 20]
49.531[20, 23, 22, 18, 19, 16, 19, 20]
49.554[20, 23, 21, 34, 20, 17, 19, 20]
49.576[19, 23, 22, 35, 20, 17, 20, 22]
49.6[18, 26, 28, 112, 34, 18, 23, 21]
49.615[18, 27, 28, 138, 39, 19, 22, 21]
49.636[21, 28, 33, 172, 48, 21, 24, 21]
49.651[22, 32, 51, 294, 81, 25, 25, 20]
49.676[23, 36, 54, 309, 86, 27, 25, 19]
49.696[23, 33, 52, 293, 83, 28, 26, 18]
49.713[24, 30, 52, 291, 82, 36, 32, 19]
49.734[22, 31, 51, 278, 78, 36, 32, 20]
49.758[20, 29, 36, 149, 45, 35, 30, 21]
49.771[21, 23, 32, 115, 34, 35, 29, 23]
49.795[22, 23, 31, 107, 33, 35, 27, 23]
49.816[21, 24, 30, 82, 28, 27, 22, 23]
49.831[19, 21, 27, 61, 27, 28, 21, 22]
49.854[19, 19, 24, 42, 22, 26, 21, 22]
49.876[19, 22, 22, 37, 23, 25, 21, 21]
49.891[17, 22, 23, 36, 26, 25, 22, 19]
49.914[18, 23, 22, 29, 26, 23, 20, 20]
49.936[19, 25, 23, 26, 24, 23, 21, 21]
49.952[19, 24, 23, 20, 25, 21, 22, 19]
49.974[17, 24, 22, 21, 26, 19, 22, 21]
49.996[19, 23, 21, 21, 23, 18, 21, 20]
50.011[19, 22, 19, 21, 22, 19, 21, 19]
50.034[18, 22, 18, 21, 22, 17, 18, 19]
50.056[18, 24, 17, 21, 20, 18, 18, 19]
50.079[19, 23, 17, 21, 19, 20, 16, 17]
50.094[20, 26, 17, 22, 20, 21, 17, 19]
50.116[20, 25, 19, 20, 20, 20, 19, 18]
50.155[19, 24, 19, 21, 19, 20, 19, 17]
50.156[20, 24, 19, 21, 23, 22, 19, 18]
50.176[19, 24, 21, 21, 22, 21, 19, 21]
50.199[18, 22, 20, 20, 22, 19, 20, 21]
50.214[17, 23, 18, 24, 21, 21, 19, 20]
50.236[18, 23, 18, 22, 24, 23, 20, 20]
50.267[17, 22, 22, 21, 21, 23, 19, 21]
50.274[17, 24, 21, 21, 23, 24, 20, 17]
50.296[19, 24, 22, 22, 21, 25, 18, 17]
50.319[21, 23, 22, 18, 23, 24, 19, 17]
50.334