[69, 87, 86, 89, 86, 76, 61, 55]
0.567[68, 87, 88, 89, 91, 79, 63, 56]
0.592[72, 89, 88, 86, 87, 77, 61, 54]
0.613[63, 78, 71, 72, 75, 65, 50, 45]
0.628[57, 74, 65, 62, 67, 57, 44, 38]
0.65[48, 61, 50, 52, 54, 48, 35, 32]
0.673[43, 50, 37, 39, 35, 37, 25, 26]
0.692[30, 39, 26, 31, 28, 26, 21, 22]
0.71[24, 37, 25, 32, 27, 26, 22, 25]
0.733[30, 33, 24, 31, 23, 24, 25, 23]
0.747[31, 35, 25, 29, 23, 23, 24, 24]
0.77[32, 35, 22, 25, 23, 23, 23, 23]
0.793[33, 36, 21, 25, 27, 23, 25, 25]
0.807[34, 42, 24, 23, 27, 22, 24, 24]
0.83[29, 39, 24, 25, 29, 22, 27, 25]
0.854[30, 41, 25, 27, 28, 22, 27, 25]
0.867[31, 42, 26, 28, 29, 22, 28, 26]
0.89[28, 41, 26, 27, 27, 24, 28, 23]
0.914[29, 39, 25, 26, 26, 25, 28, 29]
0.928[28, 39, 24, 23, 23, 25, 23, 28]
0.95[26, 36, 26, 21, 22, 25, 23, 28]
0.973[25, 37, 26, 23, 22, 24, 21, 28]
0.988[28, 39, 27, 23, 21, 22, 22, 30]
1.01[27, 38, 26, 26, 26, 23, 22, 23]
1.035[26, 39, 25, 28, 27, 26, 23, 25]
1.056[27, 39, 25, 27, 30, 27, 22, 27]
1.07[27, 36, 24, 24, 30, 31, 24, 26]
1.093[25, 36, 25, 26, 29, 30, 23, 26]
1.116[32, 33, 23, 26, 26, 29, 26, 28]
1.13[37, 38, 25, 27, 28, 26, 26, 26]
1.153[37, 41, 22, 27, 25, 25, 26, 24]
1.176[37, 40, 22, 29, 27, 23, 27, 24]
1.19[38, 42, 21, 29, 27, 24, 27, 25]
1.213[31, 41, 22, 26, 26, 24, 25, 22]
1.235[29, 36, 21, 25, 24, 23, 23, 25]
1.251[30, 33, 23, 24, 23, 23, 23, 26]
1.273[34, 33, 26, 25, 20, 20, 22, 28]
1.295[33, 31, 28, 23, 22, 21, 22, 26]
1.31[34, 31, 26, 23, 22, 23, 23, 29]
1.333[32, 34, 28, 25, 23, 26, 24, 29]
1.355[32, 36, 28, 26, 23, 26, 25, 32]
1.37[31, 37, 28, 23, 24, 26, 25, 34]
1.393[33, 38, 26, 23, 25, 26, 26, 34]
1.415[33, 37, 27, 23, 25, 25, 24, 32]
1.43[32, 32, 25, 22, 25, 24, 22, 32]
1.453[30, 30, 24, 21, 27, 23, 23, 27]
1.475[28, 31, 20, 25, 28, 23, 22, 24]
1.498[27, 31, 20, 25, 29, 21, 21, 23]
1.513[28, 30, 18, 26, 28, 23, 20, 23]
1.535[27, 31, 20, 26, 29, 23, 24, 21]
1.559[26, 32, 23, 28, 30, 23, 23, 23]
1.581[27, 32, 24, 27, 31, 25, 24, 23]
1.596[25, 35, 24, 28, 28, 26, 25, 24]
1.618[25, 36, 26, 27, 29, 25, 24, 27]
1.641[28, 36, 27, 28, 29, 26, 22, 26]
1.656[27, 35, 26, 27, 28, 25, 22, 26]
1.678[27, 34, 27, 26, 27, 24, 23, 26]
1.701[27, 32, 27, 24, 30, 26, 22, 26]
1.715[24, 30, 26, 24, 29, 27, 25, 22]
1.738[24, 31, 24, 22, 29, 25, 24, 23]
1.761[24, 33, 22, 23, 27, 30, 23, 23]
1.776[27, 37, 22, 24, 30, 31, 19, 26]
1.798[27, 38, 22, 27, 28, 31, 24, 25]
1.82[26, 37, 22, 25, 29, 31, 22, 27]
1.836[24, 37, 20, 25, 30, 32, 24, 28]
1.857[28, 35, 22, 23, 31, 29, 25, 27]
1.88[24, 29, 22, 24, 28, 28, 25, 22]
1.896[27, 28, 24, 23, 31, 26, 22, 24]
1.917[30, 27, 24, 24, 33, 22, 22, 22]
1.94[31, 26, 29, 24, 33, 26, 22, 24]
1.956[30, 28, 30, 24, 32, 25, 23, 25]
1.985[33, 28, 32, 23, 31, 27, 24, 26]
1.999[32, 32, 31, 20, 25, 27, 25, 25]
2.016[31, 35, 31, 21, 24, 30, 24, 27]
2.037[32, 39, 35, 20, 22, 27, 22, 25]
2.06[36, 39, 42, 26, 23, 28, 22, 24]
2.076[35, 41, 41, 27, 24, 28, 35, 25]
2.097[35, 39, 41, 27, 25, 29, 35, 22]
2.119[34, 37, 42, 29, 23, 26, 35, 23]
2.143[32, 34, 36, 30, 26, 29, 35, 22]
2.157[31, 33, 27, 25, 29, 27, 35, 22]
2.181[31, 43, 25, 25, 28, 28, 26, 22]
2.196[34, 43, 27, 25, 28, 30, 26, 25]
2.217[35, 46, 27, 27, 30, 29, 26, 23]
2.239[37, 46, 32, 26, 30, 28, 27, 22]
2.256[33, 46, 31, 26, 25, 31, 28, 26]
2.277[36, 45, 30, 26, 25, 28, 22, 28]
2.301[32, 43, 30, 27, 29, 29, 21, 24]
2.316[32, 40, 29, 25, 28, 32, 25, 26]
2.337[31, 39, 23, 26, 29, 31, 24, 32]
2.36[32, 39, 23, 27, 29, 31, 24, 30]
2.376[26, 29, 25, 24, 29, 36, 25, 29]
2.397[28, 29, 25, 25, 24, 36, 26, 29]
2.419[28, 31, 29, 27, 26, 35, 21, 28]
2.436[27, 30, 32, 26, 26, 37, 22, 25]
2.457[27, 35, 37, 29, 29, 36, 21, 24]
2.479[26, 38, 40, 33, 29, 30, 22, 31]
2.503[30, 38, 39, 32, 30, 26, 21, 35]
2.517[29, 36, 37, 31, 30, 28, 22, 36]
2.539[30, 38, 34, 32, 29, 25, 23, 34]
2.562[30, 33, 29, 31, 31, 30, 22, 34]
2.577[29, 35, 23, 28, 31, 31, 24, 31]
2.599[27, 35, 23, 27, 30, 34, 22, 27]
2.622[30, 33, 24, 28, 32, 35, 22, 25]
2.638[29, 32, 28, 29, 31, 35, 25, 31]
2.659[28, 34, 30, 28, 28, 36, 29, 29]
2.69[30, 30, 31, 29, 30, 36, 26, 28]
2.697[29, 29, 33, 29, 31, 33, 31, 29]
2.719[34, 30, 35, 29, 31, 31, 31, 31]
2.742[37, 31, 34, 28, 30, 30, 31, 27]
2.757[37, 28, 34, 28, 29, 28, 28, 29]
2.779[36, 26, 33, 27, 28, 30, 28, 29]
2.802[38, 28, 33, 27, 32, 32, 26, 29]
2.817[30, 29, 32, 27, 30, 37, 28, 27]
2.839[33, 39, 34, 26, 32, 39, 26, 27]
2.862[37, 44, 32, 26, 32, 38, 28, 25]
2.877[36, 44, 32, 27, 34, 36, 27, 22]
2.899[34, 45, 29, 28, 31, 34, 26, 20]
2.922[33, 46, 29, 31, 33, 31, 26, 20]
2.937[28, 37, 25, 30, 29, 27, 26, 22]
2.959[25, 33, 25, 30, 29, 28, 22, 27]
2.981[26, 35, 29, 29, 25, 37, 24, 27]
2.998[27, 33, 29, 31, 23, 39, 28, 28]
3.019[26, 32, 31, 27, 22, 37, 25, 29]
3.041[25, 33, 36, 27, 25, 40, 24, 30]
3.056[23, 29, 44, 28, 29, 44, 26, 27]
3.079[25, 30, 42, 28, 30, 42, 32, 31]
3.102[32, 33, 45, 26, 28, 44, 31, 32]
3.116[32, 34, 42, 27, 28, 44, 33, 32]
3.139[33, 39, 38, 28, 26, 42, 34, 30]
3.161[36, 41, 27, 28, 22, 41, 36, 28]
3.177[34, 40, 34, 30, 25, 36, 31, 24]
3.199[31, 37, 39, 32, 29, 35, 30, 24]
3.223[33, 35, 41, 33, 33, 38, 28, 26]
3.237[35, 29, 40, 34, 33, 38, 30, 26]
3.259[32, 31, 44, 32, 34, 41, 34, 27]
3.281[31, 29, 40, 31, 33, 45, 34, 35]
3.297[29, 29, 35, 27, 33, 47, 33, 37]
3.319[26, 30, 32, 25, 32, 48, 35, 34]
3.341[24, 33, 42, 25, 34, 49, 32, 35]
3.356[29, 30, 41, 27, 35, 45, 29, 39]
3.379[29, 33, 41, 27, 39, 42, 31, 33]
3.401[28, 33, 40, 35, 38, 36, 32, 31]
3.424[31, 32, 43, 40, 36, 31, 31, 33]
3.439[38, 31, 38, 41, 36, 34, 36, 34]
3.461[34, 31, 35, 42, 38, 39, 36, 28]
3.484[35, 31, 34, 56, 35, 40, 33, 27]
3.499[36, 31, 39, 55, 38, 41, 33, 28]
3.531[35, 34, 39, 52, 41, 48, 32, 28]
3.544[29, 34, 36, 51, 41, 46, 29, 25]
3.559[30, 38, 42, 52, 43, 39, 25, 30]
3.582[30, 41, 44, 38, 43, 35, 27, 33]
3.604[32, 46, 41, 34, 40, 37, 30, 35]
3.619[33, 45, 37, 37, 39, 29, 33, 32]
3.641[34, 44, 41, 35, 37, 30, 30, 35]
3.664[33, 42, 38, 31, 33, 32, 31, 33]
3.679[33, 37, 40, 29, 31, 34, 33, 30]
3.701[30, 29, 42, 30, 33, 36, 30, 26]
3.724[29, 30, 44, 26, 32, 39, 31, 26]
3.739[32, 28, 42, 32, 32, 45, 31, 23]
3.761[34, 34, 40, 36, 34, 43, 34, 24]
3.784[35, 33, 37, 39, 33, 45, 33, 27]
3.799[35, 35, 52, 39, 29, 41, 38, 28]
3.821[35, 34, 53, 39, 35, 41, 37, 32]
3.844[35, 35, 52, 35, 41, 43, 38, 35]
3.859[33, 36, 50, 35, 39, 45, 42, 34]
3.881[33, 36, 49, 33, 39, 42, 41, 32]
3.904[36, 34, 34, 34, 40, 42, 39, 34]
3.92[37, 36, 31, 32, 35, 52, 45, 31]
3.942[35, 37, 30, 36, 31, 50, 47, 32]
3.963[37, 30, 33, 35, 34, 52, 45, 32]
3.978[41, 33, 36, 33, 35, 56, 45, 32]
4.001[38, 35, 33, 33, 35, 59, 49, 31]
4.023[41, 33, 33, 35, 34, 51, 44, 37]
4.039[37, 32, 36, 33, 35, 44, 41, 33]
4.061[35, 32, 34, 30, 34, 42, 42, 34]
4.083[31, 33, 32, 32, 33, 39, 43, 35]
4.098[31, 29, 37, 36, 33, 33, 39, 33]
4.121[35, 28, 36, 35, 33, 30, 39, 26]
4.144[39, 28, 34, 31, 32, 34, 43, 32]
4.158[41, 30, 36, 36, 32, 42, 45, 31]
4.181[41, 28, 36, 35, 31, 43, 48, 31]
4.204[45, 30, 31, 34, 33, 44, 51, 33]
4.219[43, 31, 35, 35, 35, 49, 52, 34]
4.241[41, 32, 34, 38, 35, 49, 49, 30]
4.263[40, 30, 32, 39, 39, 44, 52, 31]
4.28[40, 30, 35, 39, 43, 44, 49, 30]
4.301[36, 29, 35, 38, 47, 47, 45, 33]
4.324[32, 27, 31, 36, 52, 47, 44, 32]
4.338[29, 25, 42, 32, 50, 46, 53, 38]
4.361[30, 27, 43, 33, 46, 48, 46, 38]
4.383[29, 29, 41, 46, 45, 50, 43, 38]
4.407[31, 31, 44, 55, 39, 54, 42, 43]
4.421[29, 34, 46, 55, 30, 53, 46, 44]
4.443[31, 39, 37, 55, 38, 52, 33, 39]
4.466[32, 39, 36, 52, 47, 61, 36, 39]
4.481[31, 39, 34, 39, 44, 63, 37, 42]
4.503[28, 39, 32, 25, 45, 57, 35, 36]
4.526[32, 37, 32, 28, 50, 55, 33, 35]
4.541[33, 31, 34, 28, 47, 54, 33, 35]
4.563[31, 34, 35, 28, 38, 43, 29, 40]
4.586[38, 34, 36, 31, 44, 38, 31, 41]
4.601[41, 31, 37, 33, 43, 38, 33, 38]
4.623[42, 32, 42, 31, 38, 39, 32, 39]
4.646[43, 33, 40, 37, 37, 39, 34, 38]
4.661[44, 29, 39, 40, 43, 35, 34, 36]
4.683[43, 28, 43, 40, 40, 37, 41, 34]
4.707[40, 32, 39, 39, 39, 44, 41, 35]
4.721[41, 30, 32, 44, 40, 44, 38, 37]
4.743[41, 32, 35, 39, 42, 51, 41, 37]
4.766[41, 31, 34, 37, 36, 50, 44, 32]
4.781[37, 30, 29, 38, 40, 52, 36, 31]
4.803[38, 26, 29, 36, 40, 49, 36, 31]
4.826[32, 29, 32, 31, 42, 49, 36, 30]
4.841[29, 28, 28, 34, 41, 44, 36, 31]
4.863[34, 28, 26, 34, 42, 46, 32, 32]
4.886[36, 28, 27, 34, 39, 45, 33, 32]
4.901[35, 32, 28, 34, 39, 46, 40, 39]
4.923[36, 32, 26, 34, 41, 47, 41, 36]
4.946[39, 32, 26, 29, 40, 46, 38, 36]
4.961[32, 32, 33, 35, 40, 47, 39, 33]
4.983[30, 31, 33, 34, 38, 40, 40, 32]
5.006[28, 31, 35, 33, 40, 35, 37, 21]
5.021[29, 30, 34, 32, 34, 33, 35, 26]
5.043[30, 29, 33, 34, 35, 35, 35, 24]
5.066[31, 33, 34, 25, 33, 33, 33, 27]
5.08[36, 32, 33, 24, 33, 36, 33, 28]
5.103[41, 32, 32, 27, 32, 37, 30, 27]
5.126[41, 29, 32, 31, 32, 38, 32, 25]
5.149[37, 31, 31, 32, 29, 32, 30, 25]
5.163[37, 25, 23, 33, 30, 32, 39, 27]
5.186[32, 26, 24, 32, 33, 31, 35, 26]
5.202[28, 23, 26, 33, 35, 31, 35, 28]
5.223[28, 29, 27, 32, 34, 27, 32, 25]
5.246[30, 31, 32, 35, 37, 29, 33, 26]
5.261[41, 33, 34, 34, 36, 32, 25, 23]
5.284[45, 34, 34, 35, 37, 29, 31, 29]
5.306[45, 34, 31, 34, 34, 32, 31, 28]
5.329[44, 34, 30, 31, 38, 34, 32, 28]
5.351[43, 30, 28, 25, 37, 37, 36, 28]
5.366[34, 33, 25, 31, 38, 37, 37, 28]
5.389[27, 30, 27, 30, 35, 36, 31, 25]
5.404[25, 31, 27, 28, 33, 33, 28, 27]
5.426[25, 28, 31, 29, 31, 31, 31, 29]
5.45[24, 30, 30, 30, 28, 29, 27, 28]
5.464[27, 28, 32, 24, 25, 26, 27, 29]
5.486[29, 29, 30, 28, 27, 28, 30, 30]
5.508[30, 30, 30, 29, 28, 29, 30, 33]
5.523[29, 28, 27, 29, 26, 33, 28, 32]
5.546[32, 28, 27, 27, 26, 29, 31, 34]
5.569[33, 28, 27, 28, 26, 30, 38, 33]
5.583[31, 28, 28, 28, 23, 31, 37, 31]
5.606[32, 29, 26, 30, 23, 31, 41, 27]
5.629[33, 27, 27, 29, 24, 28, 40, 24]
5.644[31, 28, 25, 31, 26, 31, 38, 27]
5.666[28, 25, 25, 32, 28, 30, 29, 26]
5.688[26, 23, 27, 31, 27, 27, 29, 28]
5.704[28, 22, 29, 29, 27, 28, 23, 27]
5.726[30, 26, 26, 29, 29, 34, 25, 29]
5.749[32, 27, 28, 29, 28, 31, 27, 30]
5.763[32, 28, 28, 27, 28, 31, 26, 31]
5.786[34, 32, 26, 24, 27, 33, 28, 33]
5.808[32, 35, 24, 24, 28, 36, 29, 33]
5.823[31, 31, 26, 22, 25, 36, 29, 32]
5.846[30, 28, 26, 20, 24, 36, 28, 30]
5.869[30, 28, 26, 20, 29, 38, 30, 33]
5.883[28, 25, 26, 22, 30, 36, 30, 31]
5.907[27, 23, 30, 22, 30, 32, 31, 31]
5.929[24, 26, 30, 25, 32, 26, 30, 31]
5.943[22, 29, 33, 28, 34, 27, 30, 32]
5.966[21, 30, 31, 28, 29, 23, 31, 26]
5.989[21, 28, 33, 29, 30, 25, 29, 24]
6.003[24, 28, 33, 27, 32, 27, 29, 26]
6.026[25, 29, 35, 26, 31, 28, 32, 25]
6.049[27, 26, 30, 24, 27, 31, 31, 23]
6.063[28, 25, 34, 25, 27, 32, 29, 24]
6.086[26, 25, 31, 25, 28, 29, 30, 24]
6.108[27, 25, 30, 25, 27, 28, 28, 25]
6.122[30, 26, 29, 25, 27, 29, 29, 27]
6.146[28, 26, 30, 26, 28, 25, 29, 24]
6.168[27, 29, 26, 25, 29, 27, 31, 25]
6.191[28, 30, 29, 24, 26, 29, 29, 26]
6.206[27, 30, 25, 26, 26, 27, 28, 26]
6.228[25, 27, 24, 25, 26, 28, 23, 24]
6.242[27, 27, 24, 24, 25, 31, 27, 24]
6.273[27, 26, 25, 27, 32, 29, 29, 22]
6.288[31, 27, 23, 26, 31, 30, 27, 23]
6.311[29, 26, 24, 26, 32, 31, 29, 19]
6.326[28, 29, 23, 27, 32, 28, 30, 21]
6.348[27, 28, 22, 25, 33, 26, 25, 23]
6.371[27, 26, 23, 23, 26, 27, 22, 22]
6.386[22, 24, 24, 23, 26, 25, 22, 24]
6.408[23, 25, 26, 22, 25, 24, 20, 25]
6.431[23, 21, 27, 20, 22, 25, 19, 22]
6.446[22, 21, 29, 22, 22, 27, 20, 22]
6.469[25, 24, 27, 22, 21, 27, 18, 25]
6.491[24, 26, 27, 23, 22, 26, 20, 22]
6.505[26, 26, 25, 24, 23, 26, 25, 24]
6.528[26, 26, 26, 26, 25, 30, 28, 27]
6.55[28, 25, 26, 25, 24, 28, 29, 29]
6.566[26, 23, 28, 25, 26, 28, 29, 27]
6.588[28, 27, 27, 26, 25, 28, 28, 30]
6.61[29, 25, 28, 25, 26, 28, 24, 29]
6.626[30, 25, 26, 24, 25, 23, 23, 26]
6.648[28, 27, 26, 28, 24, 24, 23, 25]
6.67[28, 26, 24, 29, 24, 22, 23, 25]
6.685[28, 20, 23, 27, 23, 23, 24, 22]
6.708[26, 21, 20, 27, 24, 24, 24, 20]
6.73[26, 25, 25, 28, 23, 26, 23, 21]
6.746[28, 22, 24, 28, 24, 25, 27, 18]
6.769[31, 23, 25, 26, 24, 25, 26, 19]
6.79[30, 25, 27, 28, 26, 24, 26, 23]
6.807[29, 28, 27, 28, 27, 28, 26, 22]
6.829[27, 26, 24, 27, 28, 29, 25, 23]
6.857[30, 26, 26, 24, 28, 28, 27, 27]
6.866[25, 25, 26, 25, 30, 28, 28, 27]
6.889[28, 24, 27, 23, 30, 29, 28, 24]
6.91[27, 21, 28, 23, 28, 24, 28, 25]
6.932[29, 23, 30, 23, 27, 21, 30, 26]
6.949[22, 24, 28, 24, 27, 24, 27, 22]
6.97[23, 23, 26, 26, 25, 25, 28, 23]
6.986[20, 26, 24, 26, 27, 24, 27, 24]
7.009[20, 25, 23, 26, 27, 27, 28, 23]
7.03[20, 24, 22, 26, 28, 27, 26, 21]
7.046[21, 23, 23, 25, 27, 25, 22, 25]
7.067[20, 24, 24, 25, 29, 26, 20, 27]
7.089[22, 23, 24, 26, 29, 29, 22, 25]
7.106[23, 23, 26, 29, 30, 25, 21, 26]
7.127[22, 25, 25, 28, 29, 28, 20, 26]
7.149[23, 26, 25, 30, 33, 26, 24, 23]
7.172[25, 25, 27, 27, 32, 26, 23, 20]
7.187[24, 25, 28, 26, 29, 23, 23, 23]
7.21[24, 26, 26, 24, 29, 25, 25, 22]
7.232[25, 23, 26, 23, 27, 21, 25, 22]
7.247[31, 22, 26, 23, 24, 22, 21, 23]
7.27[31, 25, 24, 24, 24, 22, 24, 22]
7.292[31, 24, 24, 23, 25, 26, 24, 22]
7.307[33, 22, 27, 24, 25, 25, 20, 23]
7.33[32, 24, 26, 26, 28, 26, 25, 28]
7.352[28, 27, 29, 24, 29, 26, 25, 28]
7.367[27, 25, 34, 26, 28, 25, 25, 28]
7.39[26, 25, 34, 27, 29, 26, 25, 28]
7.412[25, 31, 31, 28, 28, 28, 25, 32]
7.428[27, 30, 30, 27, 27, 29, 26, 28]
7.449[23, 30, 31, 28, 25, 28, 26, 27]
7.472[22, 31, 25, 25, 25, 28, 24, 31]
7.487[25, 33, 27, 24, 23, 23, 25, 29]
7.509[27, 28, 29, 24, 24, 23, 27, 24]
7.532[27, 28, 30, 24, 25, 23, 23, 28]
7.547[29, 28, 27, 26, 25, 24, 24, 29]
7.569[31, 27, 27, 26, 25, 24, 22, 28]
7.592[31, 24, 24, 26, 27, 24, 21, 27]
7.607[29, 26, 23, 26, 28, 22, 22, 26]
7.629[29, 26, 21, 27, 26, 22, 21, 21]
7.652[36, 28, 20, 27, 25, 22, 23, 21]
7.667[34, 31, 24, 28, 27, 22, 25, 22]
7.69[33, 33, 26, 29, 25, 22, 25, 24]
7.712[33, 32, 27, 28, 25, 22, 23, 24]
7.727[29, 33, 27, 27, 26, 24, 25, 27]
7.749[20, 31, 28, 25, 27, 24, 22, 26]
7.772[22, 27, 25, 25, 24, 23, 23, 26]
7.787[21, 25, 27, 26, 26, 26, 23, 24]
7.809[24, 27, 25, 25, 25, 26, 24, 25]
7.832[26, 23, 26, 25, 25, 25, 22, 23]
7.847[27, 23, 25, 24, 25, 26, 23, 24]
7.87[28, 27, 26, 25, 25, 27, 22, 22]
7.892[30, 30, 24, 27, 24, 23, 20, 25]
7.907[26, 29, 25, 27, 24, 25, 21, 24]
7.931[34, 31, 25, 26, 25, 24, 23, 28]
7.952[34, 30, 28, 26, 26, 22, 25, 27]
7.967[33, 29, 29, 27, 26, 22, 26, 27]
7.989[33, 26, 28, 23, 26, 21, 27, 23]
8.013[32, 25, 28, 26, 28, 18, 25, 26]
8.027[26, 25, 27, 26, 27, 20, 24, 23]
8.049[26, 25, 24, 27, 28, 24, 26, 24]
8.072[26, 29, 23, 25, 28, 24, 24, 27]
8.087[26, 30, 23, 26, 26, 26, 25, 29]
8.109[27, 29, 23, 23, 24, 26, 25, 27]
8.132[26, 26, 23, 23, 24, 26, 23, 27]
8.147[27, 29, 24, 22, 22, 26, 21, 27]
8.169[26, 25, 27, 24, 23, 27, 23, 24]
8.192[26, 26, 30, 24, 25, 28, 23, 25]
8.214[28, 27, 30, 24, 25, 29, 24, 24]
8.229[28, 28, 29, 27, 24, 28, 26, 22]
8.251[29, 27, 28, 28, 24, 24, 25, 22]
8.274[29, 28, 23, 26, 25, 25, 24, 24]
8.289[30, 25, 23, 26, 27, 23, 23, 23]
8.321[27, 27, 21, 25, 25, 21, 23, 24]
8.334[26, 28, 23, 24, 26, 19, 20, 27]
8.349[27, 27, 23, 22, 26, 20, 20, 26]
8.372[27, 27, 24, 23, 27, 19, 21, 24]
8.402[27, 28, 24, 24, 25, 21, 24, 24]
8.409[26, 29, 27, 25, 25, 21, 23, 26]
8.431[26, 31, 24, 23, 24, 22, 24, 24]
8.454[23, 29, 26, 26, 25, 23, 23, 26]
8.469[26, 28, 25, 24, 24, 21, 25, 26]
8.491[24, 29, 25, 26, 24, 21, 22, 25]
8.514[27, 25, 23, 27, 25, 25, 23, 22]
8.529[28, 23, 25, 28, 25, 25, 22, 24]
8.56[30, 23, 25, 25, 23, 25, 22, 22]
8.574[26, 24, 27, 27, 26, 28, 22, 23]
8.589[31, 23, 23, 24, 24, 25, 19, 25]
8.611[28, 26, 25, 22, 27, 24, 21, 24]
8.634[27, 24, 25, 22, 28, 24, 24, 22]
8.649[26, 27, 26, 23, 28, 24, 25, 25]
8.671[28, 26, 26, 24, 26, 23, 23, 23]
8.694[24, 27, 30, 25, 27, 24, 24, 20]
8.716[24, 25, 28, 26, 28, 24, 21, 23]
8.731[24, 26, 29, 27, 26, 24, 20, 23]
8.754[23, 25, 27, 28, 27, 24, 19, 24]
8.769[25, 28, 26, 26, 28, 23, 20, 26]
8.791[26, 28, 24, 25, 29, 24, 20, 27]
8.814[27, 30, 24, 27, 26, 23, 23, 25]
8.829[32, 30, 23, 26, 26, 25, 23, 26]
8.852[32, 30, 23, 24, 26, 27, 24, 23]
8.874[32, 27, 27, 25, 25, 27, 23, 22]
8.889[31, 24, 25, 25, 24, 27, 22, 23]
8.911[31, 23, 28, 24, 23, 26, 21, 21]
8.934[26, 23, 28, 23, 23, 24, 19, 21]
8.957[31, 23, 28, 25, 25, 24, 17, 23]
8.971[29, 26, 25, 26, 26, 23, 18, 23]
8.994[28, 26, 29, 27, 28, 23, 23, 23]
9.009[31, 26, 27, 27, 30, 24, 22, 23]
9.031[32, 31, 26, 27, 32, 23, 24, 23]
9.054[26, 30, 29, 27, 30, 22, 24, 19]
9.069[29, 31, 31, 26, 29, 22, 26, 21]
9.091[29, 32, 28, 26, 28, 23, 24, 20]
9.114[29, 35, 28, 26, 27, 23, 24, 22]
9.137[30, 31, 28, 27, 24, 22, 22, 21]
9.151[30, 30, 26, 26, 22, 21, 24, 22]
9.174[29, 29, 24, 27, 22, 23, 23, 21]
9.197[28, 26, 25, 29, 22, 23, 22, 22]
9.211[24, 23, 26, 29, 22, 22, 21, 23]
9.234[24, 23, 27, 30, 22, 24, 23, 23]
9.257[24, 22, 28, 28, 25, 26, 23, 24]
9.271[23, 24, 28, 28, 26, 25, 23, 25]
9.294[24, 28, 27, 27, 27, 27, 23, 25]
9.317[28, 30, 26, 25, 28, 27, 24, 22]
9.331[29, 30, 28, 26, 30, 26, 23, 25]
9.354[31, 30, 27, 27, 30, 23, 22, 24]
9.377[31, 27, 25, 24, 28, 22, 20, 26]
9.391[31, 24, 26, 24, 27, 21, 19, 27]
9.413[27, 21, 25, 25, 24, 20, 18, 27]
9.436[25, 24, 22, 24, 22, 19, 18, 26]
9.451[21, 25, 23, 23, 22, 22, 17, 26]
9.474[22, 26, 24, 23, 24, 25, 20, 23]
9.497[19, 26, 24, 25, 24, 24, 21, 23]
9.511[22, 27, 24, 23, 25, 24, 22, 24]
9.534[24, 26, 25, 26, 25, 26, 22, 24]
9.557[24, 26, 25, 25, 24, 26, 22, 24]
9.571[23, 26, 24, 26, 22, 26, 23, 24]
9.594[27, 28, 23, 26, 21, 27, 23, 23]
9.617[24, 27, 24, 27, 21, 27, 23, 22]
9.631[23, 28, 24, 24, 23, 27, 24, 25]
9.653[25, 26, 23, 25, 23, 25, 24, 27]
9.677[25, 24, 22, 25, 23, 25, 23, 25]
9.691[21, 23, 23, 26, 25, 25, 21, 26]
9.714[23, 24, 22, 27, 25, 26, 21, 25]
9.737[27, 23, 24, 26, 24, 26, 21, 23]
9.751[27, 21, 24, 25, 25, 27, 21, 21]
9.773[28, 23, 25, 25, 26, 25, 20, 21]
9.797[29, 23, 25, 25, 24, 22, 20, 22]
9.811[29, 25, 23, 24, 23, 22, 22, 21]
9.834[24, 25, 21, 27, 24, 23, 21, 21]
9.857[24, 29, 27, 27, 25, 21, 22, 24]
9.871[23, 28, 26, 27, 24, 22, 24, 23]
9.893[22, 28, 25, 26, 24, 23, 26, 22]
9.916[22, 27, 27, 24, 26, 22, 25, 22]
9.931[22, 26, 27, 21, 26, 20, 28, 22]
9.961[23, 22, 23, 22, 25, 21, 27, 19]
9.976[23, 23, 24, 21, 26, 19, 27, 21]
9.999[25, 27, 24, 22, 27, 20, 24, 21]
10.014[24, 26, 23, 22, 26, 20, 26, 22]
10.037[24, 27, 23, 25, 29, 22, 21, 21]
10.059[23, 30, 22, 23, 28, 21, 21, 20]
10.073[24, 29, 25, 24, 27, 21, 19, 19]
10.096[25, 27, 26, 24, 27, 21, 22, 22]
10.119[28, 27, 26, 25, 27, 22, 20, 24]
10.133[28, 27, 25, 22, 23, 20, 23, 26]
10.156[28, 25, 27, 23, 25, 19, 23, 26]
10.179[25, 27, 25, 24, 26, 22, 22, 27]
10.193[24, 26, 22, 24, 25, 22, 19, 26]
10.217[22, 26, 22, 24, 25, 20, 19, 23]
10.24[23, 27, 21, 24, 26, 21, 18, 22]
10.253[23, 27, 18, 25, 23, 23, 17, 25]
10.277[24, 24, 19, 24, 23, 24, 19, 24]
10.299[22, 25, 21, 25, 22, 24, 20, 23]
10.313[26, 25, 23, 25, 22, 25, 22, 23]
10.336[24, 25, 23, 27, 23, 25, 20, 23]
10.366[24, 25, 25, 26, 25, 25, 22, 21]
10.373[24, 28, 25, 27, 27, 23, 22, 22]
10.396[25, 29, 25, 27, 29, 22, 23, 22]
10.419[22, 27, 24, 27, 30, 23, 22, 25]
10.433[23, 25, 25, 24, 27, 21, 23, 24]
10.456[22, 24, 23, 24, 27, 23, 21, 25]
10.479[26, 25, 22, 24, 27, 22, 20, 25]
10.493[27, 24, 23, 25, 25, 23, 21, 26]
10.518[26, 27, 25, 25, 26, 25, 22, 24]
10.539[27, 25, 24, 24, 28, 25, 21, 25]
10.553[27, 29, 24, 26, 27, 24, 22, 24]
10.576[26, 25, 23, 25, 26, 24, 23, 24]
10.599[26, 26, 23, 23, 25, 24, 21, 22]
10.613[28, 26, 21, 22, 26, 21, 21, 20]
10.636[30, 30, 23, 24, 25, 24, 23, 21]
10.659[32, 26, 26, 23, 27, 24, 25, 26]
10.673[31, 29, 25, 25, 27, 24, 24, 27]
10.696[32, 28, 25, 25, 28, 24, 23, 27]
10.719[30, 27, 28, 26, 27, 22, 22, 27]
10.733[26, 25, 26, 25, 27, 19, 22, 28]
10.756[23, 27, 24, 26, 27, 21, 21, 22]
10.779[26, 25, 25, 23, 25, 19, 20, 21]
10.793[26, 26, 23, 24, 25, 19, 21, 21]
10.817[27, 25, 18, 26, 25, 21, 21, 21]
10.838[31, 24, 20, 27, 25, 23, 20, 21]
10.853[30, 24, 21, 25, 22, 26, 22, 25]
10.876[29, 25, 20, 26, 23, 27, 24, 25]
10.899[28, 24, 26, 29, 26, 28, 23, 25]
10.913[28, 28, 27, 26, 26, 29, 22, 25]
10.936[25, 29, 27, 27, 26, 28, 23, 25]
10.958[27, 30, 28, 27, 26, 24, 20, 24]
10.981[27, 30, 31, 27, 28, 22, 19, 24]
10.996[26, 29, 26, 25, 26, 21, 19, 23]
11.018[25, 27, 27, 25, 27, 19, 18, 25]
11.041[25, 27, 28, 23, 28, 20, 19, 22]
11.056[23, 25, 26, 25, 28, 21, 21, 22]
11.079[28, 27, 23, 25, 27, 22, 21, 24]
11.101[29, 28, 23, 23, 25, 22, 23, 25]
11.116[29, 27, 22, 25, 25, 22, 23, 23]
11.139[30, 26, 22, 25, 23, 23, 21, 24]
11.161[29, 27, 22, 24, 22, 26, 21, 23]
11.176[26, 23, 21, 24, 24, 26, 22, 21]
11.199[26, 24, 24, 24, 24, 29, 19, 21]
11.221[26, 24, 24, 22, 24, 29, 20, 20]
11.236[24, 26, 24, 23, 28, 27, 22, 20]
11.258[23, 28, 23, 23, 28, 25, 25, 19]
11.281[22, 28, 24, 24, 27, 27, 24, 22]
11.296[20, 30, 22, 25, 28, 21, 23, 22]
11.318[21, 29, 21, 27, 26, 25, 24, 22]
11.341[23, 28, 19, 27, 23, 24, 23, 23]
11.356[24, 26, 21, 26, 24, 24, 20, 24]
11.378[26, 25, 21, 26, 25, 25, 20, 22]
11.401[26, 24, 23, 28, 27, 25, 21, 23]
11.416[26, 25, 23, 25, 28, 22, 22, 23]
11.438[26, 24, 26, 26, 29, 21, 22, 21]
11.461[26, 26, 26, 28, 27, 24, 22, 22]
11.475[25, 25, 25, 28, 27, 22, 24, 20]
11.498[26, 25, 25, 27, 24, 22, 23, 19]
11.521[27, 25, 27, 27, 27, 24, 22, 21]
11.535[26, 24, 24, 26, 26, 25, 24, 22]
11.558[24, 23, 24, 22, 25, 24, 24, 22]
11.581[25, 23, 24, 21, 27, 23, 21, 23]
11.595[25, 24, 24, 23, 28, 23, 22, 24]
11.618[23, 25, 23, 26, 26, 21, 22, 23]
11.641[24, 27, 25, 26, 26, 22, 20, 23]
11.655[24, 26, 25, 27, 26, 20, 20, 20]
11.679[20, 26, 24, 27, 26, 20, 23, 21]
11.7[22, 25, 24, 26, 26, 20, 22, 21]
11.723[24, 23, 22, 24, 25, 23, 23, 21]
11.739[23, 26, 25, 24, 24, 23, 23, 24]
11.76[25, 26, 26, 23, 27, 27, 23, 28]
11.782[28, 27, 26, 24, 26, 27, 21, 27]
11.799[25, 26, 25, 24, 25, 28, 22, 25]
11.82[24, 27, 27, 25, 25, 26, 22, 24]
11.842[23, 23, 22, 24, 27, 24, 21, 22]
11.859[23, 23, 22, 24, 22, 22, 21, 21]
11.88[21, 23, 22, 22, 24, 23, 21, 21]
11.91[23, 24, 21, 20, 24, 22, 22, 22]
11.919[26, 22, 20, 20, 25, 22, 21, 23]
11.94[26, 22, 20, 22, 26, 25, 21, 28]
11.962[26, 24, 20, 23, 27, 24, 22, 24]
11.979[27, 25, 24, 22, 25, 25, 21, 27]
12.007[28, 24, 25, 27, 24, 26, 20, 27]
12.022[27, 25, 26, 27, 23, 27, 21, 27]
12.039[29, 28, 26, 26, 22, 26, 20, 24]
12.06[29, 26, 25, 26, 24, 25, 20, 29]
12.082[26, 29, 25, 28, 24, 24, 22, 26]
12.098[25, 28, 24, 25, 27, 24, 22, 25]
12.12[22, 29, 24, 24, 27, 21, 24, 25]
12.142[20, 29, 25, 25, 26, 19, 26, 23]
12.159[21, 30, 24, 24, 25, 21, 25, 19]
12.179[22, 25, 23, 24, 24, 20, 25, 21]
12.202[20, 26, 22, 25, 22, 21, 23, 22]
12.218[22, 26, 24, 24, 24, 20, 20, 22]
12.239[22, 25, 25, 25, 25, 21, 19, 24]
12.262[20, 23, 26, 26, 25, 21, 19, 25]
12.279[22, 26, 25, 26, 25, 20, 17, 23]
12.3[22, 26, 25, 24, 26, 19, 18, 23]
12.322[22, 25, 24, 25, 24, 22, 18, 23]
12.338[25, 23, 22, 23, 23, 22, 22, 24]
12.359[25, 26, 25, 23, 24, 24, 23, 22]
12.382[25, 24, 24, 22, 25, 24, 23, 23]
12.397[25, 24, 25, 27, 24, 23, 24, 26]
12.42[24, 25, 23, 25, 24, 22, 25, 27]
12.442[22, 24, 23, 28, 26, 23, 24, 26]
12.457[22, 25, 21, 27, 26, 24, 23, 25]
12.48[27, 27, 22, 27, 29, 24, 25, 26]
12.502[27, 29, 21, 23, 28, 26, 24, 23]
12.525[30, 27, 22, 24, 29, 26, 25, 23]
12.539[30, 33, 22, 23, 28, 25, 22, 25]
12.564[30, 32, 23, 25, 28, 24, 23, 24]
12.578[27, 31, 24, 25, 26, 24, 21, 24]
12.6[31, 41, 26, 28, 27, 21, 20, 27]
12.622[31, 44, 25, 29, 25, 23, 19, 26]
12.637[30, 41, 27, 28, 25, 23, 21, 23]
12.66[31, 42, 26, 28, 23, 23, 22, 25]
12.682[31, 41, 27, 27, 24, 24, 22, 25]
12.697[26, 27, 25, 25, 24, 26, 24, 23]
12.721[27, 25, 26, 24, 25, 23, 24, 22]
12.742[27, 26, 25, 25, 25, 23, 24, 23]
12.757[28, 25, 26, 23, 27, 22, 22, 22]
12.779[28, 28, 25, 26, 27, 22, 21, 22]
12.802[30, 29, 24, 28, 28, 23, 20, 21]
12.817[25, 29, 27, 30, 29, 23, 20, 23]
12.84[35, 35, 27, 32, 30, 23, 20, 21]
12.862[35, 37, 29, 32, 29, 22, 20, 21]
12.877[35, 36, 28, 29, 29, 19, 20, 21]
12.899[34, 37, 29, 27, 27, 20, 20, 20]
12.931[36, 37, 29, 23, 27, 20, 20, 20]
12.944[28, 29, 27, 23, 25, 21, 21, 21]
12.959[29, 31, 25, 23, 25, 21, 20, 22]
12.982[27, 30, 26, 23, 24, 24, 21, 21]
13.004[28, 29, 25, 24, 25, 21, 22, 22]
13.019[27, 28, 22, 26, 24, 23, 23, 22]
13.042[27, 28, 24, 26, 24, 22, 21, 23]
13.064[27, 25, 24, 27, 22, 23, 21, 22]
13.079[26, 26, 23, 27, 22, 21, 21, 24]
13.102[28, 28, 24, 26, 22, 21, 22, 23]
13.124[26, 27, 24, 26, 22, 21, 20, 23]
13.139[24, 28, 25, 23, 22, 21, 19, 23]
13.162[24, 30, 26, 24, 22, 22, 23, 26]
13.184[25, 30, 26, 27, 25, 24, 23, 24]
13.201[25, 26, 26, 26, 27, 25, 21, 28]
13.237[26, 27, 27, 27, 27, 24, 21, 27]
13.244[28, 28, 28, 26, 30, 29, 24, 29]
13.259[27, 26, 27, 24, 33, 29, 21, 25]
13.282[30, 24, 26, 22, 32, 28, 22, 25]
13.304[30, 24, 26, 21, 30, 27, 22, 22]
13.319[32, 25, 24, 24, 28, 28, 24, 23]
13.342[32, 24, 22, 26, 25, 23, 23, 21]
13.365[35, 27, 25, 28, 23, 25, 23, 23]
13.379[36, 41, 26, 29, 24, 26, 23, 26]
13.402[35, 43, 26, 32, 26, 26, 23, 26]
13.424[34, 45, 27, 29, 25, 26, 21, 24]
13.439[33, 45, 27, 28, 25, 26, 18, 26]
13.462[32, 43, 25, 25, 26, 25, 22, 25]
13.484[26, 30, 25, 24, 26, 24, 23, 25]
13.499[26, 29, 26, 23, 23, 23, 22, 26]
13.522[26, 25, 25, 25, 26, 25, 21, 27]
13.544[28, 24, 25, 25, 27, 25, 23, 25]
13.56[25, 25, 27, 26, 26, 23, 21, 25]
13.582[28, 26, 27, 26, 26, 27, 19, 24]
13.604[29, 26, 26, 25, 27, 29, 21, 22]
13.619[31, 26, 26, 24, 24, 27, 23, 23]
13.643[29, 28, 27, 25, 26, 27, 22, 26]
13.664[29, 32, 24, 24, 26, 26, 21, 26]
13.679[27, 32, 23, 25, 27, 22, 22, 24]
13.702[32, 31, 25, 28, 27, 19, 23, 24]
13.724[29, 31, 27, 28, 29, 19, 23, 25]
13.746[31, 35, 26, 27, 27, 22, 23, 23]
13.761[33, 31, 26, 27, 26, 23, 25, 22]
13.784[34, 31, 28, 26, 26, 25, 24, 24]
13.799[30, 29, 25, 24, 25, 25, 22, 26]
13.821[31, 30, 26, 26, 25, 26, 21, 23]
13.844[29, 24, 26, 28, 25, 28, 20, 26]
13.866[27, 26, 28, 28, 25, 28, 19, 25]
13.882[26, 25, 28, 29, 24, 29, 18, 24]
13.904[23, 27, 29, 30, 23, 30, 20, 21]
13.926[23, 27, 28, 27, 23, 29, 19, 23]
13.942[21, 26, 26, 24, 21, 25, 22, 21]
13.964[28, 27, 27, 25, 21, 24, 23, 22]
13.987[29, 29, 25, 25, 20, 23, 22, 22]
14.001[29, 29, 25, 26, 24, 24, 21, 21]
14.024[30, 30, 25, 27, 23, 23, 23, 21]
14.054[33, 31, 26, 27, 25, 24, 21, 22]
14.061[26, 29, 23, 26, 26, 25, 22, 20]
14.084[24, 27, 23, 24, 26, 23, 22, 23]
14.107[28, 29, 22, 22, 25, 22, 23, 23]
14.122[31, 33, 21, 21, 27, 21, 22, 22]
14.144[28, 34, 20, 22, 27, 21, 21, 21]
14.167[28, 35, 23, 25, 28, 24, 22, 25]
14.181[30, 36, 24, 26, 29, 25, 21, 22]
14.204[29, 37, 25, 27, 29, 23, 21, 23]
14.227[30, 34, 24, 28, 27, 25, 20, 25]
14.241[29, 34, 27, 29, 27, 24, 21, 25]
14.264[31, 34, 27, 27, 25, 21, 21, 22]
14.287[30, 33, 26, 26, 26, 22, 22, 24]
14.301[28, 34, 26, 25, 26, 23, 21, 25]
14.324[22, 32, 27, 26, 27, 23, 22, 24]
14.347[22, 31, 24, 24, 28, 23, 20, 25]
14.361[21, 29, 22, 25, 29, 24, 21, 25]
14.384[23, 28, 23, 27, 28, 24, 20, 24]
14.407[27, 26, 23, 28, 27, 24, 22, 23]
14.421[28, 27, 23, 28, 27, 26, 22, 26]
14.444[29, 27, 22, 28, 26, 25, 22, 24]
14.467[31, 29, 25, 29, 25, 26, 21, 24]
14.481[31, 28, 24, 29, 26, 25, 22, 24]
14.504[29, 28, 26, 29, 27, 25, 20, 25]
14.527[31, 28, 25, 27, 26, 23, 20, 22]
14.541[31, 29, 26, 28, 27, 25, 21, 22]
14.563[30, 28, 22, 26, 26, 24, 20, 22]
14.587[27, 30, 22, 24, 24, 24, 19, 23]
14.601[25, 30, 22, 21, 24, 25, 20, 21]
14.623[24, 28, 24, 22, 25, 24, 19, 23]
14.647[23, 28, 24, 24, 27, 23, 19, 22]
14.662[23, 29, 25, 26, 27, 22, 20, 23]
14.683[28, 27, 25, 27, 27, 22, 21, 26]
14.707[30, 28, 23, 27, 26, 23, 21, 26]
14.721[30, 31, 26, 26, 26, 24, 21, 25]
14.743[31, 29, 26, 25, 23, 24, 20, 28]
14.767[34, 29, 26, 23, 23, 23, 21, 28]
14.789[31, 30, 27, 25, 25, 25, 23, 24]
14.804[28, 27, 28, 28, 26, 22, 23, 25]
14.827[28, 26, 26, 30, 24, 22, 24, 27]
14.849[28, 26, 25, 27, 25, 22, 25, 26]
14.863[27, 26, 24, 30, 24, 25, 25, 25]
14.887[31, 25, 24, 31, 24, 23, 22, 25]
14.909[34, 28, 23, 28, 25, 25, 22, 26]
14.924[34, 27, 22, 30, 25, 25, 21, 24]
14.946[33, 29, 23, 31, 24, 25, 21, 23]
14.969[34, 28, 23, 29, 27, 24, 21, 24]
14.983[30, 26, 24, 27, 26, 24, 22, 26]
15.006[28, 23, 23, 28, 26, 22, 23, 25]
15.029[29, 25, 22, 24, 27, 22, 23, 24]
15.044[29, 25, 22, 26, 27, 23, 25, 25]
15.067[26, 26, 23, 25, 26, 24, 26, 25]
15.089[26, 28, 24, 25, 24, 25, 26, 24]
15.103[29, 28, 24, 25, 26, 26, 24, 22]
15.127[29, 28, 23, 26, 25, 27, 25, 23]
15.149[30, 28, 23, 26, 24, 25, 22, 22]
15.163[32, 27, 22, 25, 23, 23, 21, 19]
15.186[32, 30, 21, 28, 25, 26, 19, 21]
15.209[30, 29, 21, 27, 24, 25, 19, 24]
15.223[28, 27, 23, 28, 23, 23, 19, 26]
15.246[28, 29, 23, 27, 25, 24, 20, 25]
15.269[26, 28, 23, 26, 25, 27, 20, 26]
15.283[26, 27, 23, 24, 25, 24, 22, 25]
15.306[26, 29, 24, 25, 26, 24, 25, 24]
15.329[26, 29, 24, 24, 27, 23, 25, 20]
15.343[24, 29, 25, 23, 28, 24, 25, 22]
15.366[26, 33, 26, 24, 29, 23, 26, 22]
15.389[25, 33, 25, 25, 30, 23, 26, 22]
15.403[28, 32, 23, 24, 29, 23, 24, 20]
15.426[29, 33, 24, 26, 28, 24, 23, 20]
15.449[28, 32, 24, 24, 25, 27, 24, 22]
15.463[31, 28, 22, 23, 24, 24, 24, 23]
15.486[30, 27, 21, 24, 21, 24, 22, 23]
15.509[30, 27, 22, 23, 21, 24, 21, 22]
15.523[30, 27, 19, 23, 22, 25, 22, 22]
15.546[31, 27, 21, 21, 23, 23, 22, 22]
15.569[30, 27, 22, 23, 22, 24, 20, 21]
15.583[31, 25, 24, 22, 21, 23, 20, 21]
15.614[28, 25, 27, 22, 21, 23, 22, 21]
15.629[27, 23, 27, 22, 22, 23, 21, 23]
15.643[29, 23, 25, 24, 20, 22, 19, 23]
15.667[26, 22, 28, 22, 22, 23, 23, 23]
15.69[27, 25, 27, 22, 22, 23, 22, 24]
15.711[26, 25, 25, 23, 23, 23, 21, 24]
15.726[27, 26, 25, 23, 25, 23, 24, 26]
15.749[27, 25, 27, 21, 27, 22, 24, 26]
15.771[27, 27, 23, 21, 26, 23, 23, 24]
15.786[29, 27, 22, 23, 28, 22, 23, 24]
15.809[29, 27, 22, 25, 28, 25, 25, 23]
15.831[29, 24, 23, 26, 26, 24, 22, 20]
15.846[27, 29, 23, 27, 28, 25, 24, 21]
15.869[25, 29, 25, 28, 30, 27, 23, 21]
15.891[27, 28, 24, 28, 29, 26, 25, 20]
15.914[26, 29, 24, 28, 30, 27, 25, 24]
15.929[29, 34, 24, 27, 31, 28, 25, 25]
15.951[31, 31, 24, 26, 28, 26, 25, 23]
15.966[31, 30, 24, 26, 26, 24, 24, 26]
15.988[29, 29, 23, 23, 26, 25, 22, 27]
16.011[31, 29, 23, 21, 23, 22, 21, 25]
16.026[28, 24, 22, 25, 24, 21, 21, 26]
16.048[28, 23, 22, 25, 25, 22, 23, 27]
16.071[27, 24, 23, 26, 25, 23, 23, 26]
16.086[26, 24, 25, 27, 24, 23, 23, 26]
16.109[25, 25, 25, 27, 25, 22, 23, 27]
16.131[27, 26, 25, 24, 25, 24, 24, 24]
16.146[25, 26, 26, 25, 24, 23, 19, 24]
16.169[25, 26, 25, 25, 26, 24, 21, 24]
16.191[25, 26, 23, 27, 26, 23, 21, 24]
16.205[24, 27, 25, 28, 25, 26, 20, 21]
16.228[22, 26, 24, 28, 24, 25, 22, 22]
16.251[24, 28, 25, 29, 25, 25, 24, 21]
16.265[25, 26, 24, 28, 24, 23, 23, 20]
16.289[25, 25, 25, 26, 24, 23, 24, 21]
16.311[25, 25, 24, 25, 26, 19, 25, 21]
16.325[29, 24, 26, 24, 28, 20, 21, 21]
16.348[31, 22, 26, 22, 28, 18, 21, 22]
16.371[32, 22, 27, 21, 28, 18, 21, 21]
16.385[32, 27, 27, 23, 29, 19, 21, 21]
16.408[32, 25, 26, 25, 28, 20, 20, 21]
16.431[28, 29, 25, 26, 29, 23, 20, 21]
16.445[25, 30, 24, 27, 27, 25, 21, 22]
16.468[25, 29, 24, 29, 27, 25, 22, 22]
16.491[24, 27, 23, 29, 28, 27, 21, 22]
16.505[25, 28, 24, 26, 26, 28, 20, 21]
16.529[27, 24, 24, 26, 21, 25, 22, 21]
16.551[25, 24, 24, 25, 23, 24, 21, 19]
16.565[24, 25, 25, 24, 25, 25, 19, 20]
16.588[27, 28, 24, 22, 21, 22, 21, 21]
16.61[24, 27, 25, 25, 23, 20, 22, 24]
16.632[22, 27, 25, 26, 26, 22, 21, 25]
16.649[27, 27, 23, 26, 25, 22, 22, 24]
16.67[28, 27, 22, 26, 24, 21, 22, 28]
16.693[28, 24, 23, 26, 27, 23, 22, 26]
16.709[29, 24, 21, 25, 28, 25, 21, 23]
16.73[31, 27, 21, 23, 25, 25, 22, 25]
16.753[30, 27, 21, 24, 27, 25, 22, 26]
16.769[30, 28, 21, 24, 27, 26, 23, 20]
16.79[28, 27, 21, 28, 26, 26, 23, 22]
16.812[29, 27, 21, 27, 25, 25, 23, 23]
16.829[27, 25, 23, 29, 26, 23, 23, 22]
16.85[23, 26, 23, 28, 25, 24, 22, 21]
16.873[21, 27, 22, 27, 23, 24, 23, 24]
16.889[23, 28, 25, 24, 21, 24, 21, 23]
16.91[23, 30, 25, 23, 24, 24, 22, 23]
16.933[24, 31, 25, 22, 25, 24, 22, 22]
16.949[28, 32, 25, 22, 25, 23, 22, 23]
16.97[28, 29, 28, 24, 27, 23, 21, 19]
16.992[28, 30, 26, 25, 28, 24, 22, 21]
17.009[28, 28, 25, 26, 27, 23, 21, 23]
17.03[28, 26, 25, 24, 26, 23, 22, 23]
17.052[27, 24, 27, 22, 25, 23, 21, 24]
17.075[28, 27, 24, 23, 25, 24, 24, 25]
17.09[29, 27, 25, 21, 25, 22, 23, 24]
17.12[31, 26, 24, 24, 24, 24, 23, 23]
17.129[30, 29, 25, 26, 24, 23, 21, 21]
17.15[31, 31, 24, 29, 25, 25, 22, 21]
17.172[30, 32, 25, 27, 25, 24, 20, 21]
17.189[30, 29, 25, 30, 24, 25, 23, 22]
17.21[27, 30, 25, 30, 25, 24, 24, 21]
17.232[29, 28, 25, 30, 24, 25, 23, 21]
17.249[28, 25, 23, 29, 25, 24, 23, 20]
17.27[30, 23, 23, 30, 25, 24, 21, 26]
17.292[28, 28, 21, 27, 25, 23, 20, 25]
17.308[28, 28, 21, 27, 25, 23, 19, 28]
17.33[24, 28, 21, 26, 25, 23, 22, 28]
17.352[23, 32, 22, 26, 25, 24, 22, 30]
17.368[25, 31, 22, 25, 25, 23, 23, 27]
17.39[27, 29, 23, 25, 26, 23, 24, 27]
17.412[29, 28, 22, 22, 26, 23, 23, 23]
17.435[29, 30, 24, 23, 29, 24, 22, 22]
17.45[29, 25, 23, 22, 27, 20, 21, 21]
17.472[26, 25, 23, 23, 28, 21, 20, 20]
17.489[24, 25, 25, 24, 27, 21, 18, 20]
17.51[22, 27, 26, 23, 25, 22, 19, 21]
17.534[25, 26, 26, 24, 26, 21, 19, 22]
17.554[29, 28, 25, 25, 26, 24, 20, 21]
17.57[32, 27, 25, 26, 24, 24, 21, 20]
17.592[32, 28, 25, 27, 27, 22, 22, 21]
17.609[31, 29, 24, 28, 26, 20, 23, 22]
17.63[32, 30, 23, 27, 23, 20, 23, 21]
17.652[27, 27, 26, 28, 24, 21, 22, 22]
17.674[28, 28, 25, 26, 26, 21, 23, 22]
17.689[26, 27, 25, 23, 24, 23, 22, 22]
17.712[29, 24, 27, 23, 24, 24, 22, 22]
17.734[28, 25, 24, 25, 25, 24, 23, 23]
17.75[29, 29, 23, 26, 27, 22, 24, 26]
17.772[26, 28, 25, 28, 27, 22, 25, 25]
17.794[27, 29, 28, 29, 24, 23, 24, 23]
17.81[26, 31, 27, 29, 27, 23, 22, 22]
17.832[25, 29, 28, 27, 27, 27, 23, 22]
17.854[26, 26, 27, 25, 26, 25, 25, 20]
17.869[25, 28, 26, 25, 24, 26, 23, 22]
17.892[26, 28, 23, 24, 24, 24, 23, 22]
17.914[23, 27, 24, 23, 26, 25, 23, 23]
17.929[21, 29, 24, 25, 25, 22, 21, 23]
17.96[22, 31, 23, 26, 25, 23, 20, 21]
17.974[23, 30, 24, 24, 26, 22, 21, 21]
17.99[23, 29, 26, 26, 29, 24, 20, 22]
18.013[27, 29, 24, 26, 24, 21, 19, 20]
18.034[28, 26, 24, 24, 26, 20, 21, 21]
18.049[27, 23, 25, 24, 24, 24, 19, 22]
18.074[27, 25, 24, 25, 24, 23, 18, 20]
18.094[26, 23, 22, 24, 23, 25, 20, 22]
18.11[23, 25, 25, 25, 24, 26, 21, 23]
18.132[24, 26, 27, 26, 26, 25, 22, 20]
18.154[24, 27, 27, 26, 27, 23, 23, 19]
18.169[25, 27, 27, 25, 28, 24, 23, 21]
18.192[27, 28, 27, 26, 27, 21, 25, 21]
18.215[27, 26, 24, 26, 26, 21, 25, 21]
18.229[26, 28, 25, 25, 23, 22, 25, 22]
18.252[27, 27, 25, 27, 22, 20, 26, 24]
18.274[26, 26, 26, 27, 23, 19, 25, 22]
18.29[26, 29, 26, 25, 24, 19, 21, 21]
18.312[25, 28, 27, 26, 24, 22, 21, 19]
18.334[26, 27, 24, 26, 25, 25, 21, 19]
18.351[25, 26, 25, 24, 24, 27, 21, 17]
18.372[24, 27, 23, 24, 24, 26, 20, 20]
18.394[24, 24, 23, 23, 25, 26, 20, 23]
18.41[25, 27, 24, 22, 25, 24, 19, 23]
18.432[22, 27, 26, 21, 23, 23, 20, 24]
18.455[24, 27, 28, 22, 24, 25, 19, 25]
18.469[28, 30, 30, 22, 25, 26, 22, 25]
18.492[26, 29, 29, 21, 23, 26, 22, 22]
18.514[26, 29, 29, 21, 22, 29, 24, 24]
18.529[27, 28, 28, 22, 24, 28, 23, 24]
18.552[25, 27, 24, 19, 27, 25, 23, 25]
18.574[25, 25, 29, 22, 27, 26, 21, 24]
18.597[26, 27, 30, 24, 27, 25, 23, 24]
18.611[26, 28, 28, 23, 27, 22, 21, 23]
18.634[25, 30, 28, 23, 25, 22, 22, 23]
18.657[25, 30, 29, 28, 25, 21, 21, 23]
18.672[24, 29, 24, 26, 23, 20, 20, 20]
18.694[24, 30, 24, 26, 24, 21, 21, 22]
18.716[28, 29, 25, 29, 27, 23, 21, 23]
18.731[28, 27, 24, 28, 28, 24, 20, 24]
18.754[31, 29, 25, 27, 27, 25, 22, 23]
18.776[32, 29, 24, 28, 27, 25, 25, 23]
18.791[30, 28, 25, 27, 26, 25, 28, 22]
18.815[27, 29, 25, 26, 24, 24, 28, 21]
18.837[27, 28, 24, 26, 23, 22, 29, 21]
18.851[24, 27, 25, 25, 23, 23, 30, 19]
18.874[22, 25, 25, 26, 23, 21, 27, 19]
18.897[22, 24, 24, 26, 23, 22, 22, 20]
18.911[25, 26, 26, 28, 25, 22, 22, 21]
18.934[27, 28, 28, 29, 26, 21, 22, 19]
18.957[27, 30, 27, 29, 25, 20, 24, 20]
18.971[27, 30, 27, 27, 25, 24, 24, 23]
18.994[27, 31, 26, 27, 27, 22, 25, 25]
19.017[29, 31, 24, 25, 24, 23, 24, 24]
19.031[27, 30, 23, 24, 24, 25, 24, 26]
19.062[27, 28, 25, 23, 22, 24, 21, 26]
19.076[27, 28, 24, 24, 23, 22, 24, 24]
19.091[28, 28, 25, 24, 20, 22, 24, 22]
19.114[25, 24, 26, 25, 22, 21, 26, 22]
19.136[27, 26, 24, 25, 23, 21, 26, 20]
19.151[27, 27, 22, 27, 25, 23, 26, 21]
19.174[29, 27, 25, 26, 27, 21, 23, 21]
19.197[27, 28, 24, 25, 26, 24, 24, 20]
19.211[28, 28, 24, 27, 27, 25, 24, 21]
19.234[26, 29, 26, 29, 26, 23, 23, 23]
19.256[28, 29, 26, 27, 24, 23, 23, 21]
19.271[29, 31, 25, 29, 27, 26, 24, 20]
19.294[29, 31, 26, 31, 28, 24, 25, 23]
19.317[28, 31, 27, 29, 28, 26, 24, 22]
19.331[28, 30, 26, 29, 31, 26, 23, 22]
19.354[26, 29, 26, 30, 32, 26, 24, 23]
19.376[23, 28, 26, 29, 28, 24, 25, 23]
19.391[25, 28, 26, 27, 28, 24, 20, 20]
19.414[26, 28, 27, 30, 29, 20, 20, 21]
19.437[26, 27, 26, 27, 25, 22, 20, 19]
19.459[27, 27, 25, 25, 24, 22, 20, 19]
19.473[26, 27, 24, 26, 25, 25, 18, 19]
19.497[25, 26, 25, 25, 24, 25, 20, 20]
19.511[25, 24, 23, 22, 23, 26, 19, 19]
19.534[27, 22, 25, 22, 22, 25, 20, 19]
19.557[31, 27, 25, 25, 23, 27, 21, 18]
19.579[31, 28, 25, 25, 23, 25, 21, 18]
19.594[30, 29, 24, 26, 25, 24, 21, 19]
19.617[30, 32, 27, 27, 25, 24, 21, 20]
19.639[29, 33, 25, 27, 25, 24, 23, 20]
19.654[25, 30, 26, 26, 27, 22, 23, 21]
19.677[30, 31, 26, 25, 28, 22, 24, 23]
19.699[29, 30, 28, 25, 27, 21, 25, 21]
19.713[28, 27, 26, 24, 26, 21, 25, 20]
19.737[28, 28, 27, 22, 26, 22, 25, 19]
19.759[27, 28, 26, 22, 24, 21, 24, 20]
19.773[22, 25, 27, 24, 22, 22, 24, 19]
19.797[22, 25, 26, 26, 23, 24, 24, 20]
19.819[24, 25, 24, 26, 23, 24, 24, 23]
19.833[23, 26, 23, 30, 23, 24, 21, 25]
19.857[23, 24, 22, 29, 24, 23, 21, 24]
19.879[26, 23, 21, 29, 25, 23, 19, 23]
19.894[27, 25, 23, 26, 25, 21, 20, 24]
19.917[26, 24, 25, 26, 25, 20, 21, 22]
19.939[26, 22, 25, 23, 24, 21, 23, 20]
19.954[26, 23, 26, 23, 25, 23, 23, 21]
19.977[27, 27, 26, 21, 24, 22, 23, 22]
19.999[27, 28, 24, 23, 24, 22, 23, 20]
20.014[26, 31, 23, 24, 25, 22, 22, 19]
20.037[28, 31, 23, 26, 27, 21, 20, 21]
20.059[26, 31, 22, 26, 26, 19, 22, 22]
20.074[24, 28, 21, 27, 24, 22, 23, 22]
20.097[24, 25, 21, 26, 24, 22, 21, 23]
20.119[25, 24, 21, 27, 25, 23, 21, 24]
20.134[24, 25, 20, 24, 22, 21, 20, 22]
20.157[26, 26, 26, 27, 26, 21, 19, 23]
20.179[27, 28, 27, 27, 27, 21, 18, 22]
20.194[29, 27, 28, 28, 26, 22, 18, 22]
20.217[30, 27, 28, 26, 24, 22, 20, 22]
20.239[29, 26, 29, 26, 26, 25, 20, 22]
20.253[29, 27, 24, 23, 25, 26, 20, 22]
20.276[27, 24, 24, 21, 25, 26, 21, 22]
20.299[24, 25, 23, 23, 29, 25, 21, 21]
20.313[22, 24, 21, 23, 31, 26, 21, 22]
20.337[25, 23, 22, 24, 32, 23, 23, 24]
20.359[23, 24, 23, 24, 31, 25, 24, 23]
20.373[27, 25, 23, 26, 30, 23, 25, 24]
20.396[31, 25, 22, 25, 27, 24, 25, 24]
20.419[31, 24, 22, 27, 27, 23, 24, 24]
20.433[29, 24, 23, 27, 24, 23, 25, 23]
20.456[29, 22, 22, 26, 22, 23, 24, 23]
20.479[29, 22, 24, 24, 22, 25, 25, 25]
20.502[25, 22, 23, 25, 24, 24, 27, 25]
20.517[25, 25, 25, 22, 23, 26, 26, 24]
20.539[25, 27, 25, 23, 23, 27, 25, 25]
20.562[25, 27, 25, 23, 24, 24, 25, 23]
20.576[23, 27, 24, 25, 26, 22, 23, 21]
20.599[24, 27, 27, 23, 25, 24, 20, 21]
20.622[29, 25, 26, 25, 23, 21, 20, 21]
20.636[28, 23, 26, 23, 24, 22, 18, 19]
20.659[31, 22, 26, 24, 25, 24, 19, 19]
20.682[31, 28, 25, 23, 25, 24, 19, 23]
20.704[32, 28, 22, 24, 25, 24, 22, 21]
20.719[28, 29, 24, 23, 26, 25, 24, 22]
20.741[27, 30, 25, 25, 25, 24, 23, 25]
20.757[25, 30, 26, 26, 27, 23, 25, 26]
20.779[24, 27, 27, 28, 27, 22, 25, 24]
20.802[25, 28, 27, 27, 26, 23, 24, 26]
20.816[26, 30, 27, 29, 27, 20, 23, 26]
20.839[27, 30, 26, 28, 27, 19, 24, 24]
20.861[30, 30, 26, 27, 24, 21, 24, 23]
20.876[29, 29, 25, 23, 21, 20, 22, 23]
20.899[29, 28, 25, 23, 21, 19, 20, 22]
20.929[28, 23, 23, 20, 22, 19, 21, 22]
20.936[29, 27, 22, 21, 21, 19, 21, 23]
20.959[26, 28, 20, 20, 22, 19, 20, 23]
20.981[28, 29, 25, 21, 28, 19, 22, 23]
20.995[26, 29, 25, 25, 28, 20, 22, 23]
21.019[26, 31, 26, 24, 28, 20, 21, 21]
21.041[25, 30, 26, 25, 30, 22, 21, 21]
21.056[26, 28, 26, 26, 30, 23, 20, 21]
21.079[29, 28, 22, 26, 27, 24, 21, 21]
21.101[31, 26, 22, 23, 26, 24, 21, 21]
21.115[30, 26, 21, 25, 24, 24, 22, 21]
21.139[30, 25, 24, 24, 24, 23, 22, 19]
21.162[31, 25, 26, 24, 24, 22, 24, 21]
21.175[28, 28, 25, 25, 23, 21, 23, 22]
21.198[27, 30, 25, 25, 23, 22, 24, 21]
21.222[27, 29, 24, 24, 23, 23, 23, 21]
21.235[27, 29, 22, 27, 23, 24, 25, 23]
21.259[26, 28, 21, 26, 25, 25, 23, 22]
21.281[26, 24, 21, 25, 23, 24, 22, 20]
21.295[25, 23, 21, 25, 25, 25, 22, 20]
21.318[27, 22, 22, 26, 27, 22, 23, 22]
21.341[27, 24, 21, 22, 25, 23, 21, 20]
21.355[28, 26, 23, 22, 25, 22, 20, 21]
21.379[28, 26, 23, 21, 27, 23, 21, 21]
21.401[29, 27, 22, 22, 27, 26, 24, 23]
21.423[28, 25, 23, 23, 27, 27, 22, 23]
21.438[27, 23, 24, 24, 27, 27, 23, 23]
21.461[28, 23, 22, 23, 25, 27, 24, 22]
21.483[27, 21, 22, 26, 24, 27, 25, 24]
21.499[27, 22, 21, 25, 23, 23, 22, 25]
21.521[28, 25, 25, 24, 21, 22, 21, 25]
21.543[25, 26, 25, 24, 23, 21, 23, 25]
21.559[22, 25, 25, 25, 26, 20, 23, 26]
21.582[29, 27, 26, 23, 25, 21, 21, 24]
21.603[28, 28, 28, 22, 27, 20, 22, 27]
21.619[30, 27, 23, 21, 28, 21, 24, 26]
21.64[30, 26, 24, 22, 28, 22, 23, 28]
21.663[31, 27, 24, 24, 25, 22, 23, 28]
21.679[29, 25, 23, 23, 24, 22, 23, 28]
21.7[27, 24, 21, 24, 24, 22, 23, 25]
21.722[26, 25, 25, 24, 25, 23, 22, 25]
21.739[27, 25, 24, 24, 26, 22, 20, 22]
21.76[27, 24, 24, 26, 27, 23, 19, 19]
21.782[23, 24, 24, 26, 29, 24, 19, 20]
21.799[24, 24, 26, 26, 28, 24, 18, 19]
21.82[26, 23, 25, 27, 27, 22, 17, 18]
21.843[28, 25, 24, 26, 25, 21, 19, 19]
21.859[27, 25, 24, 23, 25, 21, 21, 21]
21.88[26, 25, 25, 22, 25, 19, 22, 23]
21.902[25, 24, 24, 22, 24, 21, 22, 22]
21.919[23, 24, 23, 22, 25, 24, 24, 23]
21.94[26, 22, 25, 24, 27, 25, 25, 23]
21.963[28, 24, 24, 25, 26, 24, 23, 23]
21.979[28, 26, 23, 26, 27, 25, 22, 22]
22.0[28, 25, 21, 26, 26, 25, 23, 22]
22.022[27, 25, 22, 25, 24, 22, 20, 24]
22.039[24, 27, 23, 24, 23, 23, 18, 24]
22.06[24, 26, 24, 23, 24, 22, 19, 23]
22.083[25, 26, 24, 24, 22, 21, 19, 20]
22.099[25, 26, 25, 22, 23, 21, 18, 22]
22.12[27, 27, 25, 22, 24, 20, 22, 19]
22.143[25, 27, 23, 22, 23, 18, 22, 19]
22.159[27, 28, 23, 23, 23, 19, 22, 18]
22.18[27, 27, 25, 23, 23, 19, 22, 19]
22.202[29, 29, 24, 25, 23, 19, 22, 16]
22.219[29, 29, 25, 27, 21, 20, 20, 18]
22.241[32, 27, 26, 26, 22, 20, 20, 18]
22.27[29, 25, 26, 25, 23, 19, 21, 18]
22.279[29, 25, 24, 24, 22, 21, 21, 17]
22.3[30, 25, 25, 25, 23, 22, 21, 19]
22.322[30, 26, 24, 24, 24, 23, 21, 21]
22.339[27, 26, 23, 26, 26, 23, 21, 21]
22.36[27, 26, 21, 26, 25, 24, 21, 22]
22.382[27, 26, 24, 26, 27, 24, 22, 23]
22.405[29, 26, 22, 28, 26, 21, 22, 23]
22.42[29, 26, 22, 26, 26, 20, 22, 21]
22.442[28, 29, 22, 25, 22, 21, 22, 21]
22.465[27, 28, 24, 25, 23, 19, 22, 21]
22.48[28, 28, 21, 26, 22, 19, 21, 21]
22.51[22, 27, 22, 24, 23, 21, 22, 21]
22.525[21, 27, 23, 25, 25, 21, 20, 20]
22.547[21, 24, 24, 25, 25, 21, 19, 19]
22.562[21, 26, 23, 26, 24, 20, 19, 21]
22.584[20, 26, 24, 29, 24, 19, 19, 21]
22.6[22, 24, 26, 27, 22, 21, 21, 22]
22.622[22, 24, 25, 28, 23, 22, 21, 23]
22.653[23, 24, 24, 27, 23, 24, 23, 22]
22.66[22, 24, 24, 24, 23, 24, 23, 20]
22.682[22, 24, 23, 19, 23, 25, 21, 19]
22.705[20, 23, 23, 19, 22, 22, 19, 19]
22.72[23, 24, 24, 20, 23, 23, 20, 17]
22.742[23, 26, 24, 19, 25, 23, 18, 17]
22.766[23, 27, 24, 19, 25, 24, 18, 18]
22.78[27, 27, 24, 23, 24, 24, 19, 19]
22.802[28, 28, 23, 24, 25, 25, 19, 21]
22.825[27, 26, 22, 23, 23, 23, 18, 21]
22.84[30, 25, 24, 26, 22, 22, 20, 26]
22.862[32, 24, 24, 27, 22, 22, 22, 26]
22.885[30, 24, 24, 26, 23, 22, 22, 25]
22.901[29, 26, 25, 26, 22, 22, 22, 24]
22.922[29, 25, 25, 26, 23, 22, 23, 25]
22.944[27, 25, 26, 24, 22, 21, 22, 20]
22.959[27, 25, 27, 22, 22, 20, 21, 21]
22.982[28, 25, 28, 22, 22, 19, 20, 27]
23.004[28, 22, 26, 22, 24, 20, 19, 26]
23.02[29, 25, 26, 24, 25, 20, 21, 25]
23.042[29, 25, 22, 22, 26, 21, 23, 24]
23.064[28, 25, 22, 24, 26, 24, 21, 26]
23.079[27, 26, 23, 26, 25, 25, 23, 21]
23.102[30, 28, 22, 26, 26, 23, 24, 23]
23.124[27, 27, 22, 26, 25, 24, 22, 23]
23.14[25, 25, 24, 28, 25, 25, 20, 23]
23.162[24, 26, 22, 26, 25, 23, 24, 20]
23.184[24, 25, 23, 25, 27, 22, 22, 22]
23.199[22, 23, 26, 27, 27, 23, 23, 20]
23.222[23, 23, 27, 24, 26, 21, 24, 20]
23.245[23, 25, 25, 24, 27, 19, 22, 22]
23.267[24, 24, 26, 24, 26, 19, 19, 22]
23.282[26, 27, 24, 23, 25, 18, 20, 20]
23.304[23, 27, 21, 22, 24, 18, 19, 21]
23.327[30, 29, 21, 25, 25, 20, 19, 23]
23.343[30, 28, 21, 25, 23, 20, 22, 22]
23.365[30, 27, 20, 25, 25, 19, 22, 21]
23.387[29, 25, 21, 25, 25, 22, 24, 21]
23.402[29, 26, 23, 25, 22, 22, 23, 20]
23.424[23, 24, 24, 23, 21, 22, 24, 19]
23.447[26, 25, 24, 22, 21, 23, 22, 20]
23.462[27, 25, 23, 24, 22, 24, 23, 21]
23.484[28, 26, 23, 23, 22, 22, 22, 23]
23.507[31, 26, 22, 25, 26, 20, 22, 24]
23.522[29, 29, 21, 25, 27, 22, 21, 24]
23.545[26, 29, 20, 25, 29, 23, 20, 22]
23.567[27, 29, 22, 24, 27, 23, 21, 24]
23.59[25, 30, 22, 27, 28, 24, 21, 21]
23.604[21, 28, 24, 26, 26, 25, 22, 23]
23.627[24, 27, 25, 25, 25, 22, 23, 22]
23.642[23, 26, 24, 26, 25, 21, 23, 23]
23.672[24, 27, 25, 24, 26, 21, 23, 21]
23.687[24, 23, 24, 21, 25, 21, 22, 22]
23.702[25, 27, 24, 24, 25, 23, 20, 21]
23.724[24, 26, 24, 26, 26, 25, 22, 21]
23.747[25, 30, 27, 26, 25, 25, 22, 23]
23.762[23, 29, 28, 28, 27, 24, 22, 23]
23.784[22, 30, 29, 30, 27, 24, 25, 27]
23.807[25, 28, 25, 25, 26, 24, 25, 27]
23.822[24, 29, 26, 25, 24, 21, 24, 28]
23.844[25, 26, 24, 26, 24, 22, 23, 27]
23.867[28, 27, 22, 26, 23, 21, 23, 27]
23.881[28, 27, 20, 26, 23, 21, 21, 23]
23.904[27, 26, 21, 26, 23, 20, 22, 23]
23.927[29, 23, 21, 25, 23, 20, 20, 22]
23.941[27, 24, 21, 24, 24, 20, 21, 20]
23.964[25, 23, 22, 23, 25, 20, 21, 24]
23.986[25, 23, 25, 24, 25, 22, 19, 24]
24.002[28, 25, 26, 28, 28, 24, 20, 24]
24.024[25, 28, 29, 29, 30, 23, 21, 23]
24.046[27, 26, 28, 29, 30, 22, 20, 23]
24.062[26, 29, 28, 28, 29, 22, 18, 19]
24.084[29, 29, 29, 28, 28, 21, 19, 19]
24.106[27, 27, 28, 25, 24, 19, 20, 19]
24.121[28, 26, 27, 24, 22, 21, 19, 18]
24.145[29, 26, 28, 22, 25, 23, 20, 21]
24.166[31, 24, 29, 23, 24, 23, 19, 21]
24.183[31, 22, 26, 22, 25, 21, 23, 20]
24.213[30, 22, 25, 22, 24, 21, 21, 20]
24.226[31, 21, 24, 24, 26, 22, 22, 21]
24.242[31, 22, 25, 28, 23, 21, 21, 20]
24.264[30, 21, 21, 28, 25, 22, 22, 20]
24.287[30, 23, 23, 28, 26, 22, 21, 24]
24.31[29, 24, 22, 30, 28, 22, 24, 25]
24.324[31, 24, 22, 29, 27, 23, 25, 25]
24.346[31, 24, 25, 29, 28, 22, 25, 24]
24.37[32, 28, 26, 29, 28, 22, 25, 25]
24.384[30, 28, 26, 30, 25, 22, 25, 20]
24.407[30, 25, 27, 28, 26, 23, 24, 19]
24.43[26, 26, 27, 28, 26, 22, 23, 20]
24.444[24, 25, 25, 25, 25, 22, 23, 20]
24.467[26, 22, 25, 26, 23, 22, 22, 19]
24.489[24, 24, 24, 27, 26, 23, 20, 20]
24.504[25, 24, 22, 26, 25, 22, 22, 20]
24.526[24, 23, 22, 26, 22, 19, 21, 19]
24.55[22, 22, 21, 26, 22, 20, 21, 18]
24.564[20, 22, 19, 25, 21, 19, 22, 19]
24.586[23, 23, 23, 24, 20, 21, 25, 20]
24.61[26, 25, 24, 24, 21, 20, 24, 23]
24.624[27, 26, 25, 23, 23, 21, 25, 21]
24.646[28, 27, 25, 22, 24, 20, 26, 23]
24.669[29, 27, 25, 23, 27, 24, 26, 24]
24.684[28, 27, 22, 24, 27, 23, 23, 24]
24.707[27, 27, 23, 26, 28, 23, 23, 21]
24.73[28, 28, 22, 26, 28, 25, 21, 24]
24.743[28, 28, 24, 25, 28, 26, 21, 23]
24.767[28, 29, 25, 26, 27, 23, 21, 22]
24.79[27, 27, 25, 25, 25, 21, 23, 22]
24.804[32, 26, 24, 22, 24, 22, 22, 23]
24.827[32, 26, 26, 25, 24, 20, 23, 20]
24.85[32, 26, 22, 27, 24, 20, 20, 22]
24.864[32, 24, 23, 26, 24, 24, 21, 22]
24.887[34, 25, 23, 26, 24, 26, 18, 22]
24.917[26, 24, 23, 27, 26, 26, 15, 21]
24.923[28, 27, 23, 27, 26, 27, 18, 23]
24.947[26, 28, 26, 27, 27, 26, 19, 22]
24.969[27, 29, 27, 24, 26, 23, 19, 22]
24.984[25, 28, 26, 25, 26, 24, 21, 22]
25.007[29, 28, 26, 26, 23, 22, 22, 22]
25.029[28, 26, 24, 23, 24, 22, 21, 20]
25.044[28, 28, 23, 22, 25, 23, 20, 22]
25.067[27, 26, 21, 23, 25, 23, 20, 21]
25.089[25, 27, 25, 22, 25, 23, 20, 20]
25.103[22, 28, 24, 22, 27, 22, 24, 23]
25.127[25, 28, 25, 23, 25, 22, 24, 24]
25.149[26, 26, 25, 22, 23, 22, 24, 22]
25.164[28, 28, 26, 23, 24, 21, 24, 22]
25.186[27, 28, 23, 23, 24, 20, 23, 22]
25.209[28, 28, 24, 23, 22, 19, 20, 22]
25.232[25, 25, 23, 25, 24, 18, 19, 21]
25.247[24, 25, 21, 26, 25, 17, 19, 21]
25.269[24, 25, 23, 27, 25, 18, 21, 22]
25.292[24, 24, 23, 27, 24, 18, 26, 26]
25.322[23, 23, 23, 28, 26, 19, 25, 22]
25.331[22, 22, 23, 27, 26, 19, 24, 22]
25.352[23, 25, 24, 26, 24, 22, 26, 22]
25.367[22, 24, 22, 25, 26, 21, 24, 20]
25.389[23, 24, 24, 30, 31, 21, 19, 15]
25.411[27, 24, 25, 28, 31, 21, 21, 18]
25.427[30, 26, 25, 28, 31, 23, 21, 19]
25.449[32, 25, 24, 28, 31, 22, 21, 22]
25.471[31, 26, 25, 28, 29, 22, 25, 23]
25.487[32, 27, 24, 23, 25, 23, 27, 25]
25.516[32, 27, 24, 23, 24, 24, 26, 25]
25.531[31, 27, 24, 22, 23, 22, 25, 24]
25.546[30, 27, 26, 22, 25, 22, 25, 26]
25.569[32, 30, 26, 25, 25, 25, 22, 27]
25.591[31, 30, 27, 26, 24, 25, 20, 25]
25.607[27, 29, 24, 27, 23, 26, 21, 25]
25.644[26, 27, 24, 27, 23, 27, 21, 27]
25.651[26, 29, 22, 27, 22, 25, 21, 22]
25.667[26, 25, 22, 25, 23, 24, 22, 21]
25.689[25, 26, 21, 25, 24, 23, 22, 21]
25.719[27, 26, 24, 23, 24, 22, 20, 23]
25.726[27, 27, 23, 25, 25, 23, 22, 20]
25.749[27, 27, 25, 24, 26, 24, 23, 23]
25.771[27, 26, 25, 28, 28, 24, 23, 22]
25.786[29, 25, 26, 29, 29, 24, 23, 23]
25.809[30, 26, 25, 28, 30, 23, 23, 22]
25.831[31, 25, 25, 28, 31, 23, 22, 24]
25.846[30, 24, 22, 27, 29, 23, 22, 24]
25.869[29, 26, 21, 23, 25, 22, 22, 26]
25.891[29, 28, 22, 24, 26, 22, 24, 26]
25.906[25, 29, 21, 25, 25, 23, 23, 24]
25.929[25, 30, 21, 27, 24, 23, 22, 24]
25.951[26, 30, 21, 26, 24, 22, 22, 24]
25.966[25, 27, 21, 27, 24, 23, 21, 21]
25.989[31, 26, 20, 26, 22, 22, 19, 21]
26.011[30, 23, 22, 27, 23, 22, 20, 23]
26.026[29, 24, 22, 24, 25, 22, 21, 22]
26.049[27, 25, 23, 25, 25, 22, 20, 21]
26.071[27, 26, 25, 27, 27, 23, 20, 22]
26.085[22, 25, 24, 27, 26, 23, 22, 24]
26.109[20, 26, 25, 27, 26, 22, 21, 21]
26.132[23, 29, 26, 27, 24, 22, 22, 23]
26.154[29, 28, 25, 27, 25, 21, 23, 25]
26.169[28, 29, 25, 26, 24, 21, 23, 23]
26.191[29, 28, 26, 28, 26, 22, 22, 23]
26.214[32, 30, 23, 26, 24, 22, 24, 23]
26.229[31, 26, 23, 26, 26, 23, 23, 21]
26.252[28, 25, 26, 27, 26, 23, 22, 22]
26.274[28, 24, 25, 25, 26, 24, 23, 22]
26.289[27, 24, 23, 23, 24, 24, 22, 22]
26.311[26, 23, 24, 27, 27, 23, 20, 22]
26.334[29, 26, 24, 25, 27, 21, 19, 23]
26.349[27, 27, 19, 25, 25, 23, 19, 20]
26.371[27, 27, 21, 27, 25, 20, 18, 22]
26.394[26, 28, 21, 28, 26, 24, 19, 22]
26.409[25, 29, 21, 25, 25, 24, 20, 23]
26.431[23, 28, 20, 26, 27, 24, 21, 23]
26.454[24, 27, 25, 28, 28, 25, 22, 24]
26.469[27, 31, 23, 27, 28, 25, 23, 25]
26.49[27, 32, 24, 26, 28, 22, 25, 24]
26.513[27, 29, 24, 26, 29, 23, 24, 23]
26.529[27, 28, 25, 27, 24, 23, 24, 23]
26.558[28, 27, 20, 26, 22, 22, 26, 23]
26.573[25, 23, 23, 25, 20, 22, 25, 22]
26.589[27, 22, 23, 26, 21, 22, 21, 22]
26.61[26, 23, 25, 26, 20, 21, 22, 25]
26.633[26, 23, 26, 22, 22, 22, 22, 24]
26.649[27, 24, 28, 23, 24, 21, 18, 25]
26.67[28, 25, 27, 25, 24, 22, 19, 23]
26.693[29, 28, 28, 25, 26, 21, 21, 23]
26.709[29, 30, 28, 28, 27, 22, 21, 18]
26.73[27, 30, 27, 30, 26, 23, 20, 22]
26.753[26, 30, 27, 30, 25, 22, 21, 21]
26.769[25, 29, 27, 30, 27, 23, 20, 23]
26.79[24, 25, 25, 28, 26, 24, 19, 22]
26.813[25, 23, 25, 27, 26, 25, 20, 24]
26.829[27, 24, 24, 26, 28, 25, 22, 21]
26.85[28, 26, 24, 26, 29, 26, 22, 21]
26.873[31, 27, 23, 26, 28, 25, 23, 21]
26.889[29, 27, 22, 26, 27, 25, 23, 23]
26.91[27, 27, 22, 25, 24, 24, 23, 21]
26.933[30, 36, 24, 30, 25, 22, 21, 21]
26.949[33, 38, 23, 30, 25, 21, 21, 22]
26.97[30, 38, 25, 30, 24, 23, 19, 21]
26.993[30, 38, 25, 29, 26, 21, 20, 18]
27.009[29, 38, 25, 31, 28, 20, 20, 20]
27.03[27, 28, 24, 26, 25, 20, 20, 21]
27.054[22, 25, 23, 26, 26, 20, 23, 21]
27.069[24, 26, 23, 27, 27, 20, 24, 20]
27.09[26, 29, 25, 28, 25, 20, 25, 22]
27.112[27, 29, 25, 26, 25, 22, 25, 21]
27.135[27, 31, 25, 26, 27, 23, 23, 22]
27.15[28, 33, 26, 26, 25, 23, 21, 22]
27.173[26, 33, 26, 24, 25, 24, 22, 23]
27.195[28, 30, 27, 24, 25, 24, 21, 21]
27.21[28, 31, 25, 23, 24, 24, 20, 22]
27.232[29, 30, 24, 23, 23, 23, 21, 24]
27.256[27, 28, 25, 23, 25, 21, 20, 24]
27.27[28, 26, 24, 21, 23, 20, 17, 23]
27.293[24, 27, 24, 23, 24, 20, 16, 23]
27.315[28, 27, 24, 24, 24, 21, 19, 26]
27.33[26, 26, 24, 24, 24, 21, 19, 22]
27.353[26, 29, 23, 24, 25, 21, 18, 23]
27.383[27, 30, 24, 25, 26, 22, 23, 24]
27.39[27, 31, 23, 22, 26, 25, 24, 26]
27.412[26, 30, 25, 23, 27, 25, 22, 22]
27.434[26, 29, 25, 24, 28, 25, 24, 22]
27.45[26, 26, 24, 24, 25, 24, 23, 22]
27.472[27, 26, 24, 24, 26, 22, 20, 21]
27.495[31, 25, 24, 24, 24, 19, 21, 22]
27.51[28, 26, 23, 23, 22, 21, 21, 23]
27.54[30, 27, 23, 23, 22, 23, 18, 24]
27.555[31, 26, 23, 24, 24, 25, 19, 26]
27.57[29, 25, 27, 24, 23, 25, 19, 25]
27.592[31, 28, 27, 25, 25, 25, 20, 25]
27.615[31, 26, 26, 26, 27, 24, 20, 24]
27.63[33, 26, 29, 25, 28, 23, 21, 22]
27.653[32, 26, 28, 24, 27, 21, 20, 19]
27.675[33, 27, 25, 24, 28, 22, 21, 20]
27.69[28, 29, 26, 24, 27, 21, 21, 19]
27.712[29, 29, 27, 24, 26, 20, 20, 19]
27.735[24, 29, 25, 24, 26, 17, 18, 20]
27.75[26, 29, 24, 24, 27, 19, 20, 21]
27.773[24, 29, 24, 24, 27, 19, 19, 20]
27.795[24, 25, 24, 26, 28, 20, 19, 20]
27.817[25, 26, 24, 24, 28, 21, 20, 20]
27.832[27, 30, 23, 26, 28, 22, 22, 22]
27.855[27, 31, 24, 25, 27, 23, 21, 23]
27.87[26, 30, 23, 25, 27, 23, 22, 23]
27.892[26, 30, 23, 24, 25, 23, 20, 24]
27.915[24, 26, 24, 27, 25, 23, 22, 25]
27.93[26, 23, 24, 26, 24, 22, 21, 22]
27.952[24, 23, 25, 27, 25, 21, 23, 19]
27.975[25, 24, 27, 27, 24, 18, 22, 23]
27.99[25, 23, 28, 26, 24, 22, 23, 20]
28.012[26, 28, 29, 26, 23, 21, 22, 19]
28.034[24, 27, 28, 25, 23, 20, 23, 21]
28.057[28, 28, 28, 24, 25, 21, 21, 22]
28.073[31, 28, 27, 25, 25, 24, 21, 19]
28.094[31, 28, 27, 27, 27, 22, 21, 20]
28.117[31, 25, 25, 23, 28, 23, 20, 22]
28.132[32, 27, 24, 25, 28, 24, 19, 21]
28.154[29, 25, 23, 25, 25, 24, 21, 22]
28.177[26, 25, 21, 25, 26, 23, 22, 22]
28.192[26, 25, 21, 23, 25, 23, 22, 21]
28.216[25, 26, 22, 24, 27, 21, 23, 20]
28.237[22, 23, 23, 25, 28, 21, 23, 21]
28.252[22, 24, 23, 25, 28, 22, 20, 21]
28.274[22, 24, 23, 23, 28, 21, 20, 21]
28.297[27, 22, 23, 24, 27, 20, 20, 25]
28.312[27, 22, 22, 25, 25, 23, 18, 26]
28.334[28, 24, 24, 22, 25, 22, 20, 26]
28.357[28, 24, 25, 24, 24, 21, 24, 25]
28.381[30, 25, 26, 26, 24, 24, 22, 26]
28.394[28, 26, 24, 25, 24, 24, 22, 24]
28.417[27, 24, 23, 26, 23, 22, 22, 23]
28.432[25, 24, 24, 28, 23, 23, 21, 23]
28.454[26, 25, 25, 27, 25, 26, 19, 22]
28.477[28, 23, 25, 25, 23, 23, 21, 23]
28.492[27, 22, 26, 26, 24, 22, 21, 23]
28.514[30, 22, 25, 23, 26, 23, 22, 22]
28.537[28, 21, 27, 24, 27, 23, 25, 22]
28.552[30, 21, 25, 25, 26, 22, 24, 24]
28.574[27, 23, 26, 26, 27, 23, 24, 25]
28.597[25, 26, 27, 26, 29, 25, 25, 23]
28.612[24, 25, 27, 27, 27, 23, 24, 24]
28.634[26, 29, 23, 27, 25, 23, 21, 25]
28.657[26, 30, 23, 27, 27, 23, 25, 24]
28.672[25, 28, 22, 27, 28, 23, 24, 22]
28.694[25, 27, 21, 26, 26, 21, 23, 23]
28.717[26, 28, 24, 26, 26, 22, 24, 21]
28.732[25, 27, 23, 26, 27, 22, 23, 19]
28.754[26, 26, 28, 24, 27, 20, 21, 18]
28.777[30, 26, 26, 25, 25, 18, 20, 21]
28.792[31, 25, 26, 28, 27, 19, 20, 22]
28.814[32, 24, 24, 27, 27, 19, 22, 23]
28.837[32, 23, 25, 26, 26, 20, 23, 24]
28.852[31, 24, 22, 28, 24, 22, 22, 24]
28.874[27, 26, 24, 25, 26, 22, 23, 26]
28.897[27, 26, 24, 21, 23, 24, 25, 25]
28.912[25, 25, 27, 21, 24, 23, 22, 25]
28.934[25, 26, 26, 23, 24, 24, 21, 25]
28.957[23, 25, 26, 22, 26, 24, 21, 25]
28.98[26, 22, 26, 22, 24, 25, 20, 22]
28.994[24, 23, 26, 24, 25, 22, 19, 22]
29.017[23, 23, 22, 25, 25, 23, 21, 20]
29.04[23, 26, 21, 24, 25, 21, 22, 19]
29.054[24, 25, 22, 25, 26, 18, 22, 19]
29.077[22, 26, 24, 27, 26, 20, 21, 17]
29.107[23, 26, 25, 26, 25, 21, 20, 19]
29.114[25, 30, 26, 25, 26, 19, 21, 20]
29.137[26, 27, 27, 25, 25, 23, 20, 19]
29.16[28, 28, 27, 23, 24, 22, 22, 22]
29.174[28, 29, 26, 22, 24, 22, 22, 24]
29.197[32, 30, 26, 24, 25, 22, 24, 25]
29.22[32, 29, 25, 24, 23, 22, 22, 26]
29.234[30, 29, 24, 25, 23, 21, 23, 28]
29.257[28, 27, 23, 24, 22, 21, 22, 26]
29.28[31, 26, 25, 26, 24, 20, 24, 25]
29.294[28, 25, 23, 27, 23, 22, 22, 22]
29.316[29, 25, 23, 28, 23, 23, 23, 22]
29.34[30, 25, 24, 27, 22, 20, 22, 20]
29.354[30, 26, 23, 27, 21, 21, 22, 18]
29.376[27, 27, 22, 26, 20, 21, 19, 20]
29.399[27, 27, 23, 23, 21, 20, 22, 18]
29.414[26, 26, 23, 24, 23, 21, 23, 20]
29.437[24, 25, 23, 24, 24, 21, 23, 21]
29.46[28, 26, 24, 24, 26, 23, 24, 22]
29.474[29, 24, 24, 24, 25, 23, 27, 21]
29.496[28, 24, 22, 25, 27, 22, 25, 23]
29.527[28, 25, 22, 23, 26, 23, 23, 22]
29.534[30, 27, 22, 26, 25, 25, 23, 21]
29.556[28, 26, 22, 25, 26, 25, 21, 22]
29.58[30, 25, 20, 24, 25, 25, 17, 21]
29.594[29, 25, 21, 24, 24, 24, 18, 22]
29.616[27, 24, 21, 24, 23, 24, 18, 22]
29.64[27, 21, 21, 23, 24, 21, 20, 23]
29.655[29, 24, 20, 24, 23, 18, 20, 24]
29.676[27, 25, 19, 24, 23, 22, 19, 25]
29.7[27, 24, 19, 24, 22, 25, 21, 23]
29.714[26, 25, 21, 26, 24, 27, 22, 22]
29.736[28, 29, 23, 25, 26, 28, 22, 25]
29.759[25, 27, 24, 25, 25, 28, 25, 24]
29.774[26, 28, 29, 27, 28, 27, 24, 23]
29.797[28, 28, 28, 27, 28, 24, 24, 23]
29.819[29, 28, 29, 28, 27, 20, 23, 24]
29.834[29, 28, 31, 29, 25, 21, 21, 19]
29.856[29, 26, 31, 28, 25, 20, 20, 20]
29.879[28, 27, 27, 29, 22, 19, 21, 20]
29.894[25, 29, 27, 29, 21, 19, 19, 20]
29.916[28, 30, 26, 27, 23, 20, 21, 22]
29.94[26, 26, 23, 25, 21, 19, 24, 21]
29.962[27, 27, 26, 26, 23, 20, 22, 21]
29.976[27, 27, 24, 24, 24, 22, 25, 21]
29.999[30, 25, 25, 23, 25, 24, 26, 21]
30.022[28, 25, 25, 22, 25, 24, 24, 18]
30.037[29, 27, 24, 23, 25, 24, 25, 21]
30.059[30, 32, 21, 22, 24, 24, 26, 22]
30.082[32, 30, 21, 22, 24, 22, 23, 22]
30.097[27, 29, 21, 21, 25, 21, 26, 25]
30.119[30, 31, 22, 20, 25, 22, 26, 26]
30.142[29, 29, 22, 19, 25, 22, 23, 23]
30.157[28, 25, 22, 20, 27, 22, 24, 23]
30.179[28, 25, 21, 19, 28, 22, 24, 24]
30.202[29, 25, 22, 20, 25, 21, 19, 22]
30.217[28, 22, 20, 20, 25, 19, 20, 21]
30.239[29, 23, 22, 22, 25, 19, 19, 23]
30.262[30, 22, 20, 22, 22, 18, 19, 22]
30.277[31, 22, 21, 22, 24, 19, 19, 21]
30.299[33, 23, 21, 23, 25, 20, 21, 24]
30.329[32, 22, 24, 24, 24, 24, 24, 24]
30.337[31, 25, 22, 23, 23, 23, 25, 23]
30.359[31, 25, 23, 24, 26, 25, 25, 25]
30.382[28, 26, 25, 26, 24, 23, 25, 23]
30.397[26, 26, 25, 26, 23, 24, 25, 22]
30.419[26, 28, 23, 27, 24, 21, 22, 21]
30.442[26, 27, 23, 27, 26, 23, 23, 20]
30.456[26, 26, 21, 27, 23, 23, 24, 19]
30.479[26, 25, 22, 27, 25, 26, 23, 20]
30.502[25, 25, 21, 26, 26, 24, 22, 19]
30.516[27, 24, 20, 24, 24, 24, 21, 19]
30.539[24, 25, 21, 25, 23, 23, 19, 20]
30.562[25, 28, 21, 23, 24, 23, 19, 20]
30.576[25, 28, 21, 21, 21, 21, 20, 21]
30.599[28, 26, 22, 20, 21, 21, 23, 21]
30.622[27, 25, 22, 23, 28, 25, 22, 23]
30.636[29, 24, 26, 23, 27, 25, 24, 22]
30.659[30, 22, 25, 24, 28, 24, 25, 24]
30.681[32, 26, 27, 26, 31, 23, 25, 23]
30.696[31, 27, 27, 27, 30, 24, 24, 27]
30.719[30, 28, 30, 28, 26, 21, 24, 24]
30.742[28, 26, 25, 25, 26, 21, 23, 25]
30.756[26, 27, 28, 27, 25, 20, 23, 24]
30.779[26, 28, 26, 26, 22, 22, 22, 25]
30.801[28, 28, 27, 25, 22, 22, 19, 23]
30.816[28, 27, 25, 25, 23, 22, 22, 23]
30.839[29, 28, 26, 24, 23, 22, 22, 22]
30.869[29, 26, 26, 23, 23, 22, 20, 22]
30.884[26, 23, 25, 23, 23, 20, 21, 20]
30.899[26, 24, 25, 23, 24, 21, 23, 17]
30.922[31, 28, 25, 21, 21, 23, 23, 18]
30.944[29, 29, 24, 22, 22, 24, 24, 18]
30.959[30, 29, 24, 24, 23, 25, 24, 20]
30.989[30, 30, 24, 23, 22, 25, 24, 21]
31.004[30, 28, 24, 25, 21, 25, 25, 23]
31.019[28, 29, 24, 25, 22, 23, 23, 24]
31.042[28, 28, 25, 25, 21, 23, 22, 25]
31.064[27, 28, 23, 24, 18, 22, 23, 24]
31.079[28, 27, 25, 24, 22, 24, 22, 24]
31.101[26, 27, 24, 24, 24, 21, 19, 22]
31.125[23, 26, 24, 24, 23, 21, 19, 21]
31.146[24, 24, 23, 25, 26, 19, 19, 20]
31.161[25, 26, 23, 24, 26, 21, 22, 18]
31.184[25, 27, 21, 27, 24, 20, 21, 19]
31.199[24, 26, 22, 27, 24, 21, 23, 19]
31.222[23, 25, 21, 27, 26, 22, 24, 19]
31.244[24, 27, 23, 26, 23, 22, 25, 18]
31.266[28, 31, 24, 26, 24, 20, 24, 23]
31.281[27, 30, 25, 23, 24, 20, 24, 23]
31.304[30, 32, 26, 27, 26, 24, 24, 24]
31.319[31, 31, 26, 26, 24, 23, 24, 25]
31.349[30, 30, 24, 25, 26, 24, 22, 25]
31.364[30, 30, 22, 25, 27, 25, 22, 21]
31.378[30, 31, 22, 28, 25, 23, 22, 19]
31.401[31, 30, 20, 23, 23, 20, 22, 18]
31.423[32, 32, 21, 25, 25, 23, 23, 17]
31.446[31, 31, 21, 26, 23, 22, 24, 17]
31.462[28, 27, 21, 25, 23, 21, 24, 19]
31.483[28, 25, 23, 24, 25, 21, 23, 18]
31.499[26, 26, 23, 26, 26, 22, 24, 19]
31.522[26, 25, 23, 29, 27, 23, 23, 21]
31.543[27, 28, 25, 27, 27, 24, 22, 21]
31.559[27, 30, 25, 28, 27, 25, 22, 22]
31.582[28, 30, 24, 28, 29, 25, 26, 24]
31.603[28, 28, 25, 27, 29, 24, 26, 23]
31.619[28, 28, 25, 23, 27, 21, 26, 24]
31.642[30, 26, 24, 24, 28, 21, 26, 27]
31.663[29, 30, 27, 26, 28, 23, 25, 26]
31.679[27, 31, 26, 26, 28, 23, 23, 26]
31.702[28, 33, 26, 26, 28, 23, 20, 27]
31.723[29, 32, 24, 26, 28, 23, 19, 24]
31.739[26, 32, 25, 27, 25, 22, 17, 20]
31.762[26, 26, 21, 26, 24, 20, 16, 21]
31.784[28, 26, 22, 25, 21, 22, 16, 19]
31.805[26, 25, 25, 26, 22, 21, 20, 19]
31.82[25, 26, 27, 28, 23, 22, 21, 20]
31.843[26, 28, 26, 26, 25, 23, 22, 23]
31.865[27, 29, 29, 26, 26, 25, 22, 22]
31.88[26, 28, 28, 26, 27, 25, 22, 24]
31.903[26, 26, 24, 23, 29, 24, 19, 24]
31.925[28, 27, 22, 22, 31, 25, 19, 23]
31.94[27, 26, 23, 24, 29, 24, 19, 22]
31.963[29, 26, 23, 23, 28, 22, 23, 24]
31.986[28, 27, 23, 22, 27, 21, 22, 23]
32.0[31, 27, 25, 24, 25, 26, 24, 23]
32.023[32, 26, 25, 23, 24, 25, 22, 23]
32.047[33, 25, 24, 21, 26, 26, 23, 21]
32.06[30, 26, 22, 23, 27, 27, 20, 21]
32.082[31, 24, 21, 25, 30, 27, 20, 22]
32.105[28, 24, 20, 26, 29, 24, 19, 21]
32.121[29, 27, 20, 28, 29, 24, 20, 22]
32.142[28, 26, 22, 29, 29, 24, 20, 25]
32.165[28, 24, 25, 29, 29, 23, 21, 24]
32.18[28, 29, 26, 29, 26, 22, 21, 21]
32.204[28, 29, 26, 28, 26, 21, 22, 23]
32.225[26, 28, 26, 26, 24, 20, 20, 24]
32.24[28, 29, 25, 25, 22, 18, 19, 23]
32.263[29, 29, 23, 24, 22, 19, 20, 23]
32.285[28, 27, 23, 24, 22, 20, 20, 23]
32.3[28, 28, 23, 22, 20, 21, 18, 21]
32.323[29, 27, 24, 23, 21, 21, 18, 20]
32.345[27, 28, 23, 22, 22, 21, 20, 19]
32.36[25, 27, 24, 22, 21, 22, 20, 19]
32.383[25, 28, 23, 22, 20, 22, 20, 24]
32.405[27, 27, 23, 23, 22, 22, 20, 24]
32.42[25, 27, 24, 24, 23, 21, 21, 23]
32.442[24, 26, 27, 26, 25, 21, 19, 22]
32.465[27, 27, 27, 25, 24, 20, 19, 22]
32.48[28, 27, 29, 25, 26, 22, 20, 19]
32.502[30, 27, 30, 24, 25, 24, 20, 21]
32.534[30, 27, 28, 24, 23, 23, 21, 22]
32.54[30, 25, 27, 24, 21, 24, 21, 22]
32.562[27, 27, 27, 23, 23, 24, 21, 22]
32.585[27, 26, 24, 22, 23, 22, 22, 22]
32.6[19, 25, 23, 25, 24, 21, 23, 22]
32.622[20, 26, 23, 25, 25, 22, 22, 21]
32.645[21, 27, 22, 25, 24, 19, 23, 22]
32.66[22, 26, 23, 28, 25, 19, 22, 22]
32.69[23, 25, 22, 30, 25, 20, 19, 21]
32.705[26, 26, 22, 30, 26, 23, 19, 20]
32.72[26, 26, 24, 29, 25, 22, 20, 22]
32.742[28, 26, 26, 30, 26, 23, 22, 22]
32.765[28, 25, 24, 28, 24, 23, 22, 22]
32.788[30, 28, 24, 26, 24, 23, 24, 23]
32.803[29, 31, 24, 25, 23, 20, 23, 22]
32.825[29, 31, 22, 26, 25, 22, 22, 21]
32.847[29, 30, 21, 23, 26, 21, 21, 21]
32.863[30, 29, 23, 23, 27, 22, 21, 19]
32.894[25, 25, 24, 23, 25, 23, 19, 20]
32.907[26, 24, 23, 22, 25, 22, 20, 20]
32.922[27, 27, 23, 23, 24, 22, 21, 22]
32.945[27, 28, 21, 23, 22, 22, 21, 21]
32.967[26, 30, 19, 24, 20, 21, 23, 23]
32.982[29, 31, 18, 25, 22, 19, 23, 22]
33.005[27, 27, 19, 25, 24, 20, 21, 21]
33.028[29, 25, 20, 22, 24, 21, 22, 19]
33.042[28, 25, 23, 25, 24, 24, 23, 20]
33.065[26, 25, 24, 25, 25, 24, 21, 20]
33.088[23, 25, 28, 25, 25, 24, 23, 20]
33.102[25, 26, 28, 26, 25, 26, 23, 21]
33.124[24, 26, 27, 27, 26, 26, 22, 22]
33.148[26, 25, 26, 25, 25, 22, 23, 23]
33.162[27, 23, 25, 24, 25, 22, 24, 23]
33.185[27, 25, 20, 24, 25, 20, 23, 23]
33.215[27, 25, 20, 24, 24, 18, 23, 23]
33.222[29, 26, 20, 24, 23, 18, 22, 22]
33.244[28, 26, 21, 26, 26, 19, 19, 20]
33.267[26, 26, 21, 26, 26, 21, 20, 20]
33.282[26, 25, 22, 26, 26, 25, 19, 21]
33.305[29, 24, 22, 26, 27, 26, 20, 24]
33.327[24, 23, 22, 26, 27, 26, 22, 24]
33.342[26, 24, 22, 25, 25, 26, 24, 25]
33.365[26, 25, 23, 29, 26, 24, 22, 25]
33.387[26, 27, 23, 27, 24, 23, 21, 25]
33.403[24, 28, 24, 28, 22, 22, 21, 24]
33.424[24, 28, 23, 28, 21, 24, 20, 23]
33.447[23, 27, 24, 25, 22, 25, 20, 23]
33.462[27, 27, 25, 23, 21, 25, 20, 22]
33.485[25, 26, 25, 25, 22, 24, 19, 21]
33.507[24, 28, 23, 25, 22, 23, 19, 23]
33.523[26, 28, 25, 26, 24, 21, 20, 23]
33.544[26, 29, 24, 27, 25, 18, 17, 24]
33.567[23, 28, 22, 27, 27, 22, 18, 24]
33.582[24, 28, 22, 25, 28, 22, 21, 25]
33.606[25, 26, 26, 25, 29, 23, 22, 24]
33.627[23, 27, 24, 25, 28, 22, 20, 25]
33.642[27, 25, 27, 26, 28, 24, 24, 26]
33.665[26, 26, 28, 27, 27, 22, 24, 25]
33.687[28, 27, 29, 27, 27, 22, 22, 24]
33.702[31, 26, 27, 27, 27, 22, 21, 23]
33.724[35, 28, 28, 26, 27, 23, 22, 23]
33.747[33, 31, 27, 26, 26, 21, 21, 19]
33.77[34, 30, 26, 24, 26, 21, 20, 22]
33.785[33, 31, 24, 26, 26, 20, 21, 21]
33.807[31, 31, 22, 24, 26, 19, 22, 20]
33.83[25, 28, 21, 24, 26, 20, 21, 23]
33.844[27, 25, 20, 24, 26, 21, 19, 22]
33.867[26, 29, 21, 25, 26, 22, 20, 21]
33.89[24, 27, 21, 23, 24, 21, 20, 20]
33.904[24, 25, 23, 23, 25, 22, 18, 23]
33.927[24, 30, 25, 24, 24, 21, 19, 23]
33.95[23, 31, 24, 23, 23, 21, 20, 24]
33.964[24, 28, 25, 27, 24, 21, 19, 25]
33.987[27, 32, 24, 27, 27, 22, 19, 25]
34.01[27, 32, 24, 28, 27, 20, 21, 23]
34.024[27, 29, 21, 26, 28, 20, 20, 20]
34.047[26, 28, 22, 26, 29, 20, 19, 20]
34.07[25, 27, 21, 22, 27, 19, 20, 22]
34.084[23, 22, 22, 21, 25, 19, 19, 22]
34.107[27, 24, 21, 22, 24, 21, 20, 21]
34.13[29, 28, 23, 23, 21, 24, 23, 23]
34.144[27, 27, 24, 23, 21, 24, 22, 23]
34.167[30, 29, 24, 24, 23, 24, 22, 23]
34.19[30, 30, 24, 26, 26, 27, 24, 25]
34.204[27, 28, 26, 25, 27, 26, 22, 25]
34.227[27, 24, 27, 26, 28, 23, 19, 25]
34.25[31, 25, 27, 27, 28, 24, 20, 23]
34.264[28, 23, 27, 27, 27, 24, 20, 24]
34.286[28, 24, 28, 26, 25, 20, 20, 21]
34.31[26, 25, 27, 26, 24, 20, 22, 22]
34.324[25, 24, 25, 24, 24, 22, 22, 20]
34.346[21, 26, 24, 24, 25, 21, 23, 20]
34.37[25, 28, 25, 23, 26, 21, 22, 20]
34.384[25, 27, 24, 22, 25, 22, 22, 22]
34.407[28, 26, 23, 23, 26, 21, 21, 22]
34.43[29, 26, 24, 24, 26, 20, 23, 22]
34.444[28, 23, 24, 25, 25, 23, 20, 23]
34.467[25, 21, 23, 25, 26, 22, 23, 21]
34.49[26, 21, 22, 25, 28, 24, 21, 19]
34.504[27, 29, 22, 26, 29, 24, 20, 19]
34.526[24, 28, 23, 27, 29, 24, 20, 19]
34.55[25, 30, 24, 25, 29, 22, 22, 19]
34.564[26, 30, 24, 25, 27, 23, 20, 21]
34.586[26, 31, 25, 26, 26, 22, 19, 22]
34.61[24, 26, 24, 24, 21, 23, 20, 23]
34.624[26, 29, 24, 23, 22, 21, 18, 23]
34.647[29, 27, 23, 23, 21, 23, 19, 24]
34.67[29, 29, 22, 23, 22, 23, 20, 21]
34.692[28, 29, 23, 23, 24, 24, 21, 22]
34.706[26, 27, 22, 22, 28, 23, 21, 21]
34.73[26, 25, 22, 22, 26, 24, 21, 21]
34.752[24, 27, 23, 22, 28, 22, 21, 21]
34.766[23, 25, 23, 22, 29, 24, 20, 23]
34.789[22, 25, 23, 21, 27, 22, 20, 22]
34.812[27, 24, 23, 23, 24, 23, 19, 23]
34.834[27, 26, 24, 25, 26, 22, 22, 25]
34.85[27, 24, 24, 24, 25, 23, 20, 23]
34.873[29, 25, 25, 27, 24, 23, 22, 24]
34.886[32, 26, 27, 27, 22, 24, 24, 26]
34.91[30, 29, 26, 26, 23, 24, 24, 26]
34.932[28, 30, 25, 28, 24, 24, 22, 24]
34.946[28, 29, 26, 28, 24, 23, 22, 24]
34.97[31, 31, 25, 27, 24, 20, 21, 23]
34.992[27, 29, 23, 28, 26, 20, 19, 20]
35.014[27, 29, 23, 26, 26, 19, 18, 22]
35.029[29, 32, 27, 24, 23, 18, 18, 22]
35.052[27, 30, 25, 26, 24, 20, 21, 23]
35.066[22, 28, 25, 26, 25, 20, 19, 22]
35.089[25, 28, 26, 25, 23, 20, 20, 24]
35.112[25, 28, 29, 25, 24, 22, 22, 23]
35.126[26, 24, 28, 27, 25, 24, 23, 22]
35.15[28, 26, 30, 26, 25, 24, 22, 23]
35.172[28, 26, 29, 28, 23, 24, 23, 22]
35.186[28, 26, 30, 30, 24, 24, 21, 20]
35.209[29, 25, 27, 29, 23, 23, 21, 21]
35.232[26, 24, 24, 29, 23, 23, 19, 20]
35.246[27, 24, 24, 30, 25, 23, 19, 19]
35.27[27, 26, 24, 27, 26, 24, 19, 23]
35.292[26, 25, 22, 27, 24, 25, 20, 23]
35.306[24, 22, 24, 27, 27, 25, 18, 20]
35.329[25, 23, 25, 28, 27, 26, 20, 21]
35.352[26, 24, 24, 26, 26, 26, 20, 23]
35.366[27, 26, 26, 26, 25, 25, 21, 20]
35.389[26, 26, 26, 27, 26, 26, 22, 23]
35.412[28, 29, 26, 28, 23, 23, 22, 24]
35.426[28, 29, 25, 26, 24, 23, 21, 24]
35.449[26, 31, 26, 26, 24, 22, 20, 22]
35.472[25, 30, 25, 26, 26, 21, 18, 22]
35.486[25, 30, 25, 25, 26, 20, 18, 22]
35.509[27, 28, 24, 23, 27, 21, 19, 23]
35.532[27, 26, 24, 23, 26, 19, 19, 23]
35.546[26, 24, 24, 23, 26, 18, 21, 23]
35.569[27, 22, 24, 25, 25, 22, 22, 22]
35.592[27, 23, 23, 24, 23, 23, 22, 22]
35.606[25, 22, 23, 24, 24, 22, 22, 19]
35.629[25, 24, 24, 24, 24, 23, 22, 19]
35.652[28, 22, 24, 26, 26, 24, 21, 21]
35.674[27, 24, 23, 25, 26, 23, 21, 23]
35.689[30, 25, 24, 27, 27, 23, 19, 24]
35.712[28, 28, 25, 26, 28, 24, 19, 25]
35.734[31, 29, 26, 27, 28, 25, 21, 24]
35.749[30, 28, 25, 27, 26, 25, 20, 26]
35.771[30, 28, 25, 27, 26, 23, 18, 23]
35.794[28, 27, 24, 27, 25, 24, 21, 23]
35.81[28, 25, 24, 27, 24, 24, 21, 25]
35.831[25, 24, 22, 28, 24, 25, 21, 25]
35.854[25, 26, 23, 26, 27, 24, 23, 22]
35.869[27, 23, 24, 25, 26, 25, 23, 23]
35.892[26, 25, 26, 24, 28, 24, 22, 22]
35.914[29, 25, 25, 25, 27, 24, 24, 18]
35.929[31, 29, 27, 26, 28, 22, 21, 17]
35.951[30, 28, 28, 26, 27, 24, 19, 17]
35.974[30, 29, 27, 28, 27, 22, 21, 19]
35.989[29, 28, 27, 28, 25, 25, 24, 21]
36.011[27, 30, 27, 27, 27, 24, 23, 21]
36.034[26, 28, 26, 25, 28, 26, 23, 22]
36.049[26, 29, 24, 24, 26, 25, 25, 22]
36.071[24, 30, 24, 24, 26, 24, 25, 21]
36.094[24, 30, 23, 23, 26, 22, 23, 19]
36.109[22, 30, 23, 22, 25, 22, 22, 20]
36.131[22, 29, 22, 20, 24, 23, 23, 19]
36.154[22, 28, 21, 22, 27, 23, 22, 19]
36.168[21, 28, 20, 23, 28, 23, 21, 18]
36.191[23, 28, 21, 25, 29, 23, 20, 21]
36.214[23, 26, 20, 26, 30, 23, 20, 19]
36.228[24, 27, 20, 27, 30, 20, 21, 20]
36.251[24, 28, 19, 28, 27, 22, 20, 22]
36.274[25, 28, 21, 28, 27, 24, 21, 23]
36.288[26, 27, 24, 27, 26, 26, 22, 21]
36.311[26, 29, 25, 27, 22, 26, 22, 22]
36.334[26, 29, 24, 27, 23, 27, 20, 23]
36.363[28, 28, 24, 26, 24, 25, 18, 24]
36.372[29, 26, 22, 25, 25, 24, 19, 25]
36.393[26, 26, 21, 26, 24, 26, 21, 24]
36.416[28, 28, 18, 26, 25, 26, 21, 26]
36.432[26, 26, 20, 26, 25, 25, 22, 26]
36.453[26, 29, 20, 27, 23, 26, 23, 24]
36.476[27, 29, 22, 28, 22, 26, 25, 24]
36.492[27, 29, 19, 27, 21, 24, 24, 24]
36.513[26, 25, 22, 26, 21, 23, 24, 25]
36.536[28, 27, 23, 29, 22, 25, 24, 24]
36.552[26, 25, 25, 27, 24, 24, 27, 26]
36.573[28, 28, 26, 29, 28, 22, 27, 25]
36.595[30, 27, 29, 30, 29, 24, 29, 25]
36.612[31, 30, 26, 29, 32, 29, 30, 25]
36.633[29, 30, 28, 25, 32, 29, 30, 26]
36.655[29, 28, 26, 25, 30, 30, 28, 23]
36.672[28, 26, 28, 22, 27, 30, 24, 24]
36.693[29, 27, 26, 24, 30, 28, 25, 24]
36.715[27, 24, 29, 25, 29, 23, 24, 23]
36.732[28, 24, 31, 26, 30, 23, 24, 23]
36.753[28, 24, 32, 28, 34, 21, 23, 22]
36.777[27, 24, 32, 27, 35, 23, 27, 22]
36.792[25, 24, 37, 26, 32, 27, 24, 22]
36.813[25, 24, 34, 27, 31, 26, 22, 23]
36.835[25, 22, 32, 28, 31, 25, 22, 23]
36.852[46, 26, 31, 26, 27, 31, 22, 24]
36.873[47, 26, 28, 27, 28, 31, 18, 24]
36.897[50, 30, 25, 30, 29, 27, 19, 23]
36.912[49, 32, 28, 38, 31, 31, 20, 21]
36.933[50, 35, 28, 41, 29, 32, 19, 20]
36.955[35, 31, 31, 45, 28, 30, 24, 20]
36.979[35, 30, 31, 47, 24, 29, 25, 19]
36.993[30, 27, 27, 47, 23, 31, 25, 24]
37.015[30, 26, 24, 39, 19, 28, 27, 29]
37.031[30, 22, 25, 37, 22, 26, 27, 31]
37.053[27, 26, 23, 31, 25, 26, 23, 32]
37.083[23, 29, 23, 29, 24, 28, 19, 34]
37.092[24, 32, 25, 28, 25, 28, 19, 31]
37.113[25, 34, 28, 28, 25, 36, 21, 26]
37.135[25, 36, 27, 26, 22, 35, 25, 26]
37.15[25, 35, 27, 31, 24, 34, 24, 24]
37.173[31, 33, 29, 28, 27, 32, 29, 20]
37.195[32, 30, 32, 27, 31, 32, 33, 21]
37.21[32, 30, 30, 27, 35, 23, 34, 21]
37.233[31, 32, 30, 28, 35, 32, 34, 21]
37.255[29, 33, 29, 25, 37, 37, 35, 22]
37.27[24, 31, 39, 28, 36, 42, 32, 23]
37.293[25, 31, 47, 29, 38, 43, 31, 23]
37.316[28, 29, 53, 28, 35, 44, 31, 23]
37.33[27, 33, 57, 31, 39, 37, 34, 20]
37.353[30, 38, 58, 29, 35, 36, 36, 20]
37.375[33, 40, 50, 27, 34, 33, 40, 25]
37.39[31, 39, 42, 25, 27, 32, 43, 25]
37.413[27, 39, 36, 28, 29, 31, 40, 25]
37.435[31, 34, 34, 25, 27, 35, 36, 25]
37.45[31, 26, 42, 27, 28, 41, 35, 27]
37.472[30, 23, 48, 27, 32, 40, 31, 22]
37.495[31, 29, 47, 28, 34, 45, 27, 20]
37.526[30, 28, 46, 32, 33, 49, 33, 21]
37.532[28, 27, 43, 30, 32, 49, 33, 21]
37.556[26, 27, 38, 30, 33, 41, 33, 19]
37.578[27, 31, 33, 30, 29, 44, 31, 21]
37.593[30, 27, 33, 31, 29, 39, 28, 22]
37.615[34, 26, 32, 25, 28, 37, 21, 29]
37.638[37, 28, 36, 26, 27, 36, 26, 29]
37.653[39, 33, 33, 22, 26, 36, 23, 30]
37.675[38, 29, 32, 24, 29, 32, 25, 30]
37.698[37, 31, 33, 26, 32, 33, 33, 32]
37.712[35, 32, 33, 26, 42, 30, 36, 27]
37.735[35, 32, 35, 27, 42, 27, 34, 27]
37.758[32, 29, 39, 29, 40, 28, 35, 29]
37.773[35, 36, 41, 27, 43, 38, 37, 29]
37.795[34, 35, 43, 26, 40, 47, 33, 27]
37.818[37, 36, 44, 26, 32, 49, 36, 28]
37.833[36, 37, 42, 29, 33, 51, 43, 29]
37.855[36, 33, 37, 28, 35, 63, 47, 25]
37.878[36, 31, 35, 29, 31, 64, 45, 25]
37.9[38, 31, 32, 27, 31, 60, 46, 27]
37.915[36, 33, 30, 27, 29, 62, 42, 24]
37.937[34, 32, 26, 27, 30, 64, 35, 27]
37.952[32, 34, 27, 28, 34, 52, 33, 33]
37.975[29, 33, 29, 29, 35, 54, 36, 36]
37.997[29, 38, 29, 30, 35, 51, 36, 35]
38.012[27, 37, 33, 30, 46, 56, 40, 39]
38.035[27, 38, 32, 32, 55, 55, 43, 37]
38.058[30, 38, 36, 31, 53, 55, 46, 32]
38.08[31, 38, 36, 30, 53, 49, 45, 31]
38.095[30, 35, 35, 29, 54, 49, 44, 33]
38.125[33, 34, 34, 32, 44, 37, 47, 27]
38.132[33, 33, 37, 29, 33, 34, 50, 28]
38.155[36, 34, 38, 31, 32, 35, 51, 29]
38.185[36, 33, 36, 30, 34, 30, 51, 27]
38.192[37, 30, 39, 34, 34, 38, 53, 28]
38.215[36, 31, 41, 33, 39, 40, 53, 28]
38.237[36, 31, 39, 33, 42, 40, 49, 29]
38.252[37, 35, 36, 35, 42, 44, 41, 32]
38.275[38, 36, 40, 36, 39, 48, 42, 31]
38.297[37, 38, 38, 36, 39, 42, 43, 29]
38.312[36, 37, 38, 34, 34, 45, 34, 29]
38.335[34, 36, 36, 36, 31, 43, 34, 28]
38.357[35, 32, 35, 38, 33, 39, 38, 26]
38.372[37, 29, 34, 42, 34, 31, 38, 31]
38.394[38, 30, 31, 38, 34, 31, 33, 30]
38.417[37, 31, 27, 37, 35, 26, 38, 33]
38.432[37, 30, 26, 35, 35, 28, 37, 33]
38.454[33, 30, 33, 31, 32, 31, 33, 33]
38.477[30, 31, 31, 24, 30, 34, 38, 28]
38.5[28, 28, 34, 23, 30, 37, 37, 27]
38.514[29, 30, 36, 27, 34, 42, 33, 24]
38.537[32, 31, 36, 26, 33, 42, 32, 26]
38.56[31, 29, 32, 26, 32, 40, 33, 27]
38.574[32, 30, 32, 26, 33, 44, 25, 31]
38.597[42, 32, 33, 27, 35, 44, 24, 31]
38.619[41, 31, 33, 23, 29, 40, 27, 34]
38.636[41, 34, 40, 25, 29, 39, 28, 31]
38.657[40, 35, 39, 25, 32, 42, 29, 31]
38.68[40, 37, 39, 26, 32, 35, 31, 30]
38.694[31, 36, 36, 26, 28, 33, 32, 30]
38.718[32, 35, 34, 25, 28, 38, 28, 29]
38.739[30, 34, 24, 25, 29, 36, 30, 30]
38.754[32, 34, 32, 25, 25, 37, 37, 28]
38.777[29, 30, 30, 26, 28, 41, 35, 27]
38.8[29, 33, 42, 28, 29, 38, 34, 26]
38.814[27, 33, 46, 29, 32, 36, 34, 24]
38.837[28, 37, 47, 29, 32, 38, 36, 24]
38.859[30, 36, 42, 27, 36, 34, 28, 26]
38.874[32, 36, 44, 24, 37, 29, 31, 25]
38.897[30, 33, 33, 23, 38, 32, 33, 28]
38.92[35, 31, 30, 27, 37, 33, 34, 28]
38.934[33, 30, 29, 28, 36, 35, 32, 27]
38.957[35, 30, 28, 29, 34, 34, 32, 24]
38.98[35, 33, 26, 28, 35, 33, 30, 25]
38.994[36, 32, 27, 29, 34, 31, 32, 21]
39.026[32, 32, 26, 28, 32, 28, 30, 19]
39.04[33, 31, 29, 25, 33, 25, 28, 20]
39.054[31, 27, 30, 25, 31, 27, 27, 24]
39.077[31, 28, 32, 27, 24, 30, 28, 22]
39.1[30, 29, 33, 25, 22, 33, 25, 22]
39.114[31, 31, 33, 26, 24, 33, 27, 23]
39.137[34, 29, 29, 26, 25, 32, 28, 26]
39.16[34, 29, 31, 27, 26, 36, 29, 24]
39.174[35, 28, 29, 30, 31, 34, 27, 24]
39.197[36, 27, 29, 30, 31, 33, 26, 26]
39.22[35, 34, 29, 28, 31, 32, 23, 26]
39.243[33, 33, 29, 29, 31, 32, 27, 23]
39.257[30, 34, 28, 27, 30, 27, 24, 22]
39.279[28, 32, 27, 21, 27, 27, 26, 25]
39.294[27, 33, 28, 22, 27, 23, 30, 25]
39.317[27, 24, 26, 23, 26, 28, 30, 25]
39.34[26, 27, 28, 23, 25, 29, 27, 25]
39.354[27, 31, 28, 25, 28, 29, 28, 26]
39.377[26, 30, 28, 26, 26, 30, 28, 26]
39.4[27, 31, 26, 25, 25, 31, 23, 23]
39.422[28, 31, 26, 24, 25, 25, 23, 26]
39.437[30, 28, 27, 25, 30, 26, 21, 26]
39.46[29, 28, 27, 24, 30, 25, 21, 26]
39.482[32, 28, 29, 25, 30, 27, 20, 28]
39.497[30, 29, 27, 25, 35, 29, 22, 31]
39.52[32, 29, 26, 26, 35, 28, 22, 29]
39.542[31, 32, 29, 26, 30, 29, 22, 29]
39.557[30, 33, 28, 25, 28, 29, 23, 29]
39.579[27, 32, 26, 25, 29, 28, 22, 27]
39.602[28, 32, 28, 25, 26, 26, 23, 26]
39.616[24, 33, 30, 25, 28, 25, 25, 23]
39.64[26, 32, 26, 26, 28, 22, 25, 24]
39.662[28, 31, 29, 29, 28, 22, 25, 25]
39.677[30, 31, 29, 28, 26, 23, 25, 24]
39.707[31, 31, 27, 30, 26, 24, 22, 25]
39.722[30, 30, 26, 29, 26, 26, 21, 25]
39.736[32, 31, 28, 27, 28, 26, 19, 22]
39.76[31, 28, 24, 25, 26, 31, 17, 21]
39.782[31, 29, 25, 24, 28, 30, 18, 19]
39.797[28, 30, 26, 23, 27, 30, 20, 17]
39.82[30, 30, 25, 21, 23, 28, 22, 18]
39.842[25, 29, 24, 24, 24, 30, 23, 24]
39.857[25, 30, 26, 24, 25, 23, 25, 23]
39.88[26, 31, 26, 27, 24, 22, 25, 26]
39.902[26, 30, 25, 26, 23, 28, 23, 27]
39.916[26, 30, 26, 28, 26, 28, 20, 27]
39.947[31, 30, 25, 25, 25, 32, 21, 23]
39.962[30, 30, 24, 24, 26, 34, 22, 25]
39.976[33, 33, 22, 23, 26, 36, 19, 24]
40.0[33, 32, 20, 26, 27, 31, 22, 26]
40.022[34, 34, 23, 26, 26, 32, 25, 24]
40.036[30, 33, 24, 25, 28, 28, 25, 26]
40.059[29, 31, 25, 26, 27, 25, 25, 24]
40.082[24, 29, 25, 27, 26, 22, 26, 27]
40.096[31, 32, 31, 28, 26, 22, 25, 26]
40.12[33, 29, 28, 27, 29, 22, 22, 27]
40.142[31, 27, 29, 30, 28, 22, 22, 25]
40.156[32, 29, 27, 29, 28, 23, 20, 25]
40.18[33, 27, 27, 27, 29, 25, 22, 27]
40.202[28, 30, 24, 23, 29, 25, 23, 26]
40.217[27, 31, 26, 24, 25, 22, 22, 26]
40.24[27, 32, 25, 22, 28, 21, 22, 26]
40.262[26, 30, 26, 23, 29, 22, 24, 27]
40.276[25, 31, 27, 24, 28, 21, 23, 21]
40.299[22, 27, 27, 26, 28, 22, 22, 21]
40.322[27, 25, 27, 26, 29, 24, 23, 23]
40.336[26, 26, 25, 25, 24, 25, 23, 22]
40.359[26, 27, 25, 26, 24, 22, 22, 23]
40.382[28, 29, 25, 24, 24, 24, 22, 22]
40.404[32, 25, 24, 21, 23, 24, 22, 25]
40.42[31, 24, 23, 19, 25, 25, 22, 23]
40.442[30, 25, 26, 23, 26, 26, 20, 24]
40.464[33, 25, 26, 24, 24, 27, 22, 23]
40.479[31, 24, 27, 24, 25, 26, 19, 25]
40.502[27, 28, 26, 28, 24, 24, 22, 23]
40.524[25, 30, 26, 29, 23, 26, 21, 23]
40.539[31, 33, 25, 28, 22, 25, 24, 23]
40.562[30, 35, 27, 27, 24, 26, 21, 24]
40.585[30, 33, 27, 28, 24, 26, 22, 25]
40.599[31, 32, 28, 26, 25, 26, 22, 26]
40.622[32, 33, 28, 26, 25, 22, 24, 25]
40.644[32, 28, 27, 26, 25, 22, 22, 25]
40.659[31, 27, 26, 26, 25, 22, 22, 25]
40.682[34, 27, 25, 26, 25, 22, 26, 23]
40.704[34, 25, 24, 27, 29, 23, 23, 22]
40.719[32, 25, 26, 27, 28, 23, 21, 23]
40.742[29, 28, 25, 26, 29, 23, 20, 23]
40.764[28, 27, 24, 24, 29, 22, 21, 22]
40.778[28, 28, 25, 25, 28, 24, 17, 21]
40.802[26, 27, 25, 24, 26, 24, 19, 21]
40.825[25, 28, 24, 23, 27, 25, 21, 22]
40.839[26, 24, 24, 24, 28, 25, 23, 24]
40.862[27, 26, 25, 26, 28, 27, 24, 23]
40.884[27, 26, 24, 26, 29, 25, 24, 23]
40.898[27, 27, 24, 26, 27, 24, 23, 23]
40.922[30, 25, 25, 26, 26, 24, 21, 21]
40.944[27, 26, 25, 26, 25, 24, 21, 22]
40.958[25, 23, 24, 24, 23, 22, 19, 23]
40.989[27, 23, 24, 23, 22, 20, 19, 22]
41.004[29, 26, 26, 21, 23, 23, 20, 23]
41.018[27, 25, 25, 21, 26, 22, 20, 23]
41.042[29, 26, 25, 23, 26, 23, 20, 21]
41.064[30, 28, 26, 23, 26, 23, 20, 22]
41.079[27, 27, 26, 23, 27, 24, 20, 23]
41.102[24, 24, 21, 26, 26, 24, 21, 22]
41.132[28, 24, 22, 27, 25, 24, 21, 23]
41.138[26, 23, 23, 26, 26, 24, 26, 21]
41.162[28, 25, 22, 28, 27, 24, 25, 19]
41.184[28, 24, 24, 28, 26, 27, 26, 19]
41.198[29, 28, 23, 26, 26, 26, 25, 19]
41.222[26, 28, 23, 23, 25, 27, 24, 18]
41.244[27, 29, 21, 22, 22, 27, 20, 24]
41.259[26, 29, 23, 23, 23, 27, 21, 25]
41.282[28, 30, 22, 23, 23, 26, 21, 23]
41.303[26, 27, 24, 23, 23, 26, 20, 24]
41.326[26, 28, 26, 23, 25, 23, 20, 23]
41.342[25, 26, 25, 23, 25, 24, 20, 20]
41.363[28, 23, 23, 21, 23, 22, 23, 19]
41.393[25, 24, 24, 23, 22, 25, 23, 21]
41.402[30, 24, 25, 25, 26, 25, 23, 23]
41.423[30, 21, 26, 28, 26, 26, 25, 23]
41.446[31, 26, 26, 30, 26, 25, 25, 23]
41.462[28, 27, 27, 28, 27, 26, 22, 24]
41.485[32, 28, 27, 27, 29, 21, 21, 24]
41.506[28, 29, 25, 24, 27, 21, 21, 21]
41.522[27, 30, 22, 22, 26, 19, 18, 22]
41.543[28, 28, 22, 20, 26, 22, 19, 20]
41.566[28, 28, 23, 26, 28, 21, 19, 19]
41.582[24, 25, 22, 25, 26, 22, 20, 18]
41.603[23, 25, 24, 28, 25, 20, 20, 17]
41.626[25, 26, 25, 28, 26, 23, 23, 16]
41.649[24, 23, 25, 28, 30, 23, 24, 17]
41.663[26, 25, 25, 23, 30, 25, 23, 18]
41.685[25, 25, 27, 25, 30, 27, 24, 18]
41.702[26, 27, 27, 23, 31, 27, 24, 21]
41.723[26, 30, 26, 21, 32, 26, 22, 21]
41.746[25, 30, 25, 21, 29, 23, 22, 21]
41.762[21, 27, 23, 21, 28, 25, 23, 21]
41.783[22, 27, 23, 23, 29, 24, 20, 22]
41.806[22, 26, 25, 23, 28, 25, 22, 21]
41.822[25, 19, 25, 22, 24, 25, 20, 21]
41.843[26, 20, 25, 23, 25, 27, 20, 23]
41.866[29, 24, 26, 24, 25, 25, 21, 23]
41.882[30, 23, 26, 23, 25, 23, 21, 23]
41.903[31, 26, 23, 24, 26, 23, 21, 21]
41.927[28, 28, 25, 24, 27, 23, 24, 22]
41.942[29, 28, 27, 25, 27, 20, 23, 20]
41.963[25, 25, 27, 25, 27, 20, 22, 18]
41.986[24, 28, 26, 26, 29, 22, 24, 19]
42.002[23, 25, 26, 25, 29, 21, 23, 20]
42.023[28, 26, 26, 25, 28, 23, 20, 22]
42.045[26, 25, 24, 25, 27, 26, 21, 24]
42.068[28, 27, 23, 23, 26, 25, 21, 25]
42.083[32, 26, 23, 22, 23, 23, 20, 25]
42.105[33, 27, 23, 21, 22, 23, 19, 24]
42.122[28, 26, 23, 22, 24, 23, 21, 23]
42.143[31, 27, 23, 22, 23, 21, 20, 21]
42.165[32, 26, 24, 24, 25, 20, 20, 20]
42.182[31, 27, 26, 27, 26, 22, 19, 21]
42.203[30, 27, 25, 26, 25, 23, 21, 22]
42.225[31, 27, 26, 27, 26, 23, 20, 22]
42.248[29, 27, 25, 28, 27, 24, 20, 22]
42.263[27, 28, 26, 28, 27, 25, 22, 22]
42.286[26, 27, 24, 26, 24, 21, 24, 22]
42.308[29, 27, 25, 27, 25, 22, 22, 20]
42.323[30, 26, 23, 26, 25, 25, 22, 20]
42.345[31, 28, 24, 24, 24, 23, 22, 20]
42.368[29, 25, 24, 27, 24, 24, 21, 18]
42.383[28, 25, 24, 25, 26, 25, 19, 20]
42.407[23, 24, 24, 26, 25, 24, 20, 21]
42.428[27, 26, 23, 25, 25, 22, 20, 23]
42.443[26, 24, 25, 26, 25, 24, 20, 23]
42.465[27, 25, 26, 24, 26, 22, 21, 25]
42.488[27, 23, 26, 28, 25, 23, 24, 22]
42.503[30, 23, 27, 27, 27, 23, 23, 23]
42.527[26, 22, 27, 28, 25, 20, 22, 22]
42.548[25, 22, 27, 27, 25, 20, 22, 23]
42.563[29, 23, 26, 26, 25, 22, 21, 22]
42.585[30, 24, 25, 24, 24, 22, 17, 22]
42.608[28, 26, 24, 25, 23, 21, 17, 21]
42.622[31, 25, 22, 24, 24, 23, 20, 25]
42.645[29, 24, 21, 25, 23, 23, 20, 23]
42.676[26, 23, 21, 25, 23, 24, 19, 23]
42.682[24, 25, 22, 25, 25, 23, 21, 24]
42.705[27, 21, 21, 23, 25, 23, 22, 25]
42.728[23, 23, 21, 23, 24, 23, 23, 23]
42.742[27, 24, 24, 23, 24, 21, 23, 24]
42.765[30, 26, 24, 25, 23, 21, 24, 25]
42.787[29, 26, 24, 26, 23, 23, 25, 23]
42.803[30, 30, 25, 25, 26, 24, 25, 21]
42.834[31, 30, 25, 26, 28, 25, 24, 21]
42.847[29, 30, 22, 26, 29, 25, 23, 20]
42.863[26, 29, 22, 26, 29, 26, 22, 19]
42.885[27, 28, 23, 24, 29, 23, 22, 19]
42.908[24, 26, 23, 26, 27, 25, 22, 18]
42.922[26, 27, 23, 24, 26, 23, 20, 18]
42.946[27, 26, 24, 23, 26, 24, 23, 21]
42.967[30, 26, 24, 22, 24, 23, 23, 23]
42.982[30, 25, 24, 22, 24, 23, 20, 24]
43.005[28, 26, 24, 21, 24, 19, 22, 24]
43.027[28, 24, 23, 21, 23, 20, 23, 25]
43.042[28, 25, 24, 23, 23, 19, 21, 22]
43.065[27, 25, 27, 22, 23, 21, 22, 20]
43.087[29, 25, 26, 22, 23, 22, 24, 18]
43.102[30, 25, 26, 23, 23, 21, 22, 18]
43.125[27, 26, 28, 24, 23, 23, 21, 18]
43.147[27, 26, 27, 23, 24, 23, 21, 19]
43.162[24, 26, 26, 25, 24, 21, 20, 20]
43.185[24, 27, 27, 25, 24, 22, 19, 23]
43.207[22, 27, 25, 27, 23, 23, 19, 24]
43.23[23, 26, 25, 28, 24, 22, 18, 25]
43.245[23, 25, 25, 27, 25, 24, 18, 25]
43.267[23, 26, 23, 26, 25, 23, 18, 25]
43.29[23, 24, 23, 26, 27, 21, 16, 25]
43.305[23, 25, 22, 24, 27, 22, 18, 24]
43.327[26, 25, 23, 24, 25, 25, 19, 24]
43.35[28, 27, 24, 24, 24, 23, 20, 24]
43.365[30, 29, 24, 25, 25, 24, 22, 24]
43.387[31, 29, 26, 24, 22, 26, 22, 24]
43.41[31, 29, 27, 25, 25, 26, 22, 25]
43.425[30, 31, 25, 23, 25, 23, 23, 25]
43.447[28, 29, 25, 23, 24, 24, 21, 23]
43.47[25, 28, 23, 22, 22, 24, 21, 23]
43.485[26, 26, 21, 24, 25, 22, 21, 23]
43.507[29, 24, 21, 23, 22, 22, 21, 21]
43.53[27, 23, 23, 28, 23, 24, 20, 21]
43.545[28, 23, 21, 28, 24, 22, 23, 21]
43.567[29, 23, 22, 30, 24, 21, 22, 18]
43.59[27, 26, 22, 29, 23, 23, 24, 18]
43.605[25, 26, 25, 29, 24, 22, 24, 18]
43.627[26, 28, 23, 27, 24, 22, 25, 17]
43.65[25, 27, 24, 28, 25, 25, 22, 17]
43.665[28, 28, 25, 27, 25, 27, 23, 17]
43.687[28, 28, 26, 27, 26, 26, 21, 18]
43.71[29, 29, 24, 25, 28, 25, 21, 19]
43.725[30, 29, 26, 26, 26, 25, 20, 21]
43.747[30, 29, 26, 25, 26, 23, 22, 22]
43.77[27, 28, 25, 24, 26, 21, 21, 24]
43.785[30, 29, 24, 22, 24, 20, 22, 24]
43.807[30, 31, 25, 25, 21, 23, 21, 24]
43.83[29, 29, 23, 23, 24, 22, 21, 23]
43.845[33, 30, 25, 24, 22, 22, 20, 23]
43.867[31, 31, 24, 23, 24, 24, 21, 22]
43.89[27, 28, 27, 26, 25, 26, 22, 22]
43.906[26, 25, 26, 26, 26, 26, 22, 21]
43.927[25, 28, 25, 28, 26, 27, 22, 21]
43.958[24, 28, 26, 29, 27, 29, 23, 20]
43.965[25, 28, 27, 33, 27, 28, 23, 19]
43.987[27, 28, 27, 31, 26, 28, 22, 18]
44.01[29, 29, 27, 31, 28, 28, 22, 20]
44.024[30, 27, 28, 29, 30, 26, 23, 20]
44.047[30, 27, 26, 27, 30, 25, 22, 22]
44.07[30, 28, 25, 24, 28, 24, 20, 21]
44.084[31, 28, 23, 26, 28, 23, 21, 22]
44.107[29, 28, 22, 23, 26, 24, 23, 22]
44.13[27, 28, 21, 23, 23, 26, 22, 21]
44.153[27, 27, 20, 22, 22, 25, 19, 20]
44.167[31, 29, 21, 22, 25, 25, 21, 21]
44.189[30, 29, 23, 24, 25, 26, 19, 22]
44.213[34, 29, 25, 25, 24, 23, 16, 23]
44.227[36, 28, 25, 25, 23, 22, 16, 23]
44.25[35, 29, 26, 27, 24, 23, 20, 23]
44.273[35, 27, 25, 28, 23, 24, 22, 25]
44.287[35, 25, 22, 26, 21, 22, 21, 23]
44.31[34, 25, 23, 25, 21, 22, 23, 21]
44.332[33, 27, 22, 26, 23, 23, 24, 20]
44.348[32, 25, 22, 24, 24, 21, 23, 22]
44.37[27, 24, 22, 23, 22, 19, 23, 20]
44.393[28, 24, 23, 23, 23, 21, 23, 23]
44.407[24, 23, 22, 24, 24, 21, 23, 24]
44.43[24, 25, 23, 22, 24, 22, 23, 25]
44.452[26, 26, 23, 22, 23, 26, 23, 25]
44.468[28, 26, 22, 23, 24, 27, 23, 24]
44.49[27, 28, 23, 23, 23, 26, 24, 22]
44.513[27, 27, 22, 23, 24, 26, 22, 19]
44.527[26, 24, 21, 24, 24, 23, 21, 19]
44.55[25, 25, 22, 28, 26, 20, 21, 17]
44.573[21, 25, 22, 26, 26, 19, 21, 18]
44.587[23, 24, 22, 26, 27, 19, 20, 19]
44.61[24, 26, 22, 28, 27, 24, 21, 21]
44.632[25, 28, 22, 28, 26, 26, 22, 24]
44.646[25, 27, 21, 25, 24, 26, 23, 23]
44.67[26, 27, 22, 27, 24, 26, 22, 22]
44.692[27, 28, 22, 25, 23, 26, 21, 21]
44.707[28, 28, 21, 24, 23, 23, 20, 22]
44.737[28, 25, 23, 26, 22, 22, 20, 22]
44.76[28, 27, 23, 27, 23, 22, 20, 22]
44.766[29, 25, 22, 25, 23, 23, 19, 23]
44.79[32, 26, 22, 28, 26, 24, 20, 25]
44.812[32, 30, 25, 26, 25, 23, 21, 25]
44.826[31, 31, 25, 23, 26, 23, 21, 23]
44.849[32, 30, 24, 22, 25, 23, 19, 24]
44.872[30, 31, 24, 23, 23, 22, 20, 23]
44.887[25, 29, 24, 22, 19, 21, 21, 21]
44.91[22, 26, 24, 23, 20, 23, 20, 17]
44.933[22, 25, 22, 26, 21, 24, 19, 18]
44.946[21, 28, 25, 26, 20, 23, 20, 18]
44.97[24, 27, 26, 25, 21, 24, 20, 18]
44.992[25, 26, 27, 27, 24, 25, 20, 18]
45.006[27, 24, 26, 28, 24, 24, 22, 20]
45.03[32, 25, 27, 26, 23, 23, 21, 20]
45.052[33, 23, 26, 27, 25, 26, 20, 21]
45.066[34, 21, 25, 28, 26, 24, 20, 21]
45.09[33, 23, 23, 27, 24, 24, 21, 20]
45.112[32, 25, 23, 25, 24, 24, 18, 19]
45.135[28, 24, 23, 25, 28, 24, 19, 20]
45.15[28, 25, 23, 25, 28, 23, 21, 18]
45.172[26, 26, 24, 24, 27, 23, 23, 18]
45.194[27, 27, 25, 21, 27, 24, 22, 19]
45.21[26, 25, 25, 20, 26, 24, 22, 18]
45.232[25, 26, 25, 23, 25, 24, 22, 18]
45.255[22, 26, 25, 23, 26, 24, 21, 18]
45.27[24, 27, 24, 25, 27, 25, 21, 19]
45.292[27, 28, 22, 25, 26, 23, 21, 22]
45.314[27, 29, 22, 28, 28, 24, 22, 23]
45.33[29, 28, 21, 28, 27, 23, 22, 22]
45.352[31, 28, 23, 28, 25, 23, 22, 23]
45.375[29, 27, 23, 27, 25, 24, 23, 22]
45.39[25, 26, 23, 27, 26, 25, 22, 21]
45.412[26, 26, 25, 25, 24, 25, 23, 20]
45.434[24, 25, 24, 23, 22, 24, 23, 22]
45.45[21, 24, 22, 24, 24, 24, 24, 20]
45.472[24, 26, 21, 25, 24, 23, 21, 19]
45.494[26, 26, 21, 26, 24, 22, 21, 18]
45.509[26, 24, 21, 26, 25, 20, 20, 17]
45.532[26, 24, 24, 25, 26, 19, 20, 15]
45.555[26, 24, 24, 23, 25, 20, 20, 20]
45.578[27, 24, 24, 24, 26, 21, 21, 21]
45.592[27, 24, 25, 25, 28, 24, 22, 20]
45.614[29, 26, 24, 25, 27, 24, 22, 21]
45.629[28, 27, 23, 25, 28, 25, 21, 24]
45.652[30, 26, 26, 25, 28, 24, 22, 22]
45.674[28, 26, 26, 26, 28, 25, 21, 22]
45.689[29, 26, 25, 24, 27, 23, 20, 22]
45.712[28, 25, 24, 24, 27, 23, 19, 23]
45.734[28, 24, 22, 24, 25, 24, 18, 21]
45.749[28, 23, 20, 24, 24, 24, 16, 20]
45.772[30, 22, 21, 23, 22, 24, 17, 18]
45.795[31, 23, 23, 25, 23, 24, 16, 20]
45.809[30, 22, 24, 25, 22, 23, 19, 18]
45.832[30, 25, 25, 24, 22, 23, 21, 21]
45.854[32, 26, 24, 26, 24, 21, 24, 21]
45.869[29, 27, 25, 26, 24, 22, 23, 22]
45.892[29, 28, 24, 24, 27, 27, 25, 23]
45.914[29, 28, 23, 25, 26, 29, 26, 24]
45.928[28, 29, 22, 27, 25, 28, 26, 21]
45.952[27, 28, 24, 23, 25, 29, 23, 23]
45.974[26, 28, 24, 25, 25, 29, 24, 21]
45.989[22, 27, 23, 26, 24, 25, 25, 20]
46.012[23, 26, 24, 24, 25, 25, 25, 21]
46.034[24, 24, 23, 23, 26, 26, 23, 22]
46.057[23, 24, 23, 26, 24, 26, 24, 22]
46.072[28, 24, 23, 24, 23, 24, 24, 22]
46.094[30, 23, 21, 23, 21, 23, 21, 24]
46.117[28, 25, 22, 26, 20, 22, 19, 22]
46.132[30, 25, 25, 26, 20, 22, 20, 23]
46.154[29, 26, 24, 24, 25, 24, 20, 21]
46.177[27, 26, 26, 25, 26, 24, 21, 22]
46.191[25, 28, 27, 26, 28, 24, 21, 22]
46.215[28, 28, 27, 25, 27, 25, 21, 21]
46.236[25, 29, 25, 23, 27, 27, 21, 23]
46.253[26, 28, 24, 24, 25, 25, 22, 24]
46.274[28, 28, 21, 24, 25, 25, 20, 25]
46.296[27, 26, 22, 25, 25, 26, 20, 24]
46.312[25, 24, 21, 26, 27, 26, 21, 23]
46.333[27, 22, 21, 27, 26, 24, 21, 21]
46.356[27, 25, 23, 26, 27, 24, 21, 22]
46.372[27, 25, 24, 28, 27, 23, 22, 20]
46.395[30, 26, 26, 29, 26, 22, 22, 20]
46.416[30, 29, 26, 27, 24, 21, 22, 22]
46.432[31, 29, 26, 27, 23, 21, 22, 23]
46.455[30, 28, 27, 28, 24, 23, 21, 23]
46.476[30, 29, 27, 26, 23, 24, 20, 24]
46.493[26, 33, 28, 60, 29, 26, 19, 25]
46.513[26, 34, 27, 71, 29, 24, 19, 23]
46.536[24, 31, 28, 72, 32, 25, 19, 23]
46.552[25, 30, 26, 72, 31, 23, 18, 24]
46.573[24, 29, 24, 73, 31, 25, 19, 23]
46.596[26, 25, 20, 49, 26, 23, 18, 23]
46.62[26, 21, 21, 29, 26, 26, 20, 25]
46.633[25, 21, 21, 27, 24, 23, 21, 24]
46.656[23, 24, 21, 27, 25, 24, 21, 24]
46.672[25, 24, 22, 27, 26, 24, 21, 23]
46.701[25, 26, 23, 25, 27, 22, 21, 23]
46.716[27, 29, 24, 26, 27, 22, 19, 22]
46.732[27, 28, 23, 25, 27, 23, 17, 23]
46.753[28, 29, 23, 24, 28, 24, 19, 23]
46.776[26, 28, 24, 24, 27, 24, 19, 23]
46.792[28, 25, 24, 23, 26, 26, 20, 22]
46.814[31, 30, 25, 24, 26, 23, 21, 24]
46.835[32, 31, 26, 23, 25, 25, 21, 22]
46.852[32, 30, 26, 23, 23, 22, 21, 19]
46.873[32, 32, 27, 23, 24, 21, 22, 18]
46.896[32, 33, 27, 24, 23, 24, 21, 22]
46.912[32, 29, 27, 22, 26, 24, 21, 20]
46.933[30, 29, 25, 25, 26, 24, 22, 19]
46.955[31, 29, 24, 24, 27, 25, 22, 20]
46.972[32, 28, 24, 26, 29, 26, 20, 24]
46.993[30, 27, 25, 26, 30, 23, 22, 23]
47.016[26, 24, 24, 26, 27, 22, 21, 25]
47.038[28, 28, 25, 26, 29, 23, 22, 27]
47.053[27, 27, 26, 28, 29, 22, 21, 27]
47.075[25, 28, 24, 25, 28, 21, 22, 24]
47.098[27, 29, 24, 25, 26, 22, 22, 25]
47.113[29, 29, 25, 25, 27, 22, 22, 25]
47.135[28, 24, 24, 25, 27, 22, 20, 24]
47.158[31, 23, 25, 22, 27, 24, 21, 24]
47.173[31, 22, 26, 22, 26, 25, 23, 23]
47.195[28, 23, 26, 24, 28, 24, 23, 24]
47.218[24, 25, 24, 25, 29, 25, 24, 23]
47.233[25, 27, 25, 24, 28, 26, 23, 22]
47.255[24, 29, 26, 26, 29, 23, 26, 23]
47.278[25, 31, 24, 27, 29, 24, 25, 25]
47.293[26, 29, 23, 26, 31, 24, 24, 23]
47.315[28, 29, 27, 29, 32, 25, 25, 22]
47.338[27, 29, 26, 31, 31, 23, 25, 23]
47.353[27, 29, 25, 29, 28, 21, 23, 22]
47.375[29, 28, 26, 29, 29, 22, 22, 21]
47.398[29, 28, 27, 27, 26, 22, 24, 22]
47.413[28, 27, 25, 23, 24, 19, 23, 21]
47.436[28, 26, 26, 21, 24, 18, 22, 25]
47.458[29, 24, 25, 22, 25, 20, 21, 25]
47.473[27, 24, 24, 23, 24, 20, 23, 24]
47.495[26, 23, 28, 23, 24, 19, 21, 23]
47.518[28, 25, 26, 25, 25, 19, 21, 26]
47.533[29, 28, 25, 24, 25, 24, 22, 22]
47.555[27, 28, 26, 24, 24, 23, 22, 21]
47.578[30, 29, 26, 22, 25, 22, 21, 23]
47.593[31, 29, 22, 22, 25, 23, 19, 25]
47.616[32, 28, 22, 22, 24, 25, 20, 23]
47.638[32, 29, 24, 23, 26, 21, 23, 23]
47.653[30, 28, 23, 25, 27, 22, 23, 25]
47.675[29, 29, 24, 24, 28, 21, 23, 23]
47.698[28, 28, 24, 23, 26, 21, 24, 22]
47.713[25, 28, 24, 24, 27, 21, 23, 22]
47.735[25, 24, 24, 25, 28, 23, 20, 21]
47.758[28, 23, 25, 23, 27, 22, 20, 21]
47.772[29, 22, 25, 26, 26, 23, 22, 20]
47.795[29, 29, 25, 28, 25, 22, 23, 20]
47.817[28, 28, 27, 30, 26, 24, 23, 22]
47.833[29, 31, 27, 29, 24, 25, 25, 23]
47.855[27, 31, 28, 30, 25, 26, 25, 22]
47.878[26, 31, 26, 28, 25, 25, 24, 26]
47.893[29, 28, 29, 27, 28, 27, 23, 24]
47.915[29, 28, 29, 24, 27, 23, 23, 23]
47.938[28, 27, 26, 21, 26, 20, 21, 23]
47.96[29, 29, 26, 22, 26, 22, 23, 22]
47.975[29, 32, 27, 21, 26, 22, 21, 20]
47.998[28, 28, 25, 24, 25, 21, 23, 22]
48.02[27, 28, 24, 25, 25, 23, 22, 22]
48.035[27, 29, 26, 27, 26, 24, 22, 20]
48.058[28, 28, 24, 26, 24, 23, 20, 22]
48.081[30, 24, 24, 27, 24, 21, 21, 20]
48.096[28, 27, 21, 24, 23, 21, 19, 20]
48.117[32, 27, 24, 24, 23, 23, 20, 21]
48.14[31, 27, 22, 26, 26, 23, 20, 21]
48.155[32, 29, 24, 28, 27, 22, 20, 20]
48.178[30, 28, 23, 28, 25, 23, 18, 22]
48.2[29, 26, 23, 30, 27, 23, 19, 26]
48.215[28, 26, 22, 29, 26, 24, 19, 25]
48.237[30, 23, 23, 26, 24, 23, 19, 26]
48.26[28, 20, 24, 25, 23, 28, 21, 28]
48.275[30, 21, 22, 23, 22, 27, 21, 28]
48.297[30, 25, 23, 20, 23, 25, 20, 23]
48.32[28, 24, 23, 22, 24, 23, 21, 22]
48.335[27, 27, 23, 22, 22, 26, 21, 23]
48.358[29, 26, 25, 21, 24, 21, 20, 20]
48.38[28, 26, 25, 23, 26, 22, 22, 21]
48.395[27, 25, 25, 21, 26, 24, 24, 22]
48.418[27, 26, 25, 23, 27, 27, 24, 21]
48.44[27, 27, 25, 25, 27, 25, 25, 22]
48.455[26, 28, 22, 26, 28, 24, 24, 21]
48.477[25, 30, 24, 25, 27, 25, 23, 21]
48.5[27, 29, 24, 27, 25, 24, 22, 21]
48.515[26, 28, 23, 24, 23, 19, 23, 20]
48.538[25, 27, 22, 24, 27, 19, 21, 19]
48.56[27, 28, 23, 26, 25, 21, 22, 21]
48.575[28, 27, 21, 26, 25, 19, 22, 19]
48.597[26, 26, 23, 26, 27, 22, 22, 19]
48.62[26, 28, 24, 27, 26, 24, 20, 20]
48.635[28, 28, 24, 26, 25, 26, 20, 22]
48.657[24, 27, 24, 26, 25, 26, 17, 20]
48.68[24, 29, 25, 30, 29, 26, 20, 20]
48.695[26, 28, 25, 29, 27, 27, 21, 21]
48.717[26, 30, 24, 29, 29, 26, 22, 23]
48.74[25, 28, 24, 29, 28, 24, 23, 22]
48.755[26, 28, 25, 31, 28, 27, 23, 22]
48.777[28, 26, 24, 27, 25, 27, 22, 25]
48.8[28, 26, 24, 26, 24, 25, 22, 25]
48.814[27, 24, 27, 27, 26, 25, 22, 22]
48.837[28, 27, 27, 26, 26, 25, 21, 21]
48.86[28, 26, 26, 23, 26, 21, 22, 23]
48.883[24, 27, 26, 24, 26, 23, 21, 22]
48.897[25, 27, 25, 23, 27, 22, 20, 22]
48.92[25, 27, 23, 24, 25, 21, 19, 22]
48.943[25, 25, 22, 24, 26, 21, 21, 22]
48.957[25, 26, 24, 24, 26, 23, 20, 22]
48.98[28, 28, 24, 21, 26, 22, 21, 21]
49.003[28, 28, 24, 26, 27, 23, 21, 21]
49.017[29, 28, 23, 27, 27, 23, 20, 22]
49.04[29, 29, 23, 27, 26, 23, 18, 23]
49.063[30, 28, 23, 29, 26, 22, 22, 21]
49.077[27, 26, 24, 31, 27, 19, 21, 22]
49.1[28, 26, 24, 31, 27, 17, 21, 21]
49.123[29, 26, 25, 30, 27, 18, 21, 22]
49.137[26, 25, 24, 29, 26, 19, 25, 22]
49.16[26, 25, 24, 28, 25, 20, 23, 22]
49.182[30, 27, 23, 28, 27, 23, 24, 22]
49.197[30, 25, 24, 26, 26, 25, 23, 24]
49.22[31, 29, 25, 26, 28, 25, 25, 24]
49.242[32, 28, 26, 27, 27, 25, 23, 25]
49.257[30, 28, 25, 27, 26, 24, 22, 24]
49.279[29, 27, 26, 27, 25, 26, 23, 22]
49.302[28, 32, 24, 25, 25, 24, 24, 20]
49.317[26, 29, 25, 23, 22, 23, 22, 18]
49.339[25, 29, 25, 24, 23, 22, 22, 18]
49.363[26, 29, 24, 24, 24, 23, 23, 19]
49.377[28, 29, 23, 21, 23, 19, 22, 19]
49.399[27, 26, 25, 22, 24, 21, 21, 20]
49.422[28, 27, 24, 25, 25, 21, 21, 22]
49.437[29, 31, 23, 23, 26, 22, 20, 22]
49.459[29, 31, 24, 23, 27, 22, 20, 23]
49.483[26, 31, 24, 26, 31, 24, 19, 23]
49.497[29, 30, 24, 26, 30, 25, 19, 23]
49.519[28, 29, 24, 25, 31, 26, 23, 21]
49.542[28, 27, 24, 24, 30, 28, 23, 21]
49.557[28, 27, 24, 24, 28, 27, 22, 19]
49.579[29, 27, 24, 23, 25, 25, 23, 20]
49.602[27, 27, 23, 24, 26, 23, 22, 20]
49.617[28, 26, 22, 22, 25, 23, 19, 20]
49.64[26, 26, 23, 21, 24, 21, 19, 19]
49.662[27, 25, 25, 23, 24, 24, 19, 20]
49.677[27, 26, 24, 23, 23, 25, 18, 21]
49.7[27, 24, 25, 22, 21, 25, 19, 21]
49.722[27, 27, 28, 27, 23, 24, 20, 21]
49.737[30, 28, 28, 29, 24, 24, 23, 26]
49.76[33, 29, 27, 28, 23, 25, 23, 26]
49.783[31, 28, 28, 28, 27, 24, 24, 24]
49.797[31, 30, 29, 29, 28, 26, 23, 24]
49.82[30, 30, 26, 24, 26, 26, 22, 23]
49.842[29, 28, 25, 24, 26, 25, 21, 20]
49.865[26, 27, 24, 23, 26, 22, 20, 21]
49.88[26, 28, 24, 24, 24, 21, 20, 22]
49.902[24, 27, 23, 23, 22, 18, 21, 21]
49.925[25, 24, 21, 24, 24, 18, 22, 22]
49.94[26, 27, 23, 24, 25, 17, 23, 22]
49.962[26, 27, 23, 25, 24, 19, 23, 21]
49.985[25, 28, 23, 25, 23, 22, 25, 21]
49.999[28, 26, 23, 26, 24, 23, 25, 23]
50.022[28, 27, 24, 26, 24, 25, 25, 22]
50.045[26, 24, 25, 25, 23, 26, 23, 20]
50.06[26, 25, 25, 26, 23, 25, 22, 20]
50.082[26, 23, 25, 25, 23, 22, 19, 19]
50.105[26, 24, 24, 25, 23, 23, 19, 19]
50.119[24, 23, 24, 27, 23, 24, 18, 18]
50.142[26, 25, 24, 26, 21, 23, 18, 20]
50.165[24, 24, 23, 24, 23, 23, 19, 20]
50.18[23, 23, 22, 27, 25, 26, 20, 20]
50.202[22, 23, 21, 26, 25, 25, 19, 19]
50.225[28, 23, 21, 23, 25, 24, 20, 21]
50.239[27, 22, 20, 23, 25, 25, 20, 20]
50.262[28, 24, 21, 23, 26, 24, 19, 21]
50.285[27, 25, 22, 23, 24, 21, 19, 21]
50.299[29, 26, 23, 24, 24, 21, 19, 22]
50.322[24, 26, 24, 25, 25, 22, 19, 22]
50.345[26, 28, 22, 26, 27, 23, 19, 24]
50.359[25, 26, 22, 26, 25, 23, 19, 24]
50.382[27, 26, 20, 24, 26, 23, 20, 24]
50.404[25, 26, 21, 24, 27, 23, 19, 24]
50.419[25, 26, 20, 25, 25, 23, 20, 22]
50.442[23, 25, 22, 27, 22, 23, 19, 23]
50.464[23, 26, 24, 27, 23, 25, 23, 22]
50.487[23, 27, 23, 28, 21, 25, 24, 22]
50.502[24, 27, 25, 27, 21, 26, 24, 21]
50.525[24, 28, 25, 26, 23, 25, 25, 23]
50.539[26, 26, 26, 24, 23, 23, 25, 22]
50.562[25, 26, 26, 26, 27, 22, 21, 23]
50.585[28, 33, 27, 27, 26, 22, 21, 23]
50.599[28, 34, 25, 28, 26, 20, 25, 23]
50.622[27, 33, 26, 30, 25, 19, 23, 22]
50.644[25, 32, 24, 29, 26, 21, 23, 22]
50.659[26, 33, 21, 26, 22, 20, 23, 20]
50.682[26, 27, 22, 25, 24, 21, 23, 22]
50.705[24, 26, 22, 26, 26, 24, 19, 22]
50.719[24, 26, 23, 21, 26, 24, 21, 23]
50.742[26, 26, 22, 21, 25, 23, 22, 23]
50.764[25, 25, 22, 25, 28, 23, 24, 23]
50.787[24, 23, 22, 25, 26, 23, 23, 24]
50.802[25, 23, 25, 23, 27, 21, 25, 24]
50.825[25, 24, 26, 26, 26, 20, 23, 23]
50.847[26, 25, 28, 29, 27, 22, 23, 22]
50.862[25, 26, 28, 50, 27, 23, 24, 25]
50.884[24, 27, 35, 65, 32, 23, 23, 23]
50.907[24, 28, 41, 301, 78, 28, 20, 22]
50.922[26, 28, 65, 338, 89, 31, 20, 22]
50.944[23, 28, 70, 341, 90, 31, 19, 24]
50.967[25, 28, 71, 343, 91, 31, 17, 20]
50.982[28, 27, 67, 345, 90, 31, 17, 20]
51.005[27, 25, 64, 186, 55, 26, 18, 21]
51.027[27, 25, 39, 110, 37, 23, 19, 21]
51.042[25, 25, 29, 98, 34, 23, 20, 20]
51.064[26, 25, 27, 82, 32, 22, 20, 21]
51.087[24, 24, 28, 68, 30, 22, 22, 20]
51.102[25, 27, 25, 57, 30, 23, 22, 21]
51.124[26, 27, 25, 89, 32, 25, 23, 21]
51.147[30, 25, 26, 112, 44, 25, 23, 21]
51.162[30, 25, 37, 121, 49, 26, 25, 22]
51.185[30, 31, 121, 237, 73, 30, 27, 23]
51.206[42, 83, 256, 354, 108, 39, 29, 25]
51.222[47, 91, 302, 410, 121, 41, 27, 27]
51.245[46, 99, 327, 457, 132, 43, 29, 27]
51.266[49, 110, 353, 505, 144, 45, 28, 28]
51.282[49, 117, 377, 539, 157, 48, 28, 30]
51.305[43, 92, 365, 492, 144, 45, 29, 30]
51.326[38, 90, 361, 472, 137, 45, 31, 30]
51.349[39, 83, 351, 454, 130, 43, 30, 30]
51.365[40, 69, 331, 497, 121, 43, 30, 30]
51.386[38, 55, 312, 429, 98, 40, 28, 27]
51.402[34, 50, 249, 421, 97, 38, 24, 25]
51.423[33, 42, 273, 411, 99, 40, 23, 23]
51.446[32, 38, 296, 406, 96, 46, 24, 22]
51.462[27, 37, 302, 293, 94, 47, 26, 22]
51.485[29, 36, 282, 304, 109, 50, 26, 24]
51.506[38, 38, 291, 318, 107, 48, 28, 25]
51.522[39, 38, 236, 341, 107, 46, 27, 26]
51.543[40, 37, 197, 329, 108, 41, 26, 27]
51.566[40, 37, 195, 328, 107, 37, 26, 28]
51.588[38, 36, 191, 380, 101, 33, 27, 26]
51.603[32, 34, 160, 374, 100, 34, 29, 27]
51.626[32, 33, 164, 364, 106, 36, 31, 26]
51.642[28, 37, 167, 379, 108, 40, 32, 27]
51.663[29, 47, 207, 397, 119, 42, 31, 28]
51.686[33, 51, 205, 338, 113, 42, 30, 29]
51.703[31, 53, 210, 327, 113, 43, 29, 27]
51.723[31, 54, 209, 327, 117, 44, 28, 29]
51.746[30, 57, 225, 293, 114, 41, 26, 27]
51.768[33, 55, 186, 290, 114, 44, 29, 27]
51.783[31, 56, 195, 287, 110, 42, 29, 27]
51.806[33, 57, 199, 276, 106, 44, 29, 26]
51.828[32, 61, 208, 252, 102, 43, 27, 25]
51.844[36, 61, 183, 275, 102, 45, 31, 26]
51.866[63, 58, 189, 282, 99, 41, 32, 31]

