[23, 20, 25, 18, 21, 19, 22, 24]
1.844[25, 22, 28, 19, 23, 20, 23, 27]
1.873[27, 25, 28, 18, 24, 23, 25, 27]
1.888[24, 26, 27, 20, 26, 23, 25, 25]
1.91[22, 25, 25, 20, 27, 22, 22, 27]
1.941[21, 24, 24, 19, 28, 22, 22, 29]
1.948[21, 22, 21, 21, 27, 22, 19, 28]
1.965[18, 20, 19, 24, 24, 19, 16, 28]
1.987[17, 21, 18, 22, 23, 18, 16, 27]
2.008[17, 19, 15, 23, 19, 17, 15, 21]
2.024[16, 20, 16, 24, 20, 18, 16, 19]
2.046[15, 19, 16, 24, 18, 17, 20, 20]
2.068[17, 19, 17, 22, 21, 19, 21, 22]
2.084[17, 19, 18, 23, 22, 19, 20, 23]
2.107[19, 19, 19, 22, 22, 20, 20, 24]
2.127[20, 20, 20, 21, 20, 20, 19, 25]
2.144[20, 20, 20, 19, 22, 20, 19, 24]
2.167[20, 22, 20, 18, 20, 21, 18, 23]
2.188[22, 20, 20, 19, 19, 21, 20, 25]
2.204[21, 20, 19, 19, 19, 20, 21, 25]
2.226[20, 19, 19, 19, 18, 19, 21, 26]
2.248[21, 20, 18, 18, 15, 20, 20, 26]
2.264[20, 16, 18, 19, 20, 20, 20, 26]
2.287[19, 18, 20, 16, 20, 19, 20, 28]
2.309[19, 19, 19, 17, 20, 19, 21, 26]
2.324[18, 18, 19, 19, 21, 22, 21, 26]
2.347[19, 17, 21, 19, 21, 20, 20, 27]
2.368[19, 18, 21, 18, 17, 20, 22, 25]
2.384[18, 17, 19, 21, 18, 20, 22, 23]
2.406[19, 17, 20, 22, 20, 22, 21, 24]
2.429[20, 18, 21, 19, 19, 20, 22, 21]
2.444[19, 19, 21, 19, 21, 20, 23, 19]
2.474[19, 19, 22, 21, 22, 20, 22, 19]
2.487[18, 20, 23, 17, 21, 23, 24, 17]
2.504[18, 21, 22, 16, 21, 22, 24, 16]
2.527[18, 20, 22, 18, 21, 22, 24, 18]
2.547[18, 20, 22, 19, 21, 22, 23, 19]
2.564[18, 19, 22, 17, 21, 23, 23, 23]
2.586[18, 19, 19, 18, 22, 21, 23, 23]
2.608[18, 19, 21, 18, 19, 22, 23, 23]
2.624[17, 18, 20, 19, 24, 22, 20, 21]
2.647[17, 19, 17, 18, 23, 22, 20, 21]
2.668[17, 21, 17, 19, 21, 21, 20, 17]
2.691[19, 21, 18, 19, 21, 20, 18, 17]
2.707[18, 21, 19, 20, 21, 19, 20, 21]
2.727[19, 22, 20, 18, 17, 19, 21, 23]
2.75[23, 21, 23, 20, 17, 19, 22, 24]
2.772[23, 19, 24, 19, 18, 17, 21, 25]
2.789[24, 18, 24, 19, 20, 20, 22, 26]
2.81[24, 19, 24, 17, 24, 21, 22, 23]
2.832[24, 18, 25, 18, 24, 22, 22, 21]
2.863[21, 19, 22, 19, 24, 23, 21, 24]
2.87[19, 20, 22, 19, 25, 23, 20, 22]
2.893[18, 20, 22, 22, 25, 21, 19, 21]
2.908[20, 22, 20, 24, 24, 22, 18, 18]
2.93[19, 23, 21, 25, 23, 19, 19, 22]
2.953[18, 24, 21, 24, 25, 20, 21, 19]
2.967[18, 26, 22, 23, 25, 21, 22, 20]
2.991[20, 26, 23, 24, 24, 21, 21, 21]
3.013[18, 25, 24, 23, 23, 20, 22, 22]
3.028[18, 24, 22, 21, 24, 20, 21, 20]
3.05[19, 22, 24, 22, 24, 20, 21, 21]
3.073[20, 21, 24, 22, 23, 20, 20, 23]
3.087[17, 22, 22, 18, 22, 20, 21, 23]
3.11[18, 22, 22, 18, 22, 20, 19, 25]
3.133[18, 22, 23, 20, 23, 21, 20, 23]
3.149[18, 22, 22, 19, 21, 20, 19, 24]
3.17[18, 21, 21, 19, 22, 19, 21, 22]
3.193[20, 19, 21, 19, 22, 19, 20, 24]
3.215[20, 18, 20, 17, 21, 17, 21, 22]
3.23[21, 18, 20, 18, 19, 18, 25, 23]
3.253[21, 18, 18, 18, 21, 18, 25, 23]
3.275[22, 18, 19, 21, 19, 18, 24, 23]
3.298[21, 19, 19, 21, 19, 20, 24, 20]
3.312[21, 19, 20, 21, 20, 21, 25, 22]
3.335[20, 18, 19, 21, 21, 20, 21, 22]
3.35[21, 18, 21, 21, 20, 21, 20, 19]
3.372[21, 21, 21, 19, 22, 21, 21, 21]
3.395[19, 21, 21, 20, 23, 21, 21, 24]
3.41[19, 21, 21, 20, 22, 20, 19, 24]
3.432[18, 22, 22, 19, 21, 19, 18, 24]
3.455[18, 22, 19, 21, 23, 19, 20, 25]
3.47[18, 23, 18, 21, 21, 18, 21, 22]
3.493[17, 22, 20, 19, 20, 16, 19, 20]
3.515[18, 23, 19, 20, 19, 18, 22, 19]
3.53[19, 23, 18, 20, 20, 20, 22, 19]
3.552[19, 25, 21, 19, 21, 19, 22, 17]
3.575[18, 23, 21, 18, 21, 20, 20, 18]
3.59[20, 23, 21, 19, 21, 22, 23, 19]
3.621[20, 23, 22, 19, 22, 21, 21, 22]
3.635[21, 22, 23, 22, 21, 24, 21, 23]
3.659[21, 20, 21, 23, 20, 23, 20, 25]
3.673[21, 21, 22, 23, 18, 22, 22, 27]
3.695[21, 20, 22, 22, 21, 21, 20, 28]
3.71[20, 18, 22, 21, 21, 24, 21, 28]
3.733[17, 18, 22, 18, 19, 23, 21, 25]
3.755[20, 18, 21, 18, 18, 24, 21, 23]
3.77[20, 18, 22, 18, 24, 24, 19, 20]
3.793[20, 18, 21, 19, 22, 23, 20, 23]
3.815[20, 20, 21, 19, 23, 21, 19, 27]
3.83[22, 20, 21, 20, 24, 17, 18, 29]
3.853[20, 19, 22, 20, 25, 16, 22, 32]
3.875[22, 19, 21, 21, 24, 21, 24, 33]
3.89[22, 20, 20, 33, 26, 30, 24, 28]
3.913[22, 19, 22, 36, 25, 31, 25, 27]
3.935[21, 20, 23, 35, 24, 33, 24, 28]
3.958[21, 22, 22, 35, 26, 33, 22, 26]
3.973[20, 23, 21, 34, 24, 30, 20, 27]
3.995[19, 23, 24, 22, 30, 22, 18, 34]
4.011[19, 22, 22, 16, 37, 21, 17, 34]
4.032[17, 21, 20, 16, 37, 19, 17, 30]
4.055[18, 19, 21, 16, 36, 19, 18, 31]
4.07[21, 18, 21, 17, 37, 21, 19, 30]
4.093[21, 17, 19, 19, 38, 21, 21, 22]
4.115[22, 18, 19, 19, 37, 22, 21, 21]
4.138[23, 19, 18, 23, 38, 21, 25, 29]
4.152[25, 20, 16, 23, 42, 22, 26, 30]
4.175[24, 19, 16, 26, 41, 25, 27, 35]
4.198[23, 18, 16, 28, 37, 24, 26, 47]
4.212[22, 18, 21, 28, 33, 25, 28, 59]
4.235[22, 16, 20, 25, 33, 28, 27, 61]
4.258[17, 17, 20, 25, 36, 33, 30, 62]
4.272[15, 18, 20, 23, 54, 30, 29, 62]
4.295[15, 21, 20, 22, 55, 31, 31, 56]
4.318[19, 22, 17, 22, 56, 35, 31, 44]
4.332[28, 23, 18, 29, 56, 31, 29, 46]
4.355[34, 23, 20, 29, 52, 27, 27, 43]
4.379[35, 26, 22, 28, 37, 35, 26, 44]
4.393[36, 24, 24, 43, 34, 41, 27, 40]
4.415[33, 23, 23, 47, 40, 37, 25, 46]
4.438[26, 24, 22, 47, 45, 40, 30, 38]
4.452[20, 23, 22, 49, 45, 40, 27, 40]
4.475[17, 21, 20, 48, 42, 36, 26, 40]
4.499[20, 19, 17, 36, 53, 39, 32, 40]
4.512[28, 19, 18, 34, 46, 40, 34, 33]
4.535[38, 18, 20, 32, 41, 38, 30, 39]
4.558[41, 17, 20, 30, 41, 37, 31, 36]
4.572[42, 17, 20, 32, 43, 34, 34, 39]
4.595[43, 19, 21, 33, 30, 31, 27, 39]
4.618[39, 20, 22, 32, 42, 35, 28, 41]
4.632[31, 23, 21, 28, 45, 46, 31, 39]
4.655[24, 26, 34, 29, 50, 49, 31, 42]
4.678[26, 25, 40, 28, 53, 51, 31, 35]
4.692[23, 26, 43, 29, 51, 49, 31, 49]
4.715[22, 27, 44, 25, 41, 46, 33, 47]
4.738[19, 24, 43, 27, 38, 40, 30, 49]
4.753[21, 23, 36, 27, 32, 37, 35, 47]
4.775[21, 24, 28, 29, 31, 38, 33, 49]
4.806[19, 22, 23, 27, 32, 43, 33, 54]
4.813[19, 19, 22, 27, 32, 44, 28, 65]
4.835[22, 19, 22, 26, 41, 39, 30, 68]
4.859[21, 20, 21, 25, 42, 42, 23, 73]
4.872[26, 21, 24, 22, 37, 38, 34, 71]
4.895[27, 22, 24, 24, 45, 28, 35, 60]
4.918[28, 24, 23, 28, 52, 27, 37, 47]
4.941[26, 26, 22, 27, 52, 28, 37, 38]
4.955[27, 28, 21, 32, 53, 29, 39, 30]
4.994[24, 28, 18, 31, 54, 31, 31, 47]
4.995[24, 28, 22, 32, 53, 31, 32, 50]
5.015[23, 29, 23, 31, 49, 31, 35, 50]
5.038[23, 26, 24, 31, 41, 35, 38, 50]
5.061[23, 22, 26, 28, 38, 36, 36, 53]
5.075[20, 22, 25, 29, 36, 35, 37, 39]
5.098[21, 19, 24, 28, 27, 40, 35, 31]
5.121[24, 18, 23, 30, 26, 50, 30, 33]
5.135[24, 20, 24, 30, 32, 46, 30, 34]
5.158[22, 20, 22, 30, 32, 44, 30, 31]
5.188[23, 22, 23, 31, 37, 45, 29, 32]
5.196[22, 23, 25, 31, 46, 40, 29, 33]
5.218[20, 22, 27, 28, 47, 32, 35, 38]
5.241[21, 24, 26, 27, 47, 31, 33, 55]
5.256[25, 24, 27, 26, 47, 30, 37, 53]
5.278[25, 21, 26, 23, 50, 30, 36, 53]
5.301[26, 22, 23, 22, 42, 40, 36, 53]
5.323[27, 22, 23, 26, 42, 37, 37, 57]
5.339[28, 20, 21, 30, 38, 42, 37, 41]
5.361[27, 19, 21, 30, 42, 43, 38, 43]
5.376[27, 19, 20, 33, 41, 43, 37, 46]
5.398[26, 20, 22, 33, 41, 37, 37, 45]
5.421[25, 18, 21, 29, 40, 38, 32, 32]
5.435[23, 20, 26, 27, 43, 33, 29, 30]
5.459[21, 21, 26, 27, 40, 33, 37, 28]
5.481[23, 20, 27, 27, 33, 32, 40, 28]
5.503[22, 20, 26, 29, 33, 32, 39, 38]
5.518[20, 22, 25, 28, 32, 31, 39, 41]
5.542[20, 24, 20, 25, 35, 39, 39, 43]
5.563[21, 24, 22, 28, 35, 40, 28, 44]
5.578[18, 25, 21, 28, 34, 42, 29, 41]
5.602[19, 24, 24, 29, 34, 45, 32, 38]
5.615[20, 22, 24, 29, 36, 44, 30, 36]
5.638[21, 19, 24, 31, 33, 37, 29, 40]
5.661[21, 17, 24, 28, 34, 35, 31, 48]
5.675[22, 18, 23, 24, 37, 38, 29, 50]
5.698[23, 18, 21, 20, 35, 31, 26, 45]
5.721[23, 17, 22, 28, 36, 34, 31, 43]
5.735[24, 19, 23, 27, 33, 39, 31, 38]
5.758[26, 20, 24, 26, 32, 38, 30, 28]
5.781[24, 19, 23, 29, 40, 38, 31, 31]
5.795[23, 19, 22, 30, 41, 37, 33, 36]
5.833[23, 21, 22, 26, 46, 34, 28, 44]
5.841[22, 23, 23, 24, 48, 29, 29, 43]
5.855[21, 23, 20, 25, 49, 32, 31, 44]
5.886[22, 23, 21, 24, 42, 24, 28, 50]
5.901[23, 24, 21, 25, 44, 26, 26, 49]
5.915[23, 24, 21, 21, 42, 28, 30, 45]
5.939[22, 19, 21, 23, 39, 34, 29, 46]
5.961[21, 21, 21, 24, 38, 34, 28, 45]
5.975[20, 21, 25, 22, 39, 33, 28, 34]
5.998[20, 22, 25, 21, 37, 43, 31, 33]
6.021[21, 19, 28, 23, 32, 42, 29, 39]
6.051[22, 23, 29, 23, 36, 43, 28, 39]
6.058[23, 21, 28, 22, 36, 46, 29, 40]
6.081[26, 21, 24, 21, 33, 47, 30, 45]
6.103[24, 20, 23, 23, 41, 40, 29, 53]
6.126[23, 20, 19, 23, 48, 42, 29, 50]
6.142[21, 17, 19, 22, 48, 37, 32, 51]
6.163[19, 17, 21, 25, 49, 35, 32, 53]
6.178[18, 19, 24, 25, 49, 33, 32, 48]
6.201[19, 19, 26, 23, 44, 30, 37, 39]
6.223[21, 23, 25, 24, 37, 29, 36, 38]
6.238[22, 23, 24, 24, 31, 34, 33, 36]
6.261[22, 23, 23, 20, 31, 31, 30, 30]
6.283[20, 26, 21, 22, 32, 41, 30, 33]
6.298[18, 25, 18, 24, 33, 41, 26, 32]
6.321[16, 21, 22, 23, 35, 40, 29, 28]
6.343[19, 21, 21, 23, 37, 43, 29, 28]
6.358[20, 23, 21, 25, 37, 45, 34, 30]
6.381[20, 20, 22, 23, 37, 38, 32, 27]
6.403[21, 20, 23, 20, 33, 43, 30, 26]
6.418[26, 22, 22, 23, 34, 42, 27, 28]
6.441[23, 23, 21, 26, 36, 36, 27, 30]
6.463[22, 21, 21, 23, 36, 32, 24, 38]
6.479[24, 19, 21, 25, 38, 36, 24, 40]
6.501[23, 22, 22, 26, 36, 32, 24, 44]
6.523[17, 21, 23, 24, 32, 38, 28, 48]
6.538[19, 19, 25, 21, 33, 38, 26, 47]
6.561[20, 20, 24, 22, 33, 51, 24, 40]
6.582[18, 20, 23, 21, 32, 49, 25, 40]
6.612[20, 19, 22, 20, 31, 54, 22, 36]
6.621[21, 20, 20, 21, 33, 51, 21, 28]
6.642[21, 20, 19, 23, 30, 51, 22, 32]
6.659[21, 19, 20, 22, 33, 38, 25, 34]
6.681[21, 20, 21, 22, 32, 39, 24, 31]
6.71[20, 20, 20, 21, 35, 32, 26, 33]
6.719[19, 18, 21, 20, 31, 30, 27, 36]
6.742[20, 20, 21, 19, 37, 34, 27, 31]
6.763[22, 22, 19, 21, 33, 35, 27, 29]
6.779[23, 20, 20, 20, 35, 32, 27, 30]
6.801[23, 20, 21, 22, 32, 31, 26, 30]
6.823[25, 21, 21, 22, 36, 31, 25, 25]
6.839[23, 20, 21, 21, 27, 30, 29, 25]
6.861[19, 18, 23, 20, 27, 32, 29, 22]
6.883[22, 20, 23, 20, 26, 34, 30, 22]
6.906[24, 20, 23, 19, 24, 34, 30, 20]
6.922[22, 22, 24, 22, 25, 34, 29, 22]
6.943[21, 23, 22, 21, 26, 39, 26, 24]
6.959[22, 22, 22, 20, 25, 38, 24, 25]
6.982[19, 22, 21, 22, 23, 39, 26, 24]
7.003[18, 24, 21, 21, 25, 39, 27, 26]
7.025[17, 22, 22, 19, 24, 38, 26, 26]
7.04[18, 21, 23, 19, 23, 35, 26, 25]
7.062[21, 25, 25, 18, 27, 34, 26, 27]
7.093[21, 24, 24, 18, 28, 31, 22, 25]
7.1[21, 22, 24, 18, 28, 29, 23, 23]
7.122[23, 24, 24, 19, 27, 31, 22, 26]
7.145[24, 23, 24, 20, 25, 27, 23, 26]
7.16[20, 20, 22, 21, 24, 35, 24, 33]
7.182[21, 20, 21, 21, 25, 35, 25, 33]
7.205[20, 22, 21, 20, 28, 37, 23, 33]
7.22[20, 20, 20, 21, 27, 37, 22, 30]
7.25[18, 20, 20, 20, 27, 39, 22, 30]
7.265[19, 19, 17, 20, 30, 30, 22, 23]
7.288[18, 19, 18, 19, 31, 32, 24, 25]
7.303[19, 19, 18, 19, 29, 30, 24, 26]
7.325[17, 21, 18, 18, 28, 30, 24, 27]
7.34[18, 21, 18, 20, 29, 30, 23, 29]
7.363[18, 21, 19, 19, 28, 32, 23, 25]
7.385[19, 21, 20, 20, 27, 37, 21, 24]
7.401[18, 22, 20, 20, 25, 40, 21, 26]
7.422[19, 19, 21, 21, 32, 39, 22, 26]
7.445[20, 20, 21, 19, 34, 39, 22, 25]
7.461[19, 20, 22, 20, 31, 37, 21, 26]
7.482[20, 21, 22, 21, 29, 30, 24, 28]
7.505[22, 22, 21, 20, 29, 25, 24, 24]
7.52[21, 25, 21, 18, 24, 24, 25, 23]
7.543[21, 24, 19, 19, 18, 24, 25, 22]
7.566[21, 24, 20, 20, 21, 23, 25, 21]
7.58[21, 23, 19, 17, 24, 22, 22, 20]
7.603[19, 21, 21, 18, 24, 27, 27, 19]
7.627[20, 19, 21, 19, 23, 30, 29, 28]
7.64[19, 19, 22, 17, 26, 28, 28, 26]
7.662[22, 20, 21, 21, 26, 27, 27, 27]
7.686[21, 19, 20, 21, 24, 28, 28, 29]
7.7[21, 20, 19, 21, 25, 22, 26, 30]
7.723[22, 21, 20, 19, 24, 21, 22, 24]
7.753[22, 21, 18, 19, 24, 20, 24, 32]
7.76[22, 20, 20, 18, 23, 20, 25, 33]
7.783[22, 22, 22, 18, 23, 22, 24, 31]
7.805[21, 22, 20, 17, 21, 25, 21, 34]
7.82[19, 21, 20, 21, 23, 24, 23, 33]
7.842[18, 21, 23, 22, 25, 23, 18, 29]
7.865[19, 23, 21, 20, 26, 22, 22, 29]
7.88[20, 21, 22, 20, 26, 21, 21, 29]
7.902[21, 20, 22, 21, 28, 20, 22, 24]
7.925[22, 21, 22, 18, 25, 21, 22, 26]
7.947[21, 21, 21, 16, 25, 22, 22, 25]
7.962[19, 20, 21, 16, 23, 21, 18, 23]
7.985[18, 20, 21, 16, 23, 26, 19, 22]
8.007[19, 20, 21, 16, 23, 24, 20, 23]
8.023[18, 20, 22, 19, 23, 21, 19, 22]
8.045[21, 20, 23, 20, 22, 25, 21, 23]
8.067[22, 21, 24, 21, 22, 29, 21, 23]
8.083[24, 20, 23, 21, 19, 26, 20, 25]
8.105[23, 19, 23, 21, 21, 26, 20, 25]
8.128[23, 18, 22, 20, 22, 29, 20, 29]
8.142[20, 18, 21, 20, 23, 29, 21, 25]
8.165[20, 16, 24, 20, 22, 25, 21, 25]
8.187[18, 18, 25, 20, 23, 23, 21, 25]
8.203[18, 19, 23, 19, 22, 25, 22, 24]
8.225[18, 21, 23, 18, 23, 24, 22, 17]
8.256[17, 22, 23, 17, 21, 24, 21, 21]
8.263[15, 23, 20, 17, 22, 24, 21, 27]
8.285[14, 24, 19, 17, 22, 24, 25, 27]
8.308[16, 23, 20, 17, 22, 22, 24, 28]
8.324[17, 23, 18, 18, 22, 22, 24, 30]
8.353[18, 23, 20, 18, 20, 20, 24, 28]
8.368[21, 22, 19, 20, 22, 21, 23, 23]
8.382[21, 19, 19, 19, 24, 21, 18, 24]
8.405[19, 20, 20, 19, 25, 24, 18, 25]
8.427[17, 21, 20, 18, 22, 20, 23, 25]
8.443[20, 19, 21, 20, 24, 23, 22, 23]
8.465[18, 19, 21, 21, 24, 27, 23, 24]
8.488[19, 19, 21, 21, 24, 29, 23, 21]
8.502[19, 21, 23, 21, 23, 28, 23, 20]
8.525[19, 21, 22, 23, 23, 31, 20, 24]
8.556[17, 21, 22, 21, 22, 29, 20, 24]
8.563[16, 22, 21, 19, 22, 25, 19, 24]
8.585[17, 22, 21, 18, 20, 22, 21, 26]
8.607[16, 21, 20, 18, 20, 24, 20, 24]
8.622[17, 20, 23, 17, 20, 20, 18, 21]
8.645[19, 22, 22, 15, 21, 21, 19, 22]
8.667[21, 22, 24, 16, 22, 21, 21, 23]
8.683[20, 23, 25, 19, 21, 24, 22, 21]
8.705[19, 22, 24, 19, 22, 22, 24, 24]
8.728[19, 23, 23, 19, 23, 25, 24, 23]
8.743[17, 22, 23, 19, 22, 27, 25, 25]
8.765[16, 21, 22, 20, 21, 28, 26, 25]
8.796[18, 20, 22, 20, 23, 24, 24, 26]
8.802[18, 20, 23, 20, 24, 25, 23, 24]
8.833[20, 20, 23, 19, 23, 24, 23, 25]
8.847[20, 20, 24, 19, 23, 21, 22, 23]
8.871[20, 20, 26, 19, 22, 20, 21, 24]
8.885[18, 19, 27, 20, 21, 20, 21, 22]
8.907[19, 18, 26, 19, 19, 22, 21, 22]
8.931[17, 18, 25, 20, 19, 21, 21, 20]
8.945[19, 18, 23, 21, 18, 21, 18, 21]
8.967[19, 18, 22, 22, 21, 21, 17, 21]
8.998[22, 19, 20, 21, 21, 24, 20, 22]
9.005[22, 20, 21, 22, 21, 23, 18, 22]
9.028[23, 20, 22, 22, 21, 22, 20, 24]
9.051[22, 19, 23, 21, 22, 22, 22, 27]
9.073[22, 20, 23, 20, 18, 24, 21, 25]
9.087[20, 21, 23, 19, 18, 25, 19, 25]
9.111[19, 20, 23, 19, 19, 26, 20, 25]
9.125[20, 22, 23, 19, 19, 25, 19, 23]
9.147[19, 21, 22, 18, 18, 27, 19, 20]
9.171[18, 23, 22, 19, 19, 26, 19, 20]
9.185[17, 21, 22, 18, 22, 24, 19, 24]
9.208[20, 21, 20, 19, 23, 21, 20, 23]
9.231[20, 17, 19, 18, 24, 24, 21, 24]
9.245[21, 19, 22, 18, 23, 21, 20, 24]
9.267[21, 17, 20, 18, 25, 20, 20, 23]
9.291[21, 19, 21, 19, 24, 23, 22, 20]
9.305[20, 19, 22, 18, 23, 22, 20, 22]
9.327[23, 22, 23, 18, 25, 21, 20, 21]
9.351[22, 22, 21, 18, 25, 25, 19, 23]
9.365[22, 21, 22, 18, 23, 27, 20, 25]
9.387[22, 21, 24, 16, 23, 23, 17, 25]
9.411[22, 19, 23, 19, 21, 25, 18, 26]
9.426[18, 19, 22, 19, 19, 23, 17, 26]
9.457[17, 19, 23, 20, 19, 20, 18, 24]
9.471[18, 20, 23, 19, 20, 22, 18, 24]
9.485[18, 21, 22, 20, 20, 28, 22, 25]
9.507[18, 22, 23, 18, 22, 27, 21, 25]
9.531[18, 21, 23, 22, 23, 27, 21, 26]
9.545[20, 20, 23, 21, 22, 29, 20, 29]
9.567[18, 20, 23, 21, 23, 30, 20, 26]
9.591[19, 19, 23, 22, 22, 22, 18, 25]
9.605[17, 20, 21, 23, 23, 27, 19, 22]
9.627[18, 18, 22, 19, 21, 27, 19, 24]
9.65[16, 20, 20, 20, 24, 26, 21, 22]
9.665[20, 21, 19, 22, 23, 23, 20, 23]
9.687[20, 20, 20, 21, 23, 26, 19, 25]
9.711[20, 19, 21, 21, 20, 21, 18, 27]
9.725[19, 20, 20, 22, 22, 22, 21, 25]
9.747[22, 20, 21, 21, 20, 23, 19, 24]
9.771[18, 18, 21, 19, 20, 23, 20, 22]
9.785[18, 20, 21, 19, 19, 22, 22, 20]
9.808[21, 19, 21, 19, 21, 25, 22, 23]
9.83[20, 20, 21, 19, 20, 25, 21, 22]
9.853[21, 19, 21, 19, 18, 21, 20, 23]
9.867[21, 21, 22, 21, 20, 23, 19, 25]
9.89[23, 21, 21, 21, 20, 25, 17, 25]
9.913[20, 23, 21, 21, 19, 22, 18, 20]
9.927[20, 23, 21, 21, 19, 20, 17, 25]
9.958[19, 23, 22, 21, 19, 26, 18, 25]
9.973[19, 22, 20, 19, 17, 26, 19, 21]
9.987[17, 22, 20, 20, 20, 24, 20, 23]
10.01[18, 21, 20, 20, 21, 26, 20, 22]
10.034[18, 21, 21, 21, 22, 29, 20, 18]
10.047[18, 23, 20, 20, 22, 25, 21, 20]
10.071[17, 22, 21, 23, 22, 25, 20, 20]
10.101[17, 20, 21, 24, 20, 25, 19, 20]
10.107[17, 23, 23, 23, 21, 26, 19, 22]
10.131[19, 21, 22, 24, 21, 23, 22, 23]
10.153[18, 19, 20, 23, 23, 23, 21, 23]
10.167[18, 21, 20, 21, 23, 22, 21, 23]
10.191[18, 23, 20, 19, 23, 22, 23, 25]
10.213[19, 21, 18, 19, 22, 25, 23, 27]
10.228[20, 23, 21, 17, 22, 26, 19, 23]
10.25[20, 23, 22, 17, 21, 25, 23, 24]
10.273[20, 23, 22, 19, 21, 23, 24, 25]
10.287[20, 21, 22, 22, 23, 24, 22, 22]
10.31[19, 22, 21, 23, 21, 21, 24, 20]
10.333[17, 22, 21, 21, 23, 20, 26, 20]
10.347[17, 20, 19, 23, 22, 21, 22, 24]
10.37[18, 21, 19, 21, 21, 21, 21, 24]
10.393[18, 22, 20, 20, 21, 22, 22, 27]
10.407[18, 23, 22, 21, 24, 19, 22, 27]
10.43[21, 22, 22, 22, 23, 18, 21, 28]
10.453[20, 22, 21, 20, 22, 18, 20, 25]
10.467[20, 22, 23, 21, 23, 20, 22, 25]
10.49[19, 22, 22, 20, 23, 17, 21, 23]
10.513[19, 20, 20, 19, 21, 17, 20, 22]
10.535[17, 19, 20, 18, 21, 25, 19, 21]
10.55[20, 19, 22, 18, 22, 25, 20, 21]
10.573[19, 17, 21, 17, 21, 28, 18, 19]
10.587[20, 18, 20, 18, 19, 29, 20, 21]
10.611[21, 18, 21, 17, 18, 29, 20, 21]
10.633[22, 19, 20, 17, 20, 22, 19, 21]
10.647[19, 19, 20, 18, 19, 24, 20, 20]
10.67[20, 21, 20, 18, 20, 23, 20, 21]
10.693[20, 19, 21, 15, 21, 21, 18, 20]
10.715[19, 20, 21, 17, 20, 22, 19, 21]
10.731[17, 19, 22, 17, 18, 23, 20, 21]
10.753[19, 19, 22, 16, 20, 22, 19, 20]
10.775[19, 16, 21, 17, 21, 20, 19, 20]
10.791[17, 16, 21, 19, 21, 22, 19, 18]
10.82[18, 17, 21, 17, 21, 22, 18, 17]
10.835[19, 20, 20, 19, 22, 21, 17, 19]
10.866[19, 20, 19, 18, 22, 22, 18, 20]
10.873[19, 20, 20, 20, 22, 22, 17, 21]
10.896[19, 21, 19, 19, 22, 20, 16, 21]
10.911[22, 19, 17, 19, 22, 21, 17, 22]
10.933[20, 17, 18, 19, 22, 22, 18, 21]
10.955[21, 17, 19, 20, 23, 20, 17, 23]
10.97[21, 18, 18, 17, 22, 22, 16, 20]
10.993[22, 18, 19, 19, 24, 24, 18, 24]
11.023[20, 21, 19, 20, 24, 22, 20, 23]
11.03[20, 20, 18, 21, 22, 22, 21, 25]
11.053[19, 22, 19, 21, 23, 24, 22, 23]
11.075[21, 22, 19, 23, 21, 20, 25, 23]
11.09[20, 22, 20, 21, 19, 20, 25, 21]
11.113[19, 21, 22, 20, 19, 23, 25, 22]
11.135[19, 22, 22, 18, 21, 24, 24, 19]
11.15[20, 21, 20, 17, 19, 23, 23, 17]
11.173[19, 20, 23, 15, 20, 23, 21, 22]
11.195[18, 19, 23, 16, 22, 22, 21, 22]
11.211[21, 18, 21, 17, 22, 21, 19, 24]
11.233[21, 18, 21, 18, 21, 20, 19, 25]
11.256[21, 19, 22, 18, 22, 20, 20, 26]
11.27[21, 21, 20, 19, 23, 23, 21, 24]
11.293[22, 20, 18, 17, 21, 23, 21, 23]
11.315[20, 20, 17, 18, 24, 22, 20, 22]
11.33[20, 23, 17, 16, 24, 26, 22, 22]
11.353[21, 23, 18, 18, 24, 25, 22, 22]
11.375[21, 21, 18, 18, 23, 22, 20, 21]
11.39[20, 22, 20, 18, 23, 21, 20, 22]
11.413[20, 21, 21, 18, 21, 22, 21, 22]
11.436[20, 16, 20, 20, 20, 17, 20, 23]
11.45[18, 18, 19, 19, 21, 20, 18, 22]
11.473[18, 19, 19, 21, 23, 22, 19, 23]
11.496[19, 19, 18, 21, 23, 24, 21, 21]
11.51[18, 20, 19, 22, 24, 23, 23, 20]
11.533[17, 21, 20, 20, 24, 22, 25, 18]
11.555[17, 21, 22, 22, 23, 23, 26, 21]
11.577[17, 21, 21, 20, 20, 22, 27, 22]
11.594[16, 22, 23, 22, 21, 20, 27, 24]
11.615[16, 21, 22, 21, 19, 25, 26, 25]
11.637[17, 22, 21, 21, 19, 24, 23, 27]
11.661[17, 21, 19, 19, 21, 23, 22, 27]
11.675[16, 19, 20, 21, 21, 25, 20, 25]
11.699[18, 18, 20, 21, 22, 25, 18, 25]
11.714[17, 19, 20, 21, 22, 21, 18, 26]
11.735[17, 18, 21, 21, 23, 22, 17, 24]
11.765[19, 18, 21, 22, 23, 24, 18, 23]
11.775[18, 21, 23, 20, 22, 23, 19, 23]
11.795[16, 22, 23, 21, 21, 24, 19, 22]
11.817[18, 24, 23, 22, 23, 24, 21, 23]
11.834[17, 24, 22, 23, 21, 24, 21, 25]
11.855[16, 23, 23, 23, 20, 21, 21, 27]
11.878[18, 22, 21, 23, 21, 20, 21, 28]
11.894[19, 22, 19, 21, 23, 20, 23, 30]
11.915[17, 22, 21, 22, 20, 22, 21, 31]
11.938[19, 24, 20, 22, 23, 21, 22, 28]
11.954[19, 24, 20, 21, 23, 21, 21, 26]
11.975[19, 24, 20, 20, 23, 21, 21, 26]
11.997[20, 24, 22, 21, 21, 22, 19, 26]
12.014[21, 21, 21, 19, 24, 21, 16, 24]
12.035[18, 19, 21, 18, 22, 22, 17, 24]
12.057[18, 17, 22, 19, 20, 21, 17, 29]
12.074[18, 16, 22, 20, 23, 23, 19, 27]
12.095[20, 18, 21, 20, 24, 21, 19, 28]
12.117[19, 20, 19, 19, 22, 21, 19, 30]
12.134[21, 20, 19, 21, 23, 22, 20, 29]
12.155[20, 22, 18, 20, 23, 26, 20, 26]
12.177[21, 23, 22, 22, 20, 26, 18, 26]
12.194[18, 20, 22, 21, 22, 26, 18, 22]
12.215[18, 20, 23, 21, 23, 27, 20, 19]
12.237[19, 21, 24, 20, 22, 28, 18, 21]
12.254[20, 19, 25, 23, 23, 24, 20, 22]
12.275[19, 19, 21, 22, 23, 24, 20, 22]
12.297[18, 21, 22, 22, 20, 24, 20, 23]
12.314[22, 21, 22, 24, 20, 23, 19, 24]
12.334[21, 21, 20, 25, 23, 21, 19, 21]
12.357[22, 22, 19, 23, 21, 23, 16, 20]
12.374[21, 22, 19, 22, 25, 22, 16, 21]
12.394[23, 22, 19, 24, 25, 21, 16, 21]
12.417[21, 21, 18, 23, 25, 19, 19, 21]
12.434[21, 18, 18, 22, 23, 20, 19, 23]
12.454[20, 19, 18, 22, 24, 17, 19, 23]
12.477[20, 21, 20, 21, 20, 16, 20, 21]
12.492[21, 21, 20, 19, 21, 17, 20, 19]
12.515[19, 22, 21, 19, 21, 22, 18, 23]
12.537[20, 23, 21, 21, 19, 22, 17, 23]
12.552[20, 22, 22, 20, 20, 24, 22, 24]
12.575[21, 24, 22, 22, 21, 25, 21, 24]
12.597[20, 24, 20, 22, 21, 25, 22, 24]
12.612[21, 24, 21, 22, 20, 21, 22, 22]
12.635[20, 23, 20, 20, 23, 22, 24, 22]
12.657[19, 25, 20, 22, 22, 20, 21, 21]
12.68[20, 23, 19, 20, 22, 21, 21, 21]
12.695[21, 23, 20, 19, 22, 20, 21, 21]
12.717[20, 24, 21, 20, 23, 23, 22, 21]
12.74[20, 23, 23, 20, 22, 24, 21, 22]
12.755[22, 21, 22, 19, 23, 23, 21, 22]
12.778[20, 21, 23, 21, 23, 22, 22, 23]
12.8[17, 20, 22, 22, 22, 22, 22, 23]
12.814[19, 18, 20, 21, 21, 19, 22, 22]
12.837[18, 20, 21, 20, 20, 18, 21, 20]
12.86[17, 20, 23, 23, 20, 18, 22, 21]
12.874[18, 22, 32, 21, 20, 16, 21, 20]
12.897[21, 23, 34, 20, 20, 19, 18, 19]
12.92[20, 24, 35, 22, 19, 19, 22, 18]
12.934[20, 24, 33, 22, 19, 17, 22, 19]
12.957[21, 24, 33, 19, 22, 18, 20, 20]
12.98[19, 22, 24, 21, 20, 24, 22, 20]
12.995[22, 24, 22, 21, 20, 21, 22, 20]
13.017[22, 24, 21, 18, 24, 22, 20, 22]
13.041[22, 24, 21, 20, 24, 22, 20, 20]
13.055[22, 25, 20, 21, 21, 24, 22, 22]
13.077[23, 25, 20, 20, 22, 19, 21, 22]
13.1[19, 22, 19, 22, 22, 20, 21, 22]
13.115[19, 22, 20, 23, 20, 18, 20, 22]
13.137[21, 22, 21, 21, 20, 21, 21, 23]
13.16[19, 22, 24, 22, 21, 20, 21, 19]
13.175[20, 22, 23, 23, 21, 20, 21, 21]
13.199[20, 22, 23, 21, 20, 21, 21, 20]
13.22[19, 21, 21, 20, 21, 23, 21, 21]
13.242[17, 20, 23, 21, 21, 20, 20, 22]
13.258[17, 20, 20, 19, 19, 20, 18, 23]
13.28[17, 20, 20, 19, 23, 20, 17, 22]
13.296[18, 20, 22, 20, 23, 22, 16, 22]
13.317[18, 22, 24, 19, 21, 21, 17, 20]
13.34[19, 21, 23, 18, 23, 21, 17, 19]
13.356[21, 21, 23, 21, 23, 21, 17, 17]
13.377[20, 20, 24, 21, 20, 21, 17, 16]
13.4[20, 21, 22, 19, 21, 17, 18, 16]
13.415[21, 19, 20, 19, 20, 18, 17, 16]
13.437[21, 19, 20, 21, 19, 17, 16, 18]
13.46[19, 19, 20, 18, 21, 18, 20, 19]
13.482[20, 22, 19, 18, 20, 20, 21, 20]
13.497[19, 20, 20, 19, 20, 19, 22, 21]
13.52[18, 21, 21, 20, 20, 21, 20, 22]
13.535[18, 20, 22, 20, 19, 20, 21, 20]
13.558[21, 19, 21, 23, 19, 19, 19, 22]
13.58[20, 17, 20, 23, 22, 19, 18, 22]
13.595[20, 21, 21, 22, 22, 20, 20, 23]
13.617[20, 20, 20, 22, 22, 19, 20, 21]
13.64[20, 22, 18, 19, 23, 20, 22, 23]
13.662[20, 23, 17, 16, 21, 20, 21, 21]
13.677[19, 24, 19, 18, 18, 20, 21, 21]
13.7[19, 21, 19, 19, 21, 20, 19, 25]
13.723[19, 23, 19, 18, 23, 22, 20, 26]
13.737[18, 23, 19, 19, 23, 21, 20, 27]
13.76[16, 22, 19, 20, 22, 22, 19, 25]
13.783[17, 21, 19, 20, 24, 23, 21, 28]
13.805[17, 23, 18, 22, 24, 22, 22, 24]
13.82[17, 23, 20, 22, 23, 21, 21, 24]
13.843[19, 22, 21, 22, 24, 23, 20, 22]
13.857[23, 23, 23, 21, 26, 20, 21, 24]
13.88[22, 23, 22, 21, 23, 19, 19, 22]
13.902[21, 20, 22, 18, 22, 21, 18, 22]
13.917[23, 19, 20, 19, 22, 21, 19, 22]
13.94[22, 20, 23, 18, 21, 21, 19, 24]
13.962[19, 20, 20, 20, 20, 24, 20, 22]
13.977[20, 20, 19, 19, 21, 25, 19, 20]
14.0[19, 22, 19, 19, 18, 23, 21, 19]
14.022[17, 21, 22, 20, 19, 23, 21, 21]
14.037[18, 23, 19, 20, 19, 21, 19, 18]
14.06[17, 22, 20, 19, 20, 18, 18, 20]
14.082[16, 21, 21, 19, 20, 20, 19, 21]
14.097[18, 21, 21, 19, 20, 20, 18, 21]
14.12[19, 24, 22, 20, 19, 18, 18, 21]
14.142[19, 22, 22, 20, 22, 22, 19, 23]
14.157[18, 21, 21, 19, 23, 23, 21, 23]
14.18[19, 23, 21, 21, 21, 20, 21, 22]
14.202[17, 22, 21, 22, 24, 24, 20, 24]
14.217[18, 21, 18, 21, 23, 26, 21, 24]
14.24[16, 20, 19, 21, 22, 24, 22, 22]
14.262[16, 21, 19, 22, 22, 24, 21, 21]
14.278[16, 21, 20, 20, 23, 23, 20, 24]
14.3[18, 21, 20, 19, 22, 20, 19, 22]
14.323[16, 20, 20, 17, 22, 21, 18, 21]
14.337[17, 20, 20, 17, 20, 22, 18, 21]
14.36[21, 20, 21, 16, 19, 22, 19, 21]
14.383[20, 20, 22, 20, 21, 23, 19, 18]
14.397[19, 19, 22, 21, 21, 23, 19, 17]
14.42[21, 20, 22, 25, 23, 24, 18, 18]
14.443[20, 21, 23, 25, 22, 26, 18, 18]
14.466[18, 20, 22, 24, 22, 26, 18, 18]
14.48[19, 20, 22, 21, 19, 27, 17, 17]
14.503[19, 21, 21, 22, 19, 27, 18, 19]
14.517[19, 20, 24, 17, 18, 23, 20, 23]
14.54[19, 21, 22, 18, 18, 20, 18, 22]
14.563[18, 23, 22, 20, 21, 19, 20, 23]
14.585[20, 23, 22, 20, 23, 17, 21, 23]
14.6[19, 24, 24, 22, 22, 18, 21, 24]
14.63[17, 23, 22, 22, 22, 18, 20, 21]
14.646[16, 22, 23, 21, 24, 19, 19, 21]
14.66[17, 22, 23, 20, 23, 21, 16, 21]
14.683[15, 22, 22, 21, 24, 23, 17, 22]
14.705[18, 22, 22, 20, 24, 22, 21, 21]
14.72[19, 22, 21, 19, 23, 21, 21, 20]
14.744[21, 22, 21, 21, 20, 20, 23, 20]
14.767[21, 20, 21, 20, 20, 19, 23, 19]
14.78[24, 21, 20, 21, 14, 21, 22, 19]
14.803[22, 20, 20, 19, 18, 20, 20, 19]
14.826[21, 22, 20, 20, 18, 21, 20, 23]
14.84[19, 23, 19, 18, 21, 22, 20, 24]
14.863[20, 22, 20, 17, 22, 23, 18, 23]
14.886[16, 20, 21, 17, 23, 19, 19, 25]
14.9[17, 22, 20, 18, 22, 20, 19, 25]
14.923[19, 22, 20, 18, 23, 22, 18, 22]
14.946[19, 21, 22, 19, 22, 21, 18, 23]
14.96[19, 22, 21, 21, 21, 19, 17, 24]
14.983[19, 22, 21, 21, 24, 21, 18, 23]
15.006[20, 21, 20, 22, 24, 26, 19, 24]
15.02[20, 20, 22, 22, 23, 23, 18, 23]
15.043[21, 21, 19, 21, 22, 25, 19, 23]
15.066[20, 21, 18, 23, 23, 25, 20, 24]
15.08[21, 22, 19, 23, 19, 24, 18, 25]
15.103[20, 20, 21, 23, 20, 21, 16, 24]
15.125[20, 20, 19, 22, 22, 22, 18, 26]
15.14[20, 19, 20, 22, 22, 21, 20, 25]
15.163[22, 21, 21, 20, 24, 21, 19, 23]
15.186[20, 19, 20, 21, 24, 22, 19, 23]
15.2[22, 20, 19, 21, 25, 20, 22, 23]
15.223[22, 19, 19, 22, 24, 23, 23, 21]
15.245[21, 18, 19, 21, 25, 24, 21, 22]
15.26[21, 17, 19, 22, 23, 26, 23, 21]
15.283[21, 17, 20, 20, 25, 28, 24, 21]
15.305[19, 18, 19, 22, 23, 29, 21, 20]
15.32[19, 21, 20, 20, 22, 27, 19, 22]
15.343[19, 23, 22, 23, 21, 27, 19, 23]
15.365[18, 24, 24, 23, 21, 27, 20, 24]
15.38[17, 25, 23, 23, 18, 24, 19, 22]
15.403[21, 24, 24, 21, 19, 24, 19, 22]
15.425[20, 20, 23, 21, 21, 21, 18, 22]
15.44[21, 19, 23, 19, 23, 24, 20, 20]
15.463[20, 18, 21, 21, 22, 20, 18, 20]
15.485[22, 17, 21, 20, 21, 21, 20, 20]
15.508[18, 21, 19, 21, 21, 22, 20, 19]
15.523[19, 25, 18, 22, 22, 23, 21, 20]
15.545[20, 25, 17, 21, 23, 19, 20, 20]
15.568[20, 24, 17, 19, 22, 19, 21, 19]
15.583[20, 24, 17, 21, 23, 18, 23, 20]
15.605[22, 22, 20, 19, 25, 17, 25, 21]
15.628[26, 18, 22, 20, 23, 18, 24, 20]
15.643[24, 19, 22, 21, 23, 19, 24, 20]
15.666[24, 20, 22, 20, 24, 21, 24, 22]
15.695[24, 20, 22, 20, 25, 22, 22, 21]
15.703[23, 18, 20, 20, 23, 21, 20, 21]
15.725[18, 19, 20, 18, 24, 23, 22, 23]
15.748[18, 19, 19, 19, 24, 23, 21, 23]
15.763[19, 19, 18, 20, 22, 23, 22, 22]
15.786[19, 20, 18, 19, 21, 22, 20, 24]
15.808[18, 19, 20, 20, 22, 23, 20, 23]
15.823[19, 19, 19, 20, 22, 25, 21, 21]
15.845[18, 19, 19, 22, 20, 23, 22, 25]
15.868[20, 17, 22, 20, 24, 28, 21, 24]
15.883[20, 18, 21, 21, 26, 28, 23, 21]
15.906[20, 22, 20, 22, 25, 29, 22, 22]
15.928[21, 21, 21, 22, 24, 26, 20, 25]
15.943[23, 21, 23, 23, 25, 28, 20, 22]
15.965[23, 22, 21, 24, 25, 23, 19, 21]
15.988[21, 21, 22, 23, 22, 24, 18, 22]
16.002[22, 20, 22, 24, 23, 24, 19, 21]
16.025[21, 23, 21, 24, 22, 24, 21, 22]
16.048[20, 22, 21, 23, 25, 21, 21, 21]
16.062[20, 24, 22, 22, 22, 23, 23, 22]
16.085[21, 23, 20, 21, 24, 22, 22, 22]
16.108[19, 21, 18, 18, 22, 22, 22, 25]
16.122[19, 20, 18, 19, 23, 21, 20, 21]
16.145[18, 21, 16, 19, 24, 25, 19, 19]
16.168[18, 18, 18, 21, 24, 23, 16, 20]
16.182[19, 19, 19, 20, 24, 24, 13, 19]
16.205[20, 19, 21, 21, 25, 21, 15, 16]
16.228[21, 18, 21, 20, 24, 25, 15, 20]
16.242[20, 20, 23, 19, 20, 21, 18, 22]
16.266[20, 20, 23, 18, 22, 23, 18, 23]
16.288[20, 19, 23, 17, 21, 22, 19, 25]
16.302[18, 20, 21, 18, 20, 23, 20, 25]
16.325[19, 20, 21, 18, 20, 19, 20, 25]
16.348[19, 20, 22, 16, 19, 20, 18, 23]
16.371[20, 20, 18, 18, 19, 23, 19, 23]
16.385[20, 22, 19, 18, 22, 25, 19, 24]
16.408[20, 20, 19, 19, 23, 25, 17, 23]
16.422[18, 20, 20, 19, 24, 25, 18, 22]
16.446[18, 21, 19, 20, 25, 26, 19, 22]
16.468[15, 22, 21, 19, 25, 22, 19, 22]
16.49[16, 20, 22, 18, 23, 20, 20, 20]
16.506[17, 20, 22, 18, 23, 20, 22, 21]
16.528[18, 20, 22, 19, 22, 21, 23, 22]
16.55[17, 20, 22, 19, 24, 20, 24, 22]
16.566[19, 18, 26, 18, 22, 19, 24, 21]
16.588[18, 18, 27, 21, 23, 21, 24, 23]
16.61[17, 18, 28, 22, 22, 24, 21, 22]
16.626[19, 20, 28, 21, 22, 24, 23, 23]
16.647[19, 17, 28, 22, 21, 25, 22, 22]
16.67[18, 17, 24, 22, 27, 28, 23, 23]
16.686[19, 19, 21, 21, 25, 26, 22, 20]
16.707[18, 20, 18, 19, 25, 23, 24, 22]
16.73[16, 20, 19, 24, 26, 22, 22, 19]
16.746[16, 20, 20, 23, 24, 21, 22, 19]
16.767[18, 19, 17, 23, 18, 21, 20, 21]
16.79[22, 19, 19, 22, 18, 23, 19, 21]
16.806[22, 19, 21, 23, 18, 23, 18, 21]
16.827[23, 20, 21, 19, 23, 23, 18, 21]
16.85[23, 20, 20, 19, 26, 21, 17, 21]
16.867[23, 21, 20, 19, 27, 20, 18, 21]
16.887[19, 20, 18, 19, 28, 20, 18, 21]
16.91[20, 21, 18, 18, 28, 21, 20, 24]
16.926[19, 20, 17, 18, 25, 23, 19, 24]
16.947[19, 20, 18, 19, 24, 29, 20, 26]
16.97[19, 21, 18, 18, 24, 30, 20, 32]
16.986[21, 23, 19, 18, 22, 31, 22, 34]
17.007[21, 22, 21, 18, 23, 33, 21, 32]
17.03[21, 21, 20, 20, 25, 32, 20, 33]
17.046[22, 23, 20, 18, 27, 27, 22, 41]
17.067[24, 23, 21, 21, 26, 27, 24, 51]
17.09[24, 21, 23, 22, 26, 28, 23, 53]
17.106[25, 22, 20, 23, 27, 29, 23, 53]
17.127[26, 22, 23, 21, 24, 29, 24, 53]
17.15[25, 18, 25, 21, 22, 29, 25, 46]
17.166[23, 20, 25, 19, 23, 29, 24, 28]
17.187[23, 19, 23, 19, 28, 27, 26, 24]
17.21[21, 18, 25, 19, 27, 28, 25, 24]
17.226[18, 19, 23, 24, 29, 26, 25, 24]
17.247[19, 19, 21, 24, 30, 26, 21, 25]
17.27[20, 17, 21, 25, 32, 24, 18, 24]
17.287[21, 21, 24, 24, 30, 25, 14, 24]
17.307[22, 23, 23, 23, 35, 23, 15, 40]
17.33[23, 24, 21, 22, 35, 27, 18, 44]
17.346[23, 25, 21, 22, 35, 30, 20, 47]
17.368[23, 25, 22, 23, 36, 31, 22, 47]
17.39[22, 24, 20, 26, 36, 36, 23, 47]
17.413[22, 23, 20, 25, 30, 38, 23, 34]
17.435[22, 23, 20, 27, 29, 35, 24, 31]
17.45[21, 23, 24, 27, 27, 34, 23, 25]
17.472[19, 22, 22, 25, 24, 32, 21, 33]
17.487[20, 20, 22, 22, 21, 30, 21, 35]
17.51[21, 22, 23, 24, 27, 35, 24, 36]
17.532[19, 22, 22, 19, 26, 40, 25, 36]
17.555[20, 21, 18, 17, 27, 39, 27, 37]
17.57[23, 20, 19, 17, 35, 43, 29, 35]
17.6[23, 20, 19, 18, 40, 40, 27, 37]
17.607[23, 18, 20, 21, 37, 32, 30, 36]
17.63[23, 16, 19, 21, 39, 28, 27, 35]
17.654[22, 17, 22, 23, 42, 35, 27, 38]
17.675[19, 19, 23, 25, 36, 34, 27, 34]
17.69[19, 21, 24, 25, 38, 36, 29, 29]
17.714[19, 21, 24, 20, 39, 39, 24, 29]
17.727[21, 23, 24, 22, 38, 38, 24, 31]
17.75[22, 23, 23, 19, 34, 35, 22, 27]
17.772[21, 22, 21, 21, 32, 32, 27, 25]
17.787[21, 21, 21, 22, 23, 32, 27, 30]
17.81[21, 21, 25, 24, 24, 28, 28, 30]
17.832[21, 21, 27, 24, 22, 32, 26, 31]
17.847[21, 21, 27, 28, 23, 30, 31, 29]
17.87[23, 22, 29, 26, 24, 32, 30, 33]
17.892[23, 20, 28, 26, 27, 38, 32, 34]
17.907[21, 20, 23, 28, 25, 39, 32, 35]
17.93[20, 20, 22, 28, 27, 38, 34, 41]
17.952[22, 18, 23, 25, 28, 36, 30, 43]
17.967[21, 16, 24, 24, 28, 37, 26, 44]
17.991[22, 15, 24, 28, 28, 32, 25, 41]
18.012[23, 19, 25, 26, 31, 31, 30, 45]
18.027[23, 20, 25, 30, 33, 35, 29, 41]
18.05[20, 22, 24, 31, 32, 35, 29, 42]
18.072[21, 24, 22, 31, 34, 33, 29, 38]
18.087[19, 25, 23, 28, 31, 31, 28, 38]
18.11[21, 22, 22, 29, 30, 32, 27, 33]
18.132[21, 22, 22, 24, 28, 26, 26, 29]
18.147[23, 21, 22, 23, 30, 37, 27, 28]
18.17[23, 17, 22, 25, 29, 41, 32, 28]
18.192[23, 18, 21, 24, 30, 42, 32, 38]
18.207[21, 20, 22, 22, 31, 48, 30, 37]
18.23[21, 20, 25, 24, 33, 48, 31, 38]
18.252[20, 20, 24, 23, 32, 40, 35, 39]
18.267[20, 21, 23, 21, 30, 42, 31, 45]
18.29[24, 20, 25, 20, 31, 46, 32, 45]
18.312[24, 19, 25, 22, 36, 52, 29, 46]
18.327[22, 18, 21, 20, 38, 51, 27, 45]
18.35[22, 21, 23, 21, 37, 51, 24, 43]
18.372[21, 23, 25, 22, 36, 48, 23, 38]
18.395[20, 22, 21, 23, 34, 44, 23, 33]
18.41[20, 21, 20, 23, 30, 27, 26, 32]
18.432[21, 23, 19, 22, 26, 33, 27, 33]
18.455[21, 21, 17, 22, 28, 37, 24, 34]
18.47[22, 20, 18, 24, 34, 35, 24, 32]
18.492[22, 21, 21, 22, 36, 35, 24, 33]
18.515[20, 21, 23, 20, 33, 35, 21, 31]
18.53[20, 21, 25, 20, 33, 34, 23, 37]
18.552[20, 21, 25, 21, 37, 31, 24, 36]
18.575[20, 22, 23, 21, 33, 31, 22, 35]
18.598[17, 20, 23, 21, 33, 30, 25, 35]
18.612[19, 21, 24, 20, 32, 31, 25, 35]
18.643[21, 23, 21, 25, 31, 25, 25, 29]
18.65[22, 21, 21, 26, 26, 24, 25, 30]
18.672[20, 21, 20, 24, 26, 29, 25, 32]
18.695[21, 22, 19, 25, 25, 33, 23, 31]
18.71[22, 22, 16, 26, 26, 32, 24, 31]
18.732[21, 21, 20, 21, 28, 36, 23, 30]
18.755[23, 22, 21, 18, 26, 35, 25, 31]
18.77[23, 21, 24, 18, 28, 32, 25, 33]
18.792[22, 23, 24, 18, 29, 31, 24, 40]
18.831[22, 22, 25, 21, 29, 33, 25, 39]
18.839[21, 20, 25, 22, 29, 29, 24, 40]
18.852[19, 20, 24, 24, 29, 37, 25, 40]
18.875[21, 21, 22, 25, 32, 40, 27, 38]
18.89[21, 18, 22, 24, 31, 37, 28, 27]
18.912[17, 20, 21, 20, 32, 38, 26, 34]
18.934[18, 21, 19, 20, 30, 37, 27, 34]
18.95[18, 22, 19, 18, 32, 30, 23, 33]
18.972[16, 21, 19, 17, 28, 25, 23, 32]
18.995[17, 20, 19, 20, 33, 33, 24, 32]
19.01[22, 19, 18, 20, 35, 32, 23, 24]
19.032[23, 20, 18, 20, 36, 35, 24, 24]
19.055[24, 21, 18, 19, 35, 34, 27, 22]
19.07[24, 20, 19, 20, 35, 34, 24, 26]
19.092[24, 20, 18, 17, 28, 29, 23, 31]
19.115[21, 22, 19, 18, 31, 33, 26, 33]
19.138[21, 24, 19, 18, 31, 33, 26, 30]
19.152[19, 21, 18, 18, 32, 33, 26, 31]
19.183[19, 24, 19, 19, 32, 35, 26, 29]
19.192[18, 24, 20, 19, 36, 36, 26, 25]
19.212[18, 23, 21, 19, 33, 32, 26, 26]
19.235[18, 21, 22, 18, 32, 33, 25, 27]
19.25[21, 22, 23, 18, 30, 34, 22, 27]
19.272[23, 20, 23, 18, 30, 37, 24, 26]
19.295[26, 24, 22, 16, 27, 34, 23, 26]
19.318[24, 23, 23, 17, 31, 34, 21, 27]
19.34[25, 20, 23, 18, 32, 40, 21, 28]
19.355[23, 21, 22, 18, 34, 40, 23, 27]
19.378[23, 22, 22, 19, 35, 37, 22, 28]
19.392[20, 20, 23, 21, 36, 37, 24, 29]
19.415[23, 21, 21, 21, 28, 36, 24, 25]
19.438[23, 22, 23, 22, 27, 25, 25, 22]
19.452[22, 22, 22, 22, 26, 28, 24, 25]
19.475[22, 22, 22, 22, 24, 26, 26, 23]
19.498[21, 19, 22, 23, 21, 23, 24, 22]
19.512[18, 19, 23, 21, 28, 21, 23, 24]
19.534[21, 18, 22, 18, 28, 23, 21, 25]
19.558[21, 18, 23, 20, 27, 20, 21, 26]
19.572[20, 17, 22, 19, 25, 23, 18, 25]
19.595[22, 19, 23, 16, 28, 24, 17, 27]
19.618[21, 17, 22, 16, 26, 27, 18, 25]
19.632[17, 20, 21, 19, 25, 26, 18, 23]
19.655[18, 20, 21, 18, 27, 25, 19, 22]
19.678[18, 19, 21, 18, 28, 27, 19, 23]
19.692[19, 19, 17, 21, 27, 28, 19, 22]
19.714[23, 21, 17, 20, 26, 28, 19, 21]
19.738[23, 18, 17, 19, 26, 27, 20, 22]
19.752[21, 19, 19, 19, 25, 28, 20, 22]
19.775[22, 21, 19, 19, 24, 24, 22, 23]
19.798[20, 21, 20, 18, 22, 26, 23, 24]
19.812[18, 20, 20, 19, 20, 23, 25, 24]
19.835[19, 21, 22, 17, 21, 24, 24, 24]
19.858[20, 21, 19, 17, 20, 23, 24, 26]
19.872[19, 21, 19, 19, 22, 25, 22, 29]
19.896[21, 20, 21, 19, 23, 25, 20, 27]
19.918[19, 20, 22, 21, 23, 26, 18, 29]
19.932[21, 20, 21, 23, 23, 27, 17, 29]
19.955[21, 20, 22, 22, 22, 27, 16, 26]
19.978[23, 20, 21, 22, 21, 26, 18, 24]
19.992[22, 20, 18, 21, 20, 23, 17, 23]
20.015[22, 19, 19, 19, 22, 22, 18, 22]
20.038[19, 18, 21, 17, 22, 21, 18, 24]
20.052[20, 19, 21, 18, 28, 25, 18, 24]
20.075[19, 18, 22, 19, 26, 28, 17, 21]
20.098[20, 21, 23, 18, 28, 27, 17, 23]
20.112[21, 21, 22, 18, 29, 26, 19, 23]
20.135[22, 22, 20, 20, 27, 30, 20, 23]
20.158[21, 21, 21, 20, 24, 27, 19, 25]
20.172[21, 23, 20, 19, 25, 22, 22, 24]
20.195[19, 22, 22, 21, 22, 22, 23, 25]
20.218[20, 21, 22, 23, 20, 23, 23, 26]
20.24[20, 23, 24, 22, 22, 17, 22, 24]
20.255[22, 24, 22, 23, 21, 17, 23, 22]
20.278[23, 22, 23, 23, 23, 18, 22, 24]
20.301[24, 21, 21, 23, 23, 19, 23, 22]
20.315[24, 21, 22, 22, 23, 20, 22, 21]
20.338[23, 19, 21, 23, 24, 20, 22, 19]
20.368[22, 19, 21, 23, 25, 22, 22, 23]
20.375[21, 20, 20, 26, 22, 22, 22, 21]
20.398[21, 20, 20, 26, 23, 21, 21, 21]
20.42[20, 20, 19, 24, 22, 20, 20, 22]
20.435[20, 20, 19, 24, 21, 23, 20, 24]
20.458[21, 18, 19, 23, 20, 21, 19, 21]
20.481[21, 18, 19, 20, 23, 22, 19, 21]
20.495[20, 18, 18, 20, 23, 23, 18, 21]
20.518[21, 18, 20, 21, 26, 23, 20, 20]
20.541[21, 18, 19, 20, 26, 20, 20, 18]
20.555[20, 18, 18, 23, 24, 20, 20, 20]
20.578[19, 18, 19, 23, 21, 24, 19, 20]
20.601[18, 18, 19, 24, 21, 24, 20, 20]
20.615[18, 18, 18, 23, 19, 23, 22, 20]
20.638[18, 20, 18, 23, 19, 25, 23, 21]
20.66[17, 20, 18, 20, 23, 27, 22, 20]
20.676[19, 21, 17, 21, 25, 24, 21, 21]
20.698[22, 21, 17, 21, 26, 24, 21, 23]
20.72[21, 22, 18, 21, 26, 25, 20, 25]
20.743[21, 21, 19, 19, 26, 23, 18, 24]
20.758[19, 23, 23, 21, 22, 21, 19, 25]
20.78[17, 22, 23, 19, 24, 19, 21, 23]
20.795[17, 23, 24, 18, 26, 23, 20, 22]
20.818[18, 22, 21, 18, 26, 22, 19, 20]
20.84[16, 21, 21, 17, 25, 22, 21, 21]
20.854[17, 21, 19, 18, 26, 24, 21, 22]
20.878[18, 21, 19, 17, 22, 25, 20, 22]
20.9[17, 20, 17, 18, 20, 26, 20, 21]
20.914[18, 20, 21, 20, 19, 25, 21, 23]
20.938[19, 20, 21, 21, 19, 27, 21, 25]
20.96[21, 19, 21, 19, 22, 25, 23, 24]
20.975[21, 19, 21, 19, 23, 25, 24, 25]
20.998[19, 19, 21, 20, 22, 22, 23, 26]
21.02[20, 19, 19, 18, 21, 23, 22, 24]
21.035[22, 19, 20, 17, 23, 22, 21, 23]
21.058[22, 18, 22, 18, 21, 24, 20, 23]
21.08[22, 17, 22, 17, 22, 23, 19, 20]
21.094[22, 16, 24, 19, 22, 21, 19, 17]
21.118[22, 16, 30, 18, 24, 21, 20, 20]
21.14[20, 16, 33, 18, 23, 21, 22, 20]
21.154[20, 17, 31, 17, 23, 19, 20, 21]
21.178[22, 17, 32, 20, 24, 23, 19, 22]
21.2[23, 19, 30, 19, 23, 25, 20, 24]
21.223[21, 20, 25, 18, 21, 24, 20, 22]
21.238[22, 20, 20, 19, 21, 25, 18, 22]
21.26[20, 20, 19, 19, 21, 27, 20, 22]
21.283[19, 19, 18, 17, 20, 25, 21, 22]
21.298[17, 18, 18, 17, 20, 23, 24, 19]
21.32[19, 18, 15, 19, 21, 27, 23, 20]
21.343[18, 18, 16, 21, 19, 27, 22, 21]
21.358[19, 18, 18, 20, 19, 22, 20, 20]
21.38[19, 18, 17, 21, 20, 22, 20, 22]
21.403[21, 18, 16, 22, 21, 22, 16, 22]
21.418[19, 18, 19, 21, 19, 17, 16, 23]
21.441[19, 17, 22, 19, 19, 20, 18, 22]
21.463[18, 18, 24, 19, 21, 20, 19, 25]
21.478[19, 19, 23, 19, 22, 21, 18, 22]
21.501[17, 19, 25, 19, 20, 21, 18, 25]
21.523[18, 20, 24, 18, 21, 23, 20, 23]
21.538[17, 20, 21, 20, 21, 20, 18, 22]
21.561[16, 18, 19, 22, 18, 22, 17, 21]
21.582[18, 19, 20, 21, 16, 21, 20, 22]
21.598[19, 20, 19, 23, 18, 20, 20, 20]
21.619[20, 20, 20, 23, 18, 18, 18, 21]
21.642[20, 20, 19, 23, 18, 21, 21, 22]
21.659[22, 21, 20, 21, 19, 20, 21, 23]
21.679[20, 21, 18, 21, 20, 21, 20, 24]
21.702[20, 19, 18, 19, 20, 23, 21, 24]
21.718[19, 17, 17, 19, 21, 25, 20, 23]
21.739[19, 20, 17, 17, 22, 23, 20, 23]
21.762[18, 21, 16, 17, 21, 22, 21, 21]
21.778[19, 21, 20, 17, 20, 22, 21, 21]
21.799[19, 24, 21, 18, 20, 21, 21, 20]
21.822[20, 25, 20, 18, 22, 21, 21, 22]
21.839[21, 24, 21, 20, 22, 20, 20, 20]
21.859[22, 23, 23, 22, 22, 22, 19, 21]
21.882[20, 21, 20, 23, 22, 22, 18, 20]
21.899[19, 18, 20, 22, 22, 24, 19, 19]
21.919[18, 17, 20, 23, 20, 22, 19, 18]
21.942[17, 16, 19, 21, 22, 21, 19, 19]
21.958[15, 17, 17, 20, 22, 22, 17, 18]
21.979[15, 18, 17, 18, 22, 21, 17, 19]
22.002[17, 19, 17, 20, 22, 19, 18, 19]
22.018[18, 19, 17, 21, 22, 19, 18, 20]
22.039[18, 19, 17, 22, 17, 21, 18, 22]
22.063[20, 19, 17, 21, 19, 19, 18, 22]
22.078[20, 21, 21, 22, 18, 21, 20, 23]
22.099[18, 21, 20, 21, 21, 21, 19, 23]
22.122[19, 20, 21, 19, 21, 21, 18, 22]
22.145[20, 22, 23, 20, 23, 19, 21, 19]
22.159[21, 24, 24, 19, 22, 23, 22, 22]
22.182[22, 22, 21, 18, 22, 23, 24, 22]
22.205[22, 21, 22, 20, 19, 23, 22, 23]
22.219[24, 21, 22, 20, 22, 23, 22, 22]
22.249[23, 22, 20, 20, 23, 23, 20, 23]
22.264[20, 20, 20, 22, 22, 21, 21, 21]
22.279[20, 20, 22, 22, 25, 21, 19, 20]
22.309[20, 22, 23, 22, 24, 21, 19, 21]
22.324[16, 21, 23, 21, 22, 21, 21, 24]
22.34[17, 19, 23, 22, 20, 23, 21, 25]
22.362[18, 23, 22, 21, 21, 23, 21, 25]
22.385[18, 22, 19, 21, 20, 22, 20, 24]
22.399[18, 22, 19, 19, 20, 22, 23, 25]
22.422[18, 23, 18, 19, 21, 24, 23, 21]
22.445[18, 23, 18, 18, 21, 23, 24, 20]
22.459[18, 21, 19, 19, 19, 21, 23, 20]
22.482[18, 21, 20, 20, 18, 20, 23, 20]
22.504[20, 23, 22, 19, 16, 23, 21, 20]
22.519[20, 22, 22, 20, 21, 22, 21, 20]
22.542[20, 23, 22, 21, 19, 21, 20, 25]
22.565[20, 20, 23, 18, 21, 21, 19, 25]
22.579[20, 22, 24, 19, 22, 23, 21, 26]
22.61[19, 20, 21, 21, 22, 19, 20, 25]
22.624[17, 21, 22, 20, 17, 18, 20, 26]
22.639[18, 20, 21, 20, 18, 20, 21, 22]
22.662[18, 21, 20, 20, 19, 19, 22, 19]
22.684[18, 20, 20, 19, 20, 17, 21, 21]
22.699[19, 20, 19, 18, 20, 18, 23, 19]
22.722[19, 20, 20, 18, 19, 20, 22, 18]
22.744[20, 20, 21, 21, 18, 19, 21, 20]
22.767[20, 20, 21, 21, 19, 22, 20, 20]
22.782[21, 22, 20, 21, 18, 24, 22, 22]
22.804[20, 22, 21, 20, 19, 24, 20, 21]
22.819[22, 22, 21, 21, 20, 23, 20, 23]
22.842[20, 24, 20, 16, 23, 22, 19, 20]
22.864[19, 22, 19, 17, 20, 20, 19, 22]
22.879[18, 20, 20, 15, 19, 19, 16, 19]
22.902[18, 21, 18, 19, 19, 18, 19, 21]
22.924[18, 20, 20, 17, 18, 19, 18, 20]
22.939[19, 19, 19, 18, 18, 21, 20, 21]
22.962[19, 21, 21, 18, 19, 21, 22, 20]
22.985[18, 20, 22, 19, 20, 21, 24, 19]
23.001[19, 20, 21, 17, 20, 20, 21, 19]
23.022[19, 21, 19, 18, 23, 21, 22, 19]
23.044[19, 20, 19, 16, 23, 18, 22, 19]
23.067[19, 20, 18, 19, 24, 20, 20, 21]
23.083[20, 21, 17, 18, 22, 22, 17, 22]
23.105[21, 19, 20, 19, 24, 23, 19, 20]
23.127[20, 20, 19, 19, 23, 23, 18, 22]
23.142[21, 20, 20, 21, 23, 24, 17, 21]
23.164[21, 19, 19, 22, 21, 23, 16, 18]
23.187[21, 20, 18, 22, 22, 20, 19, 19]
23.202[22, 20, 16, 21, 21, 21, 17, 19]
23.24[23, 18, 18, 23, 20, 20, 18, 19]
23.247[22, 19, 19, 22, 20, 22, 17, 19]
23.262[21, 17, 19, 20, 22, 21, 18, 18]
23.284[21, 20, 19, 20, 22, 20, 16, 18]
23.307[20, 23, 21, 20, 21, 20, 16, 18]
23.322[17, 23, 20, 17, 24, 21, 17, 18]
23.344[19, 23, 21, 17, 23, 19, 18, 20]
23.367[21, 24, 20, 18, 22, 23, 18, 21]
23.382[20, 22, 20, 19, 22, 23, 18, 21]
23.405[21, 20, 20, 20, 22, 23, 17, 24]
23.427[22, 20, 19, 19, 17, 21, 19, 24]
23.443[21, 21, 19, 18, 17, 22, 18, 22]
23.464[21, 21, 21, 17, 19, 18, 18, 22]
23.487[22, 21, 21, 16, 20, 18, 20, 23]
23.502[19, 22, 22, 19, 18, 18, 21, 20]
23.524[19, 21, 23, 21, 19, 20, 19, 20]
23.547[19, 21, 22, 22, 21, 18, 18, 22]
23.563[17, 20, 21, 21, 20, 20, 19, 21]
23.584[17, 19, 23, 24, 20, 21, 19, 20]
23.607[18, 19, 21, 21, 21, 21, 19, 21]
23.622[17, 19, 21, 20, 22, 23, 19, 20]
23.645[18, 20, 19, 21, 21, 23, 20, 20]
23.667[18, 18, 19, 24, 21, 24, 20, 21]
23.682[17, 20, 16, 20, 21, 23, 20, 20]
23.705[18, 18, 18, 21, 21, 23, 21, 17]
23.727[19, 18, 21, 21, 20, 22, 21, 18]
23.742[16, 18, 22, 19, 21, 23, 21, 17]
23.765[17, 19, 21, 17, 22, 21, 21, 19]
23.787[18, 17, 23, 18, 21, 21, 20, 21]
23.802[21, 18, 22, 17, 20, 23, 18, 22]
23.824[20, 19, 21, 19, 19, 20, 18, 25]
23.847[22, 17, 21, 21, 20, 20, 17, 25]
23.862[22, 20, 21, 20, 18, 19, 18, 24]
23.885[22, 21, 22, 21, 19, 20, 17, 22]
23.915[19, 19, 20, 21, 19, 21, 17, 24]
23.922[19, 23, 21, 21, 18, 22, 16, 21]
23.944[18, 25, 21, 21, 17, 21, 18, 19]
23.967[20, 23, 22, 21, 17, 24, 18, 20]
23.982[19, 24, 21, 20, 19, 22, 18, 20]
24.004[20, 24, 22, 22, 19, 19, 17, 19]
24.027[19, 20, 20, 21, 20, 18, 22, 21]
24.05[20, 22, 23, 21, 20, 21, 21, 20]
24.064[19, 22, 22, 22, 20, 20, 20, 21]
24.095[19, 21, 21, 20, 21, 20, 21, 22]
24.11[20, 21, 23, 20, 21, 19, 21, 20]
24.125[23, 23, 24, 18, 21, 21, 19, 24]
24.147[24, 23, 23, 17, 21, 17, 18, 24]
24.171[23, 23, 22, 17, 21, 17, 20, 22]
24.184[26, 24, 22, 18, 18, 18, 20, 23]
24.207[27, 25, 20, 17, 19, 19, 20, 24]
24.23[25, 22, 21, 18, 19, 21, 20, 18]
24.244[22, 19, 19, 19, 19, 21, 20, 18]
24.267[22, 20, 21, 21, 22, 20, 19, 18]
24.29[18, 22, 21, 22, 22, 20, 19, 17]
24.304[20, 24, 20, 21, 22, 21, 19, 18]
24.327[21, 24, 19, 22, 20, 21, 18, 20]
24.35[21, 25, 20, 22, 21, 24, 19, 20]
24.365[21, 24, 19, 21, 19, 24, 19, 22]
24.387[21, 22, 19, 20, 19, 26, 19, 25]
24.41[18, 19, 21, 20, 22, 23, 20, 25]
24.424[19, 19, 21, 21, 22, 22, 20, 23]
24.447[20, 19, 22, 21, 22, 18, 22, 25]
24.471[19, 22, 22, 21, 22, 18, 22, 23]
24.484[19, 21, 21, 21, 22, 17, 23, 23]
24.507[20, 23, 22, 23, 21, 19, 22, 21]
24.53[19, 23, 21, 21, 19, 20, 21, 21]
24.544[19, 23, 21, 22, 20, 21, 19, 20]
24.567[20, 19, 21, 22, 19, 24, 20, 21]
24.59[21, 22, 21, 21, 18, 23, 17, 21]
24.604[20, 20, 21, 22, 17, 22, 20, 21]
24.627[21, 22, 22, 22, 22, 22, 20, 23]
24.65[20, 22, 22, 21, 22, 21, 21, 22]
24.664[19, 23, 23, 19, 22, 19, 20, 21]
24.695[19, 22, 22, 19, 23, 19, 23, 19]
24.71[20, 22, 22, 17, 23, 23, 20, 19]
24.725[18, 21, 22, 19, 19, 24, 21, 20]
24.747[19, 20, 21, 20, 21, 23, 20, 21]
24.771[19, 19, 22, 21, 22, 22, 22, 22]
24.784[19, 18, 23, 22, 21, 22, 19, 23]
24.807[19, 19, 22, 22, 23, 17, 20, 23]
24.83[19, 19, 21, 21, 23, 17, 18, 22]
24.853[19, 21, 21, 19, 20, 17, 17, 22]
24.867[22, 22, 19, 22, 20, 18, 18, 21]
24.89[23, 21, 20, 21, 21, 21, 19, 21]
24.904[21, 21, 19, 23, 18, 22, 17, 21]
24.927[23, 21, 20, 21, 20, 20, 18, 21]
24.952[24, 22, 20, 20, 21, 23, 18, 21]
24.973[21, 22, 20, 20, 22, 24, 17, 22]
24.987[20, 23, 18, 21, 21, 22, 17, 20]
25.01[22, 23, 17, 20, 23, 22, 19, 22]
25.033[22, 24, 18, 21, 24, 23, 22, 21]
25.047[21, 21, 17, 22, 25, 20, 21, 22]
25.07[21, 21, 17, 20, 24, 18, 21, 23]
25.093[21, 20, 20, 19, 24, 18, 21, 24]
25.107[21, 21, 21, 20, 24, 16, 20, 22]
25.13[20, 22, 20, 20, 24, 18, 17, 22]
25.153[20, 22, 21, 20, 22, 19, 18, 22]
25.167[21, 23, 21, 20, 20, 19, 18, 21]
25.19[21, 22, 20, 21, 19, 20, 18, 20]
25.213[20, 21, 19, 19, 18, 23, 16, 21]
25.227[20, 20, 21, 20, 19, 23, 15, 20]
25.25[19, 21, 21, 20, 20, 22, 18, 20]
25.273[19, 20, 20, 20, 20, 24, 18, 21]
25.288[18, 21, 22, 20, 21, 21, 18, 21]
25.311[18, 20, 23, 21, 22, 20, 18, 21]
25.333[17, 20, 23, 20, 20, 19, 19, 23]
25.348[18, 19, 22, 18, 21, 21, 17, 21]
25.37[17, 19, 22, 19, 21, 20, 18, 21]
25.393[19, 18, 20, 18, 21, 21, 20, 19]
25.408[19, 19, 21, 19, 22, 22, 20, 18]
25.43[20, 18, 21, 19, 21, 22, 22, 20]
25.453[20, 19, 22, 19, 21, 21, 22, 21]
25.467[21, 20, 22, 19, 21, 21, 20, 20]
25.49[22, 20, 22, 19, 22, 22, 20, 21]
25.513[23, 20, 20, 19, 20, 20, 22, 22]
25.527[22, 21, 21, 19, 20, 20, 20, 18]
25.55[22, 22, 20, 20, 19, 21, 21, 17]
25.573[21, 22, 19, 20, 20, 20, 23, 18]
25.587[19, 22, 20, 20, 18, 19, 22, 18]
25.61[20, 21, 21, 21, 17, 20, 19, 17]
25.633[21, 20, 20, 20, 19, 20, 20, 19]
25.647[20, 20, 20, 19, 20, 20, 20, 22]
25.67[20, 19, 21, 19, 19, 21, 20, 23]
25.692[19, 18, 19, 19, 20, 21, 19, 23]
25.707[19, 21, 20, 18, 22, 21, 20, 25]
25.73[18, 21, 20, 20, 20, 21, 20, 24]
25.752[19, 23, 20, 19, 22, 20, 21, 22]
25.775[18, 22, 19, 19, 23, 19, 20, 22]
25.79[18, 21, 21, 20, 22, 18, 21, 24]
25.813[18, 22, 20, 20, 22, 21, 21, 23]
25.827[19, 20, 20, 19, 23, 21, 20, 24]
25.858[19, 22, 20, 20, 21, 22, 20, 25]
25.873[20, 21, 22, 21, 23, 22, 20, 25]
25.887[20, 22, 21, 20, 22, 22, 19, 23]
25.91[20, 22, 20, 18, 22, 21, 19, 24]
25.932[19, 24, 21, 19, 21, 22, 19, 23]
25.955[18, 21, 20, 18, 21, 21, 20, 22]
25.97[19, 24, 20, 18, 19, 22, 21, 23]
25.992[19, 23, 19, 17, 18, 21, 22, 23]
26.015[18, 21, 21, 18, 19, 20, 21, 20]
26.038[19, 20, 18, 20, 18, 19, 22, 23]
26.053[19, 22, 21, 20, 19, 18, 21, 23]
26.075[20, 19, 21, 18, 20, 20, 23, 21]
26.09[21, 18, 21, 18, 21, 19, 22, 20]
26.113[20, 19, 22, 19, 21, 20, 23, 21]
26.135[19, 19, 23, 17, 23, 19, 22, 21]
26.151[20, 17, 23, 19, 22, 20, 21, 21]
26.173[20, 19, 23, 20, 22, 21, 18, 21]
26.203[18, 22, 22, 21, 22, 22, 19, 22]
26.21[19, 22, 20, 19, 20, 22, 20, 21]
26.232[19, 22, 20, 20, 19, 23, 20, 18]
26.255[19, 22, 18, 19, 19, 23, 21, 18]
26.27[18, 20, 17, 19, 19, 17, 21, 18]
26.293[19, 18, 19, 19, 18, 16, 20, 17]
26.315[17, 20, 19, 21, 20, 16, 18, 22]
26.33[20, 19, 19, 22, 17, 17, 20, 23]
26.353[21, 22, 19, 22, 20, 17, 20, 24]
26.376[21, 22, 21, 24, 20, 20, 21, 25]
26.39[22, 22, 21, 23, 24, 20, 20, 26]
26.413[24, 20, 20, 23, 23, 22, 22, 22]
26.435[22, 20, 20, 23, 24, 22, 22, 21]
26.449[21, 18, 20, 21, 21, 21, 20, 23]
26.473[23, 18, 20, 18, 21, 19, 19, 22]
26.495[22, 19, 20, 18, 18, 20, 19, 22]
26.518[21, 19, 23, 17, 19, 19, 18, 22]
26.533[21, 19, 23, 18, 19, 19, 18, 23]
26.555[19, 18, 22, 21, 20, 19, 20, 21]
26.577[20, 18, 22, 21, 19, 21, 21, 22]
26.594[20, 18, 22, 22, 17, 21, 21, 21]
26.614[22, 17, 19, 23, 17, 21, 23, 22]
26.637[21, 17, 20, 23, 18, 21, 22, 20]
26.654[22, 16, 20, 21, 19, 21, 21, 23]
26.675[20, 16, 22, 23, 20, 21, 21, 23]
26.697[20, 16, 21, 21, 20, 21, 21, 24]
26.713[18, 17, 21, 22, 19, 21, 19, 24]
26.734[17, 18, 20, 21, 19, 20, 19, 26]
26.757[18, 18, 21, 21, 19, 22, 18, 23]
26.773[20, 19, 21, 23, 17, 20, 21, 24]
26.794[21, 19, 20, 23, 19, 20, 22, 23]
26.817[19, 18, 21, 22, 22, 19, 22, 23]
26.834[22, 20, 22, 21, 22, 21, 22, 21]
26.854[21, 19, 21, 23, 22, 19, 22, 22]
26.877[19, 17, 20, 19, 22, 21, 21, 21]
26.893[19, 19, 20, 19, 22, 21, 20, 22]
26.914[21, 18, 19, 20, 18, 20, 22, 22]
26.937[21, 17, 19, 19, 21, 18, 24, 23]
26.953[21, 20, 19, 18, 21, 18, 23, 22]
26.974[20, 21, 18, 18, 22, 17, 21, 24]
26.997[20, 19, 20, 18, 21, 17, 21, 23]
27.014[18, 21, 21, 19, 22, 17, 19, 23]
27.034[16, 21, 23, 19, 20, 20, 19, 24]
27.064[15, 20, 23, 19, 19, 20, 21, 24]
27.073[16, 20, 24, 20, 19, 21, 21, 23]
27.094[15, 19, 22, 20, 20, 20, 21, 24]
27.125[17, 18, 22, 19, 21, 24, 21, 22]
27.132[16, 20, 19, 21, 22, 22, 20, 22]
27.154[18, 19, 20, 20, 22, 21, 19, 21]
27.177[18, 19, 19, 20, 20, 24, 18, 20]
27.192[18, 19, 20, 20, 22, 23, 19, 19]
27.214[19, 18, 19, 21, 22, 22, 20, 23]
27.237[20, 19, 20, 20, 21, 23, 20, 21]
27.252[20, 20, 20, 21, 21, 24, 20, 25]
27.274[18, 22, 21, 20, 22, 20, 22, 24]
27.297[21, 21, 23, 20, 20, 20, 20, 24]
27.312[19, 22, 22, 20, 18, 18, 19, 22]
27.335[19, 22, 21, 20, 21, 19, 20, 23]
27.357[18, 21, 20, 19, 20, 20, 20, 21]
27.372[19, 18, 20, 21, 21, 19, 18, 22]
27.402[16, 18, 19, 21, 20, 21, 20, 21]
27.417[17, 20, 20, 18, 20, 21, 21, 21]
27.432[16, 18, 21, 18, 18, 19, 23, 21]
27.454[17, 20, 21, 19, 18, 20, 22, 20]
27.477[18, 21, 20, 17, 18, 22, 22, 21]
27.492[20, 23, 19, 17, 21, 20, 22, 21]
27.515[20, 22, 19, 19, 20, 21, 22, 21]
27.537[21, 22, 19, 19, 19, 23, 19, 21]
27.552[21, 20, 19, 20, 21, 22, 20, 21]
27.574[21, 22, 19, 19, 20, 23, 20, 20]
27.597[20, 22, 19, 21, 16, 23, 18, 20]
27.612[20, 20, 20, 21, 17, 23, 19, 20]
27.634[21, 22, 20, 22, 18, 20, 19, 16]
27.657[20, 24, 22, 20, 18, 20, 19, 17]
27.672[20, 22, 23, 22, 21, 19, 19, 19]
27.694[20, 21, 24, 20, 21, 20, 21, 20]
27.717[21, 22, 22, 20, 22, 19, 21, 19]
27.732[19, 21, 23, 22, 23, 21, 21, 23]
27.754[20, 19, 21, 23, 23, 21, 21, 24]
27.777[20, 20, 20, 22, 22, 22, 20, 23]
27.792[22, 20, 21, 24, 22, 20, 18, 22]
27.814[20, 21, 23, 23, 22, 21, 17, 23]
27.837[21, 21, 23, 21, 22, 21, 18, 22]
27.859[21, 21, 23, 23, 21, 21, 17, 23]
27.874[22, 21, 24, 23, 19, 20, 20, 22]
27.897[20, 22, 23, 21, 18, 22, 21, 21]
27.919[22, 21, 24, 22, 18, 21, 21, 22]
27.942[22, 19, 24, 23, 19, 21, 20, 20]
27.957[22, 20, 25, 21, 20, 19, 20, 17]
27.98[22, 19, 23, 20, 21, 19, 18, 18]
27.994[20, 19, 23, 20, 21, 18, 20, 19]
28.017[19, 19, 23, 20, 19, 17, 19, 19]
28.039[19, 20, 22, 19, 21, 18, 19, 18]
28.054[18, 18, 24, 20, 19, 20, 20, 21]
28.077[18, 17, 24, 21, 19, 22, 20, 20]
28.099[18, 17, 23, 19, 20, 22, 17, 22]
28.114[19, 20, 23, 24, 21, 23, 19, 20]
28.137[19, 18, 25, 24, 18, 22, 19, 21]
28.159[19, 21, 23, 23, 19, 21, 19, 19]
28.174[18, 22, 24, 24, 19, 19, 19, 18]
28.198[18, 22, 24, 25, 20, 20, 19, 19]
28.219[18, 22, 24, 21, 21, 19, 18, 19]
28.234[18, 24, 19, 18, 20, 20, 19, 20]
28.257[18, 22, 18, 18, 20, 20, 18, 19]
28.279[21, 23, 20, 20, 20, 20, 19, 21]
28.294[23, 23, 21, 20, 19, 22, 20, 19]
28.325[23, 22, 20, 19, 18, 21, 21, 19]
28.339[22, 20, 21, 20, 21, 23, 20, 20]
28.355[22, 20, 22, 21, 22, 22, 19, 21]
28.377[20, 20, 21, 19, 21, 22, 22, 20]
28.399[18, 19, 20, 21, 22, 21, 21, 19]
28.414[20, 19, 19, 21, 22, 23, 21, 20]
28.439[20, 21, 22, 20, 19, 19, 21, 18]
28.459[19, 21, 23, 20, 19, 20, 22, 19]
28.478[19, 20, 22, 20, 20, 19, 20, 19]
28.497[20, 19, 23, 17, 21, 20, 23, 19]
28.52[19, 20, 22, 17, 21, 16, 22, 18]
28.537[18, 19, 20, 19, 23, 19, 24, 19]
28.557[18, 18, 19, 19, 21, 21, 24, 19]
28.582[18, 17, 22, 19, 21, 21, 24, 19]
28.594[16, 18, 20, 19, 20, 21, 21, 20]
28.617[18, 18, 22, 19, 21, 22, 22, 18]
28.639[18, 18, 22, 19, 21, 22, 18, 17]
28.654[18, 18, 21, 21, 23, 22, 19, 19]
28.677[18, 19, 21, 21, 24, 23, 18, 17]
28.699[18, 19, 24, 21, 23, 22, 19, 16]
28.715[17, 19, 24, 21, 23, 21, 19, 16]
28.737[17, 19, 23, 20, 21, 21, 19, 18]
28.759[19, 20, 22, 18, 18, 20, 17, 18]
28.782[19, 20, 22, 18, 19, 19, 17, 19]
28.797[19, 20, 20, 18, 19, 19, 15, 18]
28.819[18, 23, 19, 18, 19, 19, 19, 21]
28.842[19, 24, 20, 17, 20, 17, 19, 19]
28.857[16, 23, 21, 17, 20, 17, 21, 19]
28.879[19, 24, 21, 17, 19, 18, 22, 19]
28.902[19, 23, 21, 18, 19, 19, 23, 21]
28.917[18, 20, 21, 17, 18, 19, 22, 19]
28.94[18, 18, 22, 19, 18, 19, 22, 20]
28.962[19, 17, 23, 19, 20, 18, 20, 20]
28.977[17, 19, 23, 20, 20, 17, 20, 21]
28.999[19, 22, 23, 21, 19, 15, 20, 18]
29.022[22, 21, 22, 20, 20, 16, 19, 19]
29.037[23, 21, 26, 20, 21, 17, 21, 20]
29.059[23, 22, 24, 20, 20, 20, 21, 19]
29.083[23, 19, 24, 20, 19, 23, 21, 20]
29.097[20, 19, 23, 19, 21, 23, 21, 21]
29.12[20, 21, 25, 22, 21, 23, 19, 20]
29.143[18, 22, 19, 21, 21, 24, 19, 20]
29.157[19, 23, 21, 20, 21, 23, 18, 21]
29.179[18, 23, 22, 19, 22, 21, 17, 20]
29.21[19, 22, 22, 18, 22, 24, 17, 20]
29.217[19, 22, 23, 16, 21, 24, 17, 21]
29.239[19, 20, 24, 18, 20, 21, 18, 21]
29.262[17, 21, 24, 19, 21, 19, 22, 21]
29.277[17, 20, 23, 21, 20, 20, 21, 21]
29.299[17, 22, 24, 22, 21, 18, 20, 20]
29.323[16, 22, 24, 20, 19, 18, 22, 19]
29.337[16, 24, 22, 19, 19, 19, 22, 20]
29.375[16, 21, 21, 20, 19, 19, 18, 20]
29.383[17, 21, 21, 19, 19, 19, 19, 21]
29.397[18, 19, 18, 19, 18, 20, 19, 20]
29.419[19, 20, 19, 20, 19, 19, 17, 21]
29.443[20, 18, 18, 20, 22, 19, 19, 18]
29.457[22, 18, 20, 18, 20, 18, 20, 16]
29.488[24, 20, 20, 17, 21, 19, 20, 17]
29.503[23, 21, 20, 15, 22, 17, 22, 19]
29.517[22, 20, 18, 17, 22, 19, 23, 18]
29.539[22, 19, 19, 17, 20, 19, 23, 22]
29.562[21, 21, 18, 19, 19, 17, 23, 23]
29.577[21, 20, 19, 20, 19, 19, 23, 22]
29.599[21, 17, 20, 21, 18, 20, 23, 19]
29.623[20, 18, 20, 22, 17, 21, 22, 23]
29.637[19, 20, 20, 22, 23, 21, 21, 19]
29.66[19, 20, 19, 21, 23, 21, 21, 20]
29.684[17, 22, 19, 20, 23, 20, 23, 20]
29.697[16, 22, 19, 22, 23, 19, 21, 21]
29.719[18, 23, 20, 19, 24, 19, 19, 19]
29.743[16, 24, 20, 22, 21, 20, 19, 20]
29.765[17, 24, 20, 23, 22, 20, 19, 20]
29.78[19, 23, 20, 22, 23, 21, 21, 20]
29.803[20, 23, 19, 22, 23, 21, 21, 21]
29.826[21, 23, 18, 22, 23, 19, 22, 19]
29.839[21, 21, 19, 22, 20, 18, 23, 20]
29.862[21, 21, 20, 20, 20, 20, 24, 18]
29.885[21, 22, 19, 24, 19, 19, 19, 20]
29.899[20, 21, 22, 23, 21, 18, 21, 20]
29.923[20, 19, 23, 22, 20, 19, 22, 20]
29.945[23, 18, 22, 21, 20, 19, 19, 21]
29.959[21, 20, 22, 23, 20, 17, 19, 20]
29.983[20, 19, 22, 21, 20, 16, 19, 21]
30.006[21, 22, 20, 22, 21, 17, 21, 21]
30.019[22, 21, 19, 22, 23, 16, 19, 22]
30.043[19, 22, 19, 20, 24, 17, 22, 22]
30.065[22, 21, 19, 21, 24, 18, 21, 23]
30.08[23, 21, 19, 21, 24, 18, 22, 20]
30.102[23, 19, 21, 19, 23, 20, 20, 19]
30.125[22, 21, 23, 20, 22, 21, 23, 19]
30.139[24, 21, 22, 21, 19, 20, 19, 17]
30.163[23, 20, 24, 20, 19, 23, 20, 17]
30.185[22, 20, 23, 19, 19, 24, 19, 19]
30.199[21, 18, 22, 19, 18, 21, 19, 18]
30.222[21, 18, 20, 19, 16, 22, 17, 18]
30.245[18, 17, 19, 20, 20, 22, 18, 19]
30.26[18, 17, 17, 19, 21, 18, 19, 18]
30.282[19, 17, 20, 18, 22, 18, 18, 19]
30.305[20, 17, 21, 20, 23, 20, 20, 18]
30.319[21, 17, 21, 20, 23, 18, 19, 17]
30.342[21, 17, 22, 19, 23, 19, 18, 18]
30.365[21, 17, 23, 21, 23, 22, 19, 19]
30.379[19, 18, 22, 22, 22, 21, 21, 17]
30.403[17, 19, 22, 21, 22, 20, 19, 18]
30.425[18, 20, 19, 21, 23, 20, 20, 18]
30.439[18, 20, 18, 21, 21, 19, 21, 17]
30.462[18, 20, 22, 18, 20, 16, 20, 16]
30.485[20, 18, 21, 19, 21, 17, 19, 15]
30.499[21, 20, 22, 20, 20, 17, 18, 16]
30.523[19, 19, 24, 19, 20, 19, 22, 18]
30.545[21, 20, 24, 18, 20, 18, 22, 18]
30.559[21, 21, 19, 18, 20, 19, 23, 17]
30.583[21, 22, 19, 18, 20, 17, 22, 19]
30.606[21, 21, 21, 19, 20, 17, 22, 20]
30.619[21, 21, 20, 18, 19, 17, 18, 19]
30.642[21, 20, 21, 19, 20, 17, 18, 20]
30.665[21, 21, 20, 21, 19, 16, 20, 21]
30.688[21, 21, 20, 20, 19, 20, 18, 21]
30.703[20, 22, 18, 19, 18, 20, 21, 19]
30.726[21, 20, 19, 21, 20, 20, 21, 18]
30.748[20, 20, 19, 20, 20, 20, 19, 17]
30.763[20, 18, 21, 18, 21, 24, 18, 20]
30.785[22, 18, 20, 20, 20, 21, 19, 24]
30.807[23, 18, 21, 20, 19, 20, 19, 25]
30.822[23, 20, 20, 19, 19, 21, 19, 25]
30.845[23, 19, 20, 19, 18, 20, 19, 24]
30.868[23, 20, 19, 20, 16, 16, 18, 22]
30.882[21, 19, 20, 19, 16, 18, 19, 19]
30.912[20, 20, 19, 18, 17, 18, 18, 17]
30.927[19, 19, 21, 19, 20, 17, 17, 19]
30.943[18, 18, 22, 19, 20, 17, 17, 20]
30.965[18, 19, 22, 22, 22, 20, 17, 23]
30.987[19, 22, 21, 23, 22, 18, 17, 22]
31.003[20, 22, 22, 24, 20, 20, 16, 23]
31.025[19, 24, 20, 24, 21, 21, 18, 21]
31.047[20, 23, 19, 23, 22, 22, 19, 23]
31.063[21, 25, 19, 22, 21, 21, 18, 20]
31.085[19, 21, 20, 20, 23, 20, 18, 20]
31.108[19, 20, 20, 21, 25, 20, 20, 21]
31.122[19, 20, 22, 19, 23, 20, 18, 22]
31.145[18, 22, 23, 20, 22, 21, 19, 20]
31.167[19, 22, 22, 18, 23, 22, 19, 19]
31.182[19, 21, 22, 19, 21, 24, 20, 19]
31.205[18, 23, 22, 21, 23, 24, 19, 15]
31.227[19, 21, 21, 21, 22, 23, 19, 15]
31.242[18, 22, 20, 21, 21, 21, 19, 15]
31.265[19, 21, 21, 21, 20, 20, 18, 14]
31.287[19, 22, 22, 21, 19, 20, 18, 18]
31.302[18, 23, 22, 21, 20, 20, 18, 19]
31.325[20, 22, 23, 21, 19, 20, 18, 20]
31.347[21, 23, 24, 22, 21, 20, 17, 21]
31.362[20, 23, 24, 22, 23, 20, 17, 22]
31.385[21, 22, 23, 21, 24, 21, 17, 20]
31.407[21, 22, 23, 19, 22, 19, 18, 20]
31.422[19, 23, 22, 19, 23, 21, 19, 20]
31.445[18, 21, 21, 18, 21, 21, 23, 19]
31.468[19, 19, 20, 21, 20, 21, 23, 19]
31.482[18, 20, 21, 21, 20, 22, 23, 19]
31.505[16, 19, 21, 20, 20, 22, 23, 20]
31.527[17, 18, 29, 19, 20, 20, 24, 18]
31.55[17, 18, 47, 23, 20, 21, 22, 19]
31.566[17, 20, 48, 21, 20, 20, 23, 19]
31.587[17, 21, 47, 21, 19, 17, 23, 21]
31.61[19, 20, 47, 23, 18, 18, 22, 20]
31.626[21, 20, 42, 23, 17, 18, 21, 21]
31.647[21, 21, 22, 19, 18, 18, 19, 20]
31.669[21, 19, 20, 20, 16, 18, 19, 20]
31.686[21, 19, 23, 20, 18, 18, 19, 17]
31.707[21, 20, 20, 19, 19, 18, 19, 18]
31.729[19, 20, 20, 20, 20, 23, 19, 19]
31.746[17, 20, 20, 21, 19, 23, 19, 20]
31.767[16, 22, 22, 20, 20, 23, 20, 21]
31.789[18, 21, 20, 21, 20, 23, 19, 20]
31.806[18, 22, 21, 20, 19, 22, 22, 21]
31.827[20, 22, 22, 20, 18, 17, 23, 21]
31.849[19, 19, 21, 21, 21, 17, 24, 20]
31.866[21, 19, 20, 19, 22, 18, 26, 21]
31.887[20, 18, 21, 21, 20, 18, 25, 23]
31.909[20, 16, 21, 22, 20, 19, 22, 22]
31.926[19, 16, 22, 23, 20, 20, 21, 22]
31.947[22, 17, 22, 21, 17, 19, 21, 22]
31.97[21, 17, 22, 22, 19, 19, 20, 20]
31.986[21, 17, 21, 20, 20, 19, 21, 19]
32.007[22, 19, 20, 19, 20, 19, 23, 19]
32.029[23, 19, 19, 19, 21, 19, 22, 18]
32.046[21, 18, 18, 21, 21, 19, 22, 19]
32.067[21, 18, 19, 19, 21, 20, 21, 18]
32.089[21, 19, 17, 20, 22, 21, 19, 19]
32.106[20, 19, 17, 23, 21, 18, 18, 21]
32.127[19, 20, 18, 22, 20, 17, 17, 20]
32.15[19, 23, 19, 23, 21, 19, 17, 18]
32.166[18, 24, 19, 23, 20, 19, 18, 19]
32.187[19, 25, 19, 21, 18, 19, 19, 18]
32.209[18, 25, 19, 19, 21, 20, 21, 16]
32.226[18, 26, 18, 20, 23, 20, 22, 18]
32.247[18, 25, 21, 19, 23, 19, 21, 19]
32.269[18, 25, 21, 19, 21, 18, 19, 18]
32.286[18, 24, 21, 20, 21, 18, 19, 18]
32.307[19, 24, 22, 21, 22, 19, 19, 20]
32.329[18, 23, 22, 20, 20, 21, 18, 18]
32.346[18, 22, 21, 20, 19, 20, 19, 19]
32.382[17, 21, 22, 19, 20, 20, 20, 21]
32.397[18, 22, 22, 19, 20, 22, 19, 23]
32.406[19, 19, 22, 18, 20, 21, 18, 21]
32.427[19, 21, 23, 19, 19, 19, 17, 22]
32.449[18, 22, 21, 18, 20, 20, 20, 22]
32.466[20, 22, 20, 20, 21, 20, 18, 20]
32.487[18, 21, 19, 20, 22, 17, 19, 19]
32.509[18, 24, 18, 20, 20, 19, 18, 18]
32.526[20, 23, 19, 19, 22, 20, 20, 19]
32.547[21, 21, 20, 17, 22, 20, 18, 20]
32.569[20, 20, 20, 17, 20, 19, 18, 19]
32.592[21, 20, 21, 19, 21, 19, 17, 18]
32.607[21, 16, 22, 18, 21, 17, 18, 19]
32.629[21, 17, 21, 19, 21, 15, 19, 18]
32.66[20, 17, 21, 19, 20, 15, 18, 19]
32.667[20, 21, 22, 19, 21, 17, 19, 20]
32.689[19, 20, 22, 18, 20, 17, 20, 20]
32.712[19, 20, 22, 21, 19, 17, 19, 19]
32.727[17, 20, 22, 20, 20, 19, 18, 19]
32.749[17, 21, 22, 21, 18, 19, 19, 19]
32.772[17, 18, 22, 20, 17, 19, 20, 19]
32.787[19, 20, 22, 20, 19, 20, 21, 19]
32.809[22, 20, 20, 18, 21, 21, 21, 19]
32.832[22, 20, 21, 18, 21, 20, 20, 20]
32.847[22, 19, 22, 19, 23, 20, 20, 17]
32.869[22, 21, 22, 18, 23, 21, 17, 19]
32.892[23, 21, 22, 17, 22, 20, 16, 20]
32.907[20, 21, 21, 19, 21, 20, 16, 20]
32.929[19, 22, 21, 20, 20, 19, 17, 18]
32.952[20, 22, 19, 21, 20, 19, 18, 21]
32.967[20, 21, 19, 22, 21, 17, 18, 22]
32.989[20, 19, 19, 24, 20, 18, 19, 20]
33.012[20, 20, 21, 22, 20, 17, 21, 20]
33.027[20, 20, 20, 21, 22, 18, 20, 21]
33.051[20, 19, 21, 20, 23, 18, 21, 20]
33.072[19, 18, 20, 20, 21, 18, 23, 20]
33.087[18, 19, 20, 20, 22, 17, 23, 21]
33.109[18, 20, 17, 20, 21, 18, 23, 21]
33.132[20, 21, 18, 20, 19, 17, 22, 22]
33.147[19, 21, 18, 20, 18, 17, 20, 22]
33.169[18, 21, 18, 21, 19, 19, 22, 21]
33.192[19, 22, 19, 20, 20, 21, 19, 20]
33.207[19, 19, 20, 21, 20, 20, 18, 19]
33.229[18, 20, 20, 22, 20, 22, 20, 18]
33.252[19, 20, 19, 21, 20, 20, 21, 15]
33.267[21, 22, 21, 21, 20, 19, 18, 16]
33.289[21, 22, 20, 20, 18, 19, 19, 17]
33.312[23, 23, 19, 19, 19, 21, 19, 18]
33.327[22, 22, 20, 20, 19, 19, 19, 19]
33.349[21, 24, 21, 20, 19, 19, 18, 19]
33.372[21, 23, 21, 21, 21, 20, 18, 19]
33.388[21, 23, 22, 21, 22, 20, 19, 23]
33.41[20, 26, 23, 22, 21, 19, 19, 22]
33.432[20, 24, 22, 21, 22, 18, 16, 20]
33.447[21, 23, 23, 22, 24, 19, 21, 20]
33.478[19, 23, 20, 22, 21, 19, 20, 22]
33.492[19, 21, 21, 22, 20, 18, 19, 18]
33.514[19, 20, 21, 22, 24, 17, 21, 17]
33.53[18, 21, 21, 22, 22, 18, 22, 19]
33.552[19, 21, 20, 21, 20, 19, 18, 20]
33.574[19, 20, 21, 21, 21, 19, 17, 18]
33.598[19, 20, 23, 20, 22, 19, 18, 20]
33.612[18, 17, 22, 19, 20, 20, 17, 21]
33.634[21, 16, 23, 19, 22, 19, 16, 20]
33.649[21, 18, 24, 19, 23, 18, 18, 19]
33.671[20, 19, 24, 19, 22, 20, 21, 17]
33.694[19, 19, 21, 20, 22, 21, 21, 16]
33.709[20, 20, 23, 20, 19, 20, 18, 15]
33.74[19, 20, 22, 21, 17, 20, 20, 16]
33.754[17, 20, 20, 21, 17, 21, 20, 18]
33.769[19, 20, 21, 20, 19, 19, 19, 19]
33.792[19, 22, 20, 19, 19, 20, 19, 21]
33.814[19, 23, 17, 19, 20, 21, 21, 22]
33.829[18, 24, 20, 17, 23, 21, 20, 21]
33.852[19, 22, 21, 16, 23, 19, 19, 21]
33.874[21, 24, 20, 18, 21, 21, 20, 20]
33.891[20, 22, 21, 19, 20, 18, 19, 18]
33.913[21, 22, 22, 17, 20, 22, 18, 18]
33.934[22, 21, 21, 18, 16, 20, 20, 18]
33.949[23, 23, 21, 19, 18, 22, 20, 18]
33.972[20, 22, 21, 17, 19, 20, 20, 18]
33.994[22, 21, 20, 18, 20, 21, 21, 20]
34.009[21, 20, 22, 18, 20, 16, 22, 21]
34.032[19, 20, 22, 17, 22, 19, 22, 22]
34.054[19, 18, 21, 18, 23, 19, 22, 21]
34.069[19, 20, 21, 18, 22, 19, 22, 22]
34.1[19, 21, 21, 16, 24, 20, 22, 20]
34.114[20, 20, 18, 16, 25, 21, 21, 20]
34.131[22, 21, 20, 19, 24, 20, 18, 22]
34.152[20, 22, 23, 19, 21, 20, 18, 24]
34.175[19, 20, 24, 18, 23, 22, 19, 23]
34.19[20, 19, 23, 18, 24, 21, 19, 23]
34.212[21, 22, 25, 19, 22, 24, 20, 22]
34.251[20, 22, 22, 19, 23, 22, 20, 20]
34.252[20, 23, 21, 17, 25, 24, 21, 17]
34.272[20, 22, 21, 18, 23, 23, 21, 17]
34.294[19, 23, 26, 19, 23, 22, 20, 17]
34.31[18, 23, 30, 18, 23, 19, 21, 15]
34.332[18, 22, 43, 18, 24, 21, 21, 18]
34.354[17, 22, 42, 23, 25, 20, 21, 17]
34.369[17, 22, 41, 23, 26, 19, 20, 18]
34.407[18, 22, 38, 22, 24, 21, 19, 18]
34.415[19, 21, 35, 24, 27, 19, 19, 19]
34.43[20, 22, 18, 23, 25, 19, 19, 16]
34.452[21, 21, 19, 19, 22, 20, 22, 17]
34.475[21, 21, 20, 20, 23, 20, 19, 17]
34.498[21, 23, 19, 21, 23, 19, 20, 17]
34.512[21, 24, 20, 19, 21, 20, 20, 16]
34.535[21, 24, 22, 21, 22, 20, 20, 19]
34.558[22, 23, 21, 19, 24, 19, 18, 17]
34.572[23, 23, 21, 19, 24, 21, 20, 20]
34.595[22, 23, 20, 20, 23, 22, 20, 20]
34.618[20, 21, 18, 19, 25, 21, 19, 23]
34.64[21, 21, 19, 20, 26, 20, 21, 22]
34.655[20, 21, 19, 19, 23, 21, 22, 22]
34.677[18, 21, 20, 21, 21, 22, 20, 20]
34.692[18, 19, 22, 21, 22, 21, 21, 19]
34.723[20, 21, 23, 21, 19, 21, 21, 17]
34.737[19, 20, 21, 18, 17, 22, 19, 17]
34.752[20, 20, 22, 19, 19, 21, 17, 17]
34.775[21, 21, 23, 15, 19, 20, 16, 17]
34.798[22, 22, 23, 15, 21, 20, 16, 18]
34.812[21, 24, 24, 17, 22, 20, 18, 17]
34.842[22, 24, 24, 18, 21, 19, 18, 19]
34.858[20, 23, 23, 20, 21, 20, 17, 21]
34.872[20, 21, 23, 22, 20, 18, 19, 20]
34.895[19, 22, 21, 25, 20, 18, 16, 18]
34.918[19, 16, 21, 24, 19, 18, 16, 19]
34.932[18, 17, 21, 24, 20, 21, 19, 20]
34.955[19, 18, 21, 23, 18, 21, 20, 20]
34.978[19, 18, 20, 22, 21, 23, 21, 21]
34.992[19, 17, 21, 20, 21, 23, 23, 21]
35.015[19, 17, 20, 19, 20, 22, 23, 19]
35.038[19, 15, 22, 18, 23, 22, 22, 19]
35.052[19, 17, 21, 18, 23, 22, 22, 17]
35.075[18, 20, 23, 19, 22, 21, 21, 16]
35.098[18, 21, 22, 18, 21, 22, 21, 17]
35.112[18, 23, 22, 21, 21, 22, 19, 18]
35.135[19, 23, 21, 21, 18, 18, 18, 18]
35.158[20, 23, 20, 21, 21, 19, 19, 20]
35.172[22, 23, 19, 21, 20, 19, 18, 21]
35.195[21, 22, 20, 20, 19, 19, 16, 20]
35.217[23, 20, 21, 18, 21, 20, 16, 19]
35.232[22, 21, 19, 18, 22, 20, 17, 17]
35.255[22, 22, 21, 19, 18, 22, 17, 15]
35.279[21, 21, 20, 19, 19, 21, 17, 15]
35.292[20, 21, 20, 19, 20, 19, 17, 18]
35.315[20, 22, 20, 18, 21, 19, 18, 19]
35.338[20, 20, 20, 20, 20, 20, 18, 20]
35.352[20, 20, 22, 19, 23, 19, 18, 21]
35.375[19, 20, 22, 18, 23, 18, 19, 20]
35.397[19, 19, 23, 17, 24, 18, 19, 20]
35.42[19, 21, 21, 18, 24, 16, 19, 20]
35.435[20, 23, 23, 16, 22, 15, 18, 20]
35.458[19, 22, 21, 17, 20, 17, 18, 19]
35.48[19, 20, 20, 17, 22, 18, 17, 20]
35.495[20, 21, 18, 19, 22, 18, 19, 19]
35.517[21, 20, 19, 19, 23, 18, 18, 18]
35.54[21, 19, 18, 19, 23, 19, 20, 21]
35.555[21, 20, 18, 19, 23, 17, 19, 21]
35.578[21, 21, 20, 21, 22, 17, 21, 20]
35.6[20, 22, 19, 20, 22, 19, 19, 21]
35.615[19, 21, 20, 21, 21, 21, 22, 20]
35.637[19, 21, 19, 22, 22, 21, 21, 16]
35.66[20, 22, 20, 22, 21, 21, 21, 18]
35.675[21, 21, 19, 21, 23, 21, 21, 18]
35.698[21, 21, 21, 20, 21, 19, 23, 18]
35.72[21, 21, 20, 19, 21, 19, 21, 20]
35.735[21, 20, 21, 19, 20, 19, 20, 21]
35.757[21, 19, 19, 19, 21, 19, 22, 20]
35.78[20, 19, 20, 19, 18, 19, 21, 20]
35.795[20, 17, 20, 19, 19, 20, 19, 22]
35.818[20, 20, 19, 21, 19, 19, 19, 22]
35.84[20, 20, 20, 19, 19, 18, 19, 21]
35.855[18, 21, 21, 18, 20, 20, 16, 21]
35.877[20, 22, 19, 20, 19, 19, 18, 22]
35.9[20, 20, 17, 23, 20, 19, 21, 20]
35.915[21, 18, 19, 22, 22, 20, 20, 19]
35.938[20, 17, 18, 22, 23, 21, 20, 19]
35.96[22, 17, 19, 23, 22, 19, 23, 20]
35.974[22, 16, 21, 20, 25, 22, 21, 18]
35.997[20, 17, 22, 18, 25, 23, 19, 18]
36.021[19, 18, 22, 21, 23, 22, 18, 18]
36.042[20, 19, 22, 21, 21, 23, 21, 20]
36.057[19, 18, 21, 23, 21, 23, 19, 18]
36.08[18, 18, 20, 23, 19, 21, 20, 20]
36.094[19, 18, 21, 24, 18, 20, 20, 20]
36.117[20, 19, 23, 20, 19, 20, 20, 21]
36.14[19, 20, 22, 22, 22, 20, 19, 18]
36.154[18, 20, 23, 20, 22, 23, 19, 18]
36.177[17, 21, 24, 19, 21, 22, 20, 19]
36.2[17, 23, 23, 19, 22, 22, 19, 19]
36.214[18, 21, 21, 21, 25, 21, 19, 21]
36.237[18, 22, 22, 20, 23, 19, 19, 21]
36.26[18, 21, 21, 20, 23, 19, 18, 22]
36.274[19, 22, 21, 20, 23, 20, 18, 20]
36.297[20, 19, 21, 20, 21, 19, 19, 19]
36.32[19, 23, 22, 21, 20, 19, 18, 16]
36.343[19, 23, 20, 19, 21, 21, 18, 18]
36.357[19, 23, 22, 18, 22, 17, 18, 17]
36.38[20, 25, 21, 19, 24, 17, 17, 18]
36.402[19, 25, 24, 21, 24, 18, 18, 19]
36.419[19, 23, 22, 19, 21, 20, 19, 19]
36.44[20, 21, 22, 21, 20, 20, 19, 17]
36.463[21, 22, 20, 22, 20, 20, 19, 16]
36.478[20, 18, 21, 24, 16, 22, 20, 19]
36.507[21, 19, 18, 24, 19, 21, 18, 18]
36.522[21, 18, 21, 24, 21, 18, 17, 20]
36.546[20, 18, 21, 24, 24, 20, 17, 21]
36.559[19, 18, 21, 24, 25, 20, 17, 21]
36.582[18, 18, 20, 22, 25, 19, 17, 20]
36.598[18, 17, 19, 20, 25, 18, 18, 20]
36.619[18, 18, 16, 21, 23, 21, 18, 19]
36.642[18, 19, 16, 20, 20, 20, 16, 19]
36.658[19, 19, 18, 18, 20, 20, 19, 18]
36.679[20, 20, 20, 19, 19, 20, 18, 20]
36.702[19, 20, 27, 18, 18, 20, 17, 20]
36.718[20, 17, 41, 18, 19, 17, 20, 22]
36.739[20, 18, 42, 19, 22, 17, 20, 23]
36.762[20, 17, 41, 20, 21, 16, 17, 23]
36.778[20, 18, 41, 19, 23, 16, 19, 21]
36.799[20, 19, 37, 19, 23, 17, 23, 23]
36.822[21, 20, 20, 18, 22, 19, 21, 20]
36.838[21, 19, 19, 18, 19, 18, 23, 21]
36.859[21, 21, 19, 20, 20, 19, 24, 21]
36.882[22, 20, 21, 20, 21, 19, 23, 21]
36.906[22, 20, 20, 21, 21, 18, 24, 21]
36.919[22, 20, 20, 22, 21, 18, 26, 23]
36.942[24, 20, 22, 23, 22, 17, 24, 21]
36.958[24, 20, 22, 20, 22, 19, 25, 22]
36.979[21, 21, 21, 21, 19, 19, 24, 21]
37.002[22, 22, 22, 21, 20, 20, 20, 24]
37.018[24, 23, 23, 19, 22, 18, 19, 23]
37.039[20, 22, 21, 20, 21, 20, 21, 22]
37.062[21, 22, 20, 21, 20, 17, 22, 22]
37.078[24, 20, 21, 21, 22, 19, 22, 23]
37.099[22, 20, 19, 20, 20, 19, 21, 19]
37.122[20, 19, 21, 21, 19, 20, 22, 18]
37.138[21, 19, 21, 20, 19, 18, 18, 20]
37.159[23, 20, 23, 20, 21, 19, 18, 37]
37.182[21, 22, 21, 18, 19, 19, 19, 39]
37.198[21, 21, 22, 18, 20, 17, 20, 39]
37.221[23, 21, 18, 20, 22, 17, 18, 40]
37.242[22, 22, 19, 20, 22, 18, 21, 41]
37.258[18, 21, 18, 21, 22, 18, 24, 26]
37.279[19, 23, 19, 22, 24, 19, 24, 26]
37.302[19, 22, 18, 22, 24, 20, 24, 25]
37.325[18, 22, 19, 21, 21, 19, 24, 24]
37.339[18, 23, 20, 23, 21, 19, 24, 20]
37.362[19, 23, 22, 22, 22, 20, 18, 19]
37.384[17, 20, 21, 22, 20, 20, 18, 15]
37.399[17, 20, 21, 23, 19, 19, 21, 14]
37.422[19, 23, 23, 23, 22, 19, 22, 15]
37.453[19, 22, 21, 22, 22, 19, 20, 16]
37.461[20, 23, 18, 21, 23, 19, 19, 17]
37.482[20, 23, 20, 23, 21, 20, 20, 19]
37.505[21, 24, 20, 22, 23, 19, 18, 21]
37.519[18, 20, 19, 21, 20, 22, 18, 23]
37.542[18, 20, 20, 22, 20, 22, 18, 24]
37.564[17, 17, 21, 21, 18, 22, 21, 24]
37.579[17, 17, 21, 21, 18, 21, 21, 24]
37.602[17, 18, 22, 20, 19, 22, 21, 22]
37.624[20, 19, 21, 22, 21, 22, 23, 20]
37.641[20, 19, 21, 23, 20, 21, 22, 19]
37.669[21, 20, 20, 24, 20, 21, 20, 21]
37.684[21, 20, 19, 23, 22, 20, 19, 20]
37.699[21, 18, 19, 22, 20, 21, 22, 20]
37.722[20, 21, 19, 22, 19, 18, 19, 20]
37.744[22, 22, 19, 20, 21, 18, 22, 19]
37.759[22, 22, 21, 22, 21, 18, 24, 18]
37.781[24, 23, 22, 22, 19, 17, 23, 18]
37.812[23, 23, 22, 22, 21, 15, 21, 19]
37.819[22, 21, 22, 21, 21, 17, 21, 20]
37.842[21, 21, 22, 21, 19, 19, 18, 20]
37.864[21, 20, 20, 20, 20, 20, 17, 20]
37.879[19, 21, 18, 22, 22, 20, 19, 20]
37.902[17, 21, 20, 22, 21, 20, 18, 20]
37.924[19, 23, 20, 22, 21, 19, 19, 20]
37.939[18, 23, 20, 21, 22, 16, 19, 20]
37.962[18, 24, 20, 21, 21, 18, 19, 21]
37.984[17, 22, 20, 19, 21, 17, 16, 20]
37.999[20, 23, 20, 20, 20, 17, 19, 18]
38.022[21, 19, 19, 19, 22, 16, 18, 18]
38.044[21, 20, 19, 18, 22, 16, 21, 19]
38.059[21, 18, 19, 19, 23, 16, 21, 19]
38.082[21, 19, 19, 20, 20, 18, 22, 21]
38.104[20, 19, 18, 19, 22, 19, 22, 21]
38.119[19, 21, 20, 22, 19, 19, 24, 20]
38.142[19, 21, 20, 23, 19, 20, 22, 20]
38.164[19, 23, 19, 22, 21, 19, 23, 18]
38.18[19, 23, 21, 20, 21, 18, 22, 20]
38.202[19, 25, 21, 22, 20, 18, 20, 20]
38.224[20, 24, 20, 21, 20, 20, 19, 20]
38.247[19, 23, 22, 22, 21, 20, 18, 20]
38.262[22, 21, 23, 22, 20, 21, 17, 20]
38.284[22, 21, 22, 24, 22, 20, 19, 16]
38.307[22, 20, 22, 23, 22, 20, 18, 17]
38.322[22, 22, 23, 21, 22, 19, 21, 17]
38.344[24, 23, 22, 20, 20, 20, 21, 15]
38.367[21, 22, 23, 19, 19, 18, 22, 17]
38.382[23, 20, 21, 16, 18, 19, 21, 18]
38.404[23, 20, 22, 19, 19, 19, 21, 20]
38.427[24, 19, 21, 20, 20, 19, 17, 21]
38.442[22, 17, 18, 21, 19, 20, 19, 22]
38.464[21, 17, 18, 20, 19, 20, 17, 22]
38.487[19, 19, 20, 22, 18, 19, 17, 22]
38.502[21, 19, 19, 20, 18, 19, 18, 21]
38.524[21, 21, 20, 21, 19, 23, 20, 21]
38.547[19, 22, 22, 19, 21, 22, 19, 20]
38.562[20, 22, 22, 20, 21, 24, 20, 19]
38.584[21, 21, 22, 19, 22, 23, 21, 20]
38.607[19, 21, 22, 19, 23, 23, 21, 19]
38.623[17, 19, 24, 17, 22, 17, 20, 19]
38.645[18, 19, 23, 19, 22, 17, 19, 19]
38.667[18, 18, 23, 18, 24, 16, 19, 18]
38.682[17, 18, 21, 17, 24, 16, 18, 18]
38.704[17, 22, 22, 19, 23, 17, 17, 19]
38.727[20, 20, 19, 18, 23, 18, 17, 19]
38.743[20, 21, 22, 18, 23, 19, 17, 20]
38.764[21, 22, 20, 19, 20, 21, 18, 19]
38.787[23, 23, 21, 22, 18, 20, 17, 18]
38.802[22, 20, 22, 21, 21, 20, 19, 15]
38.824[22, 21, 25, 20, 21, 21, 19, 17]
38.847[21, 22, 22, 19, 21, 20, 19, 18]
38.862[21, 19, 24, 20, 22, 17, 18, 18]
38.884[17, 18, 24, 18, 22, 18, 18, 19]
38.907[18, 19, 25, 17, 20, 19, 17, 19]
38.923[19, 18, 23, 19, 20, 17, 16, 20]
38.944[20, 20, 23, 21, 19, 18, 18, 18]
38.967[21, 21, 24, 20, 20, 18, 18, 19]
38.982[22, 21, 23, 21, 19, 17, 18, 19]
39.004[22, 20, 20, 23, 19, 17, 18, 20]
39.027[21, 22, 23, 24, 17, 18, 19, 18]
39.042[22, 20, 24, 23, 18, 18, 18, 19]
39.064[21, 20, 23, 23, 18, 19, 19, 19]
39.087[20, 20, 21, 21, 18, 20, 18, 18]
39.102[21, 20, 22, 22, 21, 18, 19, 18]
39.124[20, 19, 20, 23, 22, 20, 20, 19]
39.147[19, 17, 20, 22, 21, 19, 20, 19]
39.162[18, 19, 20, 21, 20, 18, 19, 18]
39.184[20, 20, 21, 23, 21, 21, 19, 20]
39.206[19, 21, 22, 21, 17, 19, 19, 19]
39.23[18, 21, 21, 18, 16, 19, 15, 20]
39.244[18, 22, 21, 19, 17, 19, 14, 19]
39.267[19, 23, 22, 19, 19, 18, 15, 19]
39.29[19, 23, 23, 17, 19, 17, 15, 18]
39.304[19, 22, 22, 17, 20, 18, 17, 19]
39.327[21, 21, 21, 18, 20, 16, 19, 18]
39.35[21, 21, 19, 18, 20, 19, 20, 21]
39.364[20, 19, 20, 18, 19, 20, 20, 20]
39.387[19, 20, 20, 19, 20, 19, 21, 20]
39.41[20, 21, 22, 19, 19, 19, 21, 19]
39.424[18, 22, 24, 20, 21, 19, 20, 19]
39.455[20, 21, 25, 19, 21, 18, 19, 20]
39.47[19, 21, 25, 19, 21, 18, 18, 20]
39.484[20, 20, 25, 18, 22, 18, 17, 20]
39.507[19, 19, 23, 19, 23, 19, 17, 23]
39.53[19, 20, 21, 19, 22, 20, 19, 23]
39.544[18, 21, 22, 20, 21, 19, 20, 20]
39.566[18, 21, 21, 20, 21, 18, 20, 19]
39.59[20, 19, 18, 19, 21, 20, 20, 20]
39.604[19, 20, 19, 22, 22, 22, 21, 17]
39.627[22, 20, 21, 22, 20, 20, 18, 17]
39.65[20, 18, 19, 21, 20, 21, 18, 20]
39.664[21, 19, 20, 20, 21, 24, 20, 20]
39.687[21, 20, 20, 23, 22, 22, 20, 18]
39.717[22, 20, 21, 18, 22, 20, 18, 19]
39.724[19, 19, 20, 19, 22, 21, 19, 18]
39.747[19, 19, 20, 20, 22, 20, 20, 16]
39.77[19, 21, 20, 20, 19, 19, 20, 17]
39.784[18, 21, 21, 18, 17, 22, 20, 19]
39.806[18, 22, 22, 20, 16, 23, 21, 19]
39.83[18, 22, 22, 19, 20, 22, 20, 20]
39.844[18, 23, 22, 18, 20, 22, 19, 19]
39.875[20, 21, 23, 19, 20, 21, 19, 19]
39.89[20, 22, 23, 18, 20, 19, 20, 18]
39.913[20, 20, 21, 17, 21, 17, 18, 18]
39.927[23, 20, 19, 17, 19, 20, 21, 18]
39.95[23, 21, 20, 18, 19, 20, 21, 18]
39.964[21, 24, 19, 18, 19, 20, 21, 18]
39.987[21, 23, 19, 20, 20, 19, 22, 18]
40.01[19, 24, 20, 23, 19, 19, 23, 18]
40.032[16, 23, 20, 22, 19, 17, 23, 18]
40.047[16, 22, 20, 21, 17, 19, 21, 19]
40.07[17, 19, 21, 20, 19, 18, 22, 17]
40.084[18, 20, 22, 20, 17, 20, 21, 19]
40.107[19, 20, 20, 17, 19, 19, 20, 20]
40.13[22, 21, 21, 20, 22, 21, 19, 21]
40.152[22, 21, 22, 23, 23, 19, 18, 19]
40.168[21, 20, 20, 22, 23, 21, 17, 20]
40.19[20, 20, 19, 21, 23, 19, 16, 18]
40.212[19, 20, 20, 22, 21, 20, 16, 17]
40.227[18, 20, 22, 22, 19, 18, 16, 19]
40.25[18, 20, 20, 19, 19, 18, 17, 20]
40.272[18, 21, 20, 22, 17, 17, 18, 20]
40.287[19, 23, 22, 23, 17, 18, 19, 21]
40.31[19, 23, 21, 21, 18, 17, 18, 19]
40.332[20, 23, 21, 20, 17, 17, 19, 18]
40.347[22, 21, 20, 23, 19, 16, 18, 18]
40.37[23, 20, 21, 20, 19, 18, 19, 19]
40.392[22, 18, 20, 20, 20, 20, 19, 20]
40.408[21, 19, 20, 21, 19, 19, 20, 21]
40.43[20, 17, 20, 21, 20, 24, 19, 20]
40.452[17, 19, 21, 20, 17, 24, 20, 20]
40.467[17, 19, 21, 23, 18, 23, 20, 23]
40.49[16, 19, 20, 21, 20, 21, 24, 23]
40.512[17, 17, 22, 20, 20, 23, 25, 22]
40.527[18, 19, 22, 22, 22, 22, 25, 24]
40.55[18, 19, 22, 21, 24, 21, 25, 23]
40.572[18, 21, 23, 21, 22, 21, 24, 21]
40.587[20, 20, 23, 21, 22, 21, 20, 18]
40.61[19, 21, 22, 22, 23, 20, 19, 19]
40.633[17, 20, 20, 21, 22, 17, 19, 19]
40.647[18, 19, 21, 21, 20, 18, 18, 19]
40.671[17, 16, 20, 21, 21, 18, 18, 18]
40.692[14, 16, 20, 21, 18, 19, 18, 20]
40.707[14, 17, 21, 20, 17, 18, 20, 21]
40.73[14, 18, 21, 19, 16, 20, 20, 21]
40.752[13, 19, 20, 19, 17, 20, 22, 21]
40.767[13, 20, 21, 19, 17, 19, 21, 22]
40.79[16, 20, 22, 18, 20, 19, 21, 20]
40.813[18, 20, 19, 19, 20, 20, 20, 21]
40.827[20, 21, 21, 19, 24, 18, 20, 18]
40.85[20, 19, 22, 20, 22, 19, 20, 19]
40.873[20, 19, 21, 19, 24, 20, 22, 20]
40.887[20, 19, 21, 20, 22, 20, 22, 21]
40.91[20, 20, 21, 20, 23, 20, 22, 20]
40.932[19, 19, 21, 21, 18, 22, 20, 21]
40.946[19, 20, 19, 20, 20, 21, 20, 22]
40.97[20, 19, 19, 19, 18, 21, 20, 19]
40.994[19, 20, 20, 20, 18, 21, 20, 18]
41.006[19, 19, 19, 19, 20, 20, 20, 16]
41.03[19, 21, 19, 21, 21, 20, 23, 17]
41.052[20, 20, 20, 21, 21, 19, 22, 16]
41.075[20, 22, 18, 20, 21, 20, 22, 16]
41.09[21, 21, 19, 21, 21, 20, 20, 16]
41.112[20, 21, 22, 21, 20, 22, 22, 17]
41.135[21, 20, 22, 19, 20, 20, 22, 17]
41.15[21, 20, 22, 20, 20, 22, 23, 17]
41.172[20, 20, 23, 20, 19, 22, 22, 18]
41.195[22, 20, 22, 18, 19, 22, 22, 17]
41.211[23, 19, 19, 17, 18, 22, 21, 16]
41.232[22, 19, 19, 19, 18, 21, 21, 15]
41.255[21, 20, 19, 18, 19, 19, 20, 16]
41.27[21, 21, 20, 20, 19, 20, 19, 16]
41.292[17, 21, 19, 21, 19, 20, 20, 17]
41.315[18, 22, 19, 20, 20, 19, 19, 17]
41.33[18, 22, 20, 19, 20, 20, 18, 17]
41.352[17, 20, 19, 19, 22, 21, 16, 16]
41.375[17, 20, 21, 18, 22, 17, 16, 17]
41.39[17, 20, 22, 21, 22, 18, 16, 16]
41.412[16, 21, 21, 27, 21, 17, 19, 18]
41.435[15, 21, 19, 27, 21, 18, 18, 17]
41.45[15, 23, 18, 28, 19, 17, 19, 20]
41.472[14, 20, 18, 27, 19, 18, 20, 22]
41.495[15, 20, 18, 26, 19, 18, 23, 23]
41.51[16, 21, 18, 20, 20, 19, 21, 24]
41.533[15, 21, 20, 21, 20, 18, 23, 24]
41.554[16, 19, 20, 22, 20, 20, 23, 22]
41.571[15, 20, 18, 22, 21, 20, 24, 20]
41.593[15, 20, 18, 22, 21, 18, 22, 19]
41.614[16, 18, 19, 22, 25, 19, 20, 18]
41.63[17, 17, 18, 22, 25, 18, 19, 18]
41.653[17, 18, 18, 20, 25, 15, 17, 18]
41.675[18, 19, 18, 19, 24, 16, 15, 17]
41.691[18, 19, 19, 17, 25, 18, 18, 18]
41.713[17, 19, 21, 18, 19, 18, 18, 16]
41.734[18, 21, 24, 22, 18, 19, 20, 16]
41.751[21, 20, 25, 20, 18, 20, 22, 16]
41.779[20, 18, 26, 22, 17, 18, 22, 17]
41.794[20, 19, 25, 23, 19, 17, 21, 17]
41.811[19, 19, 22, 22, 20, 17, 22, 17]
41.831[19, 19, 20, 20, 22, 18, 22, 18]
41.854[17, 20, 20, 22, 21, 19, 22, 18]
41.87[17, 20, 19, 22, 21, 22, 21, 17]
41.893[16, 19, 18, 22, 19, 22, 23, 17]
41.915[18, 21, 19, 22, 19, 20, 22, 18]
41.93[17, 20, 19, 20, 17, 18, 21, 20]
41.953[16, 22, 20, 18, 18, 18, 21, 19]
41.975[16, 22, 21, 20, 18, 17, 20, 20]
41.99[18, 21, 21, 18, 19, 17, 19, 20]
42.013[17, 21, 21, 19, 20, 19, 19, 20]
42.034[18, 22, 20, 21, 19, 19, 23, 16]
42.057[18, 20, 21, 22, 21, 20, 24, 17]
42.071[19, 21, 21, 21, 22, 20, 25, 18]
42.094[18, 21, 23, 22, 22, 21, 25, 18]
42.117[19, 24, 23, 24, 20, 22, 25, 18]
42.133[19, 23, 22, 24, 21, 22, 22, 19]
42.155[20, 24, 23, 23, 20, 23, 20, 19]
42.178[23, 24, 23, 22, 19, 21, 21, 20]
42.192[24, 25, 23, 23, 19, 21, 19, 17]
42.214[25, 21, 23, 21, 20, 20, 19, 17]
42.236[25, 23, 25, 22, 20, 19, 17, 17]
42.252[24, 23, 23, 23, 19, 17, 20, 18]
42.274[22, 23, 21, 23, 22, 18, 18, 20]
42.296[20, 23, 19, 22, 22, 18, 17, 20]
42.311[18, 23, 21, 24, 23, 19, 18, 21]
42.334[17, 21, 20, 21, 23, 19, 19, 21]
42.357[17, 21, 21, 20, 21, 19, 17, 21]
42.371[18, 19, 23, 22, 19, 19, 18, 17]
42.394[18, 19, 22, 23, 18, 18, 20, 19]
42.416[19, 20, 20, 19, 17, 18, 19, 18]
42.431[21, 20, 21, 21, 17, 19, 19, 19]
42.454[20, 20, 20, 23, 18, 20, 20, 18]
42.476[19, 21, 21, 21, 18, 19, 20, 19]
42.493[21, 20, 22, 22, 18, 20, 20, 20]
42.514[20, 20, 20, 22, 20, 21, 21, 20]
42.536[19, 21, 19, 21, 24, 21, 21, 18]
42.551[22, 20, 21, 20, 25, 21, 22, 18]
42.576[22, 19, 17, 18, 23, 22, 20, 17]
42.596[20, 19, 19, 18, 24, 22, 21, 17]
42.612[20, 20, 21, 18, 23, 21, 20, 18]
42.635[20, 20, 21, 17, 18, 20, 20, 18]
42.656[18, 19, 20, 17, 19, 21, 19, 19]
42.671[17, 19, 20, 17, 19, 20, 19, 21]
42.696[18, 20, 20, 16, 19, 18, 19, 18]
42.716[19, 20, 18, 20, 18, 17, 19, 18]
42.732[19, 21, 19, 20, 19, 18, 20, 19]
42.754[19, 21, 18, 21, 17, 17, 21, 20]
42.776[20, 22, 19, 23, 18, 18, 20, 18]
42.792[19, 24, 19, 24, 18, 19, 18, 20]
42.814[20, 21, 20, 22, 17, 22, 18, 19]
42.837[21, 21, 21, 22, 16, 23, 16, 18]
42.851[20, 23, 21, 22, 16, 23, 15, 17]
42.874[21, 23, 22, 20, 20, 24, 16, 19]
42.896[21, 21, 22, 20, 19, 24, 16, 19]
42.912[21, 23, 22, 19, 21, 22, 16, 21]
42.934[18, 23, 21, 20, 20, 22, 17, 21]
42.956[19, 21, 21, 19, 20, 23, 17, 22]
42.979[20, 23, 19, 18, 18, 19, 18, 21]
42.994[19, 24, 19, 19, 18, 19, 18, 21]
43.016[19, 22, 19, 18, 17, 18, 19, 20]
43.039[22, 23, 19, 18, 18, 17, 17, 19]
43.054[22, 23, 20, 18, 19, 16, 18, 19]
43.076[20, 20, 21, 18, 17, 16, 18, 18]
43.099[21, 20, 23, 19, 20, 17, 18, 19]
43.114[19, 21, 22, 18, 20, 17, 18, 21]
43.136[18, 20, 24, 21, 20, 18, 20, 21]
43.159[18, 23, 24, 19, 20, 21, 19, 20]
43.174[20, 21, 23, 20, 21, 22, 18, 20]
43.196[20, 23, 21, 19, 20, 21, 19, 21]
43.219[19, 21, 23, 20, 21, 22, 19, 18]
43.242[20, 22, 23, 17, 21, 20, 18, 21]
43.257[20, 18, 21, 17, 19, 18, 17, 22]
43.279[18, 19, 23, 17, 22, 20, 21, 21]
43.294[19, 20, 24, 18, 20, 18, 19, 20]
43.316[20, 19, 25, 17, 19, 19, 20, 20]
43.339[20, 20, 25, 17, 20, 20, 20, 18]
43.354[20, 20, 24, 19, 20, 19, 22, 19]
43.376[21, 22, 24, 19, 17, 21, 20, 20]
43.407[20, 19, 23, 19, 19, 20, 20, 21]
43.414[19, 20, 22, 20, 19, 21, 19, 22]
43.437[19, 23, 21, 19, 19, 20, 19, 21]
43.459[22, 23, 21, 18, 20, 21, 19, 20]
43.474[20, 22, 22, 22, 19, 18, 19, 18]
43.498[20, 23, 21, 20, 18, 24, 20, 19]
43.519[20, 23, 21, 21, 17, 23, 20, 18]
43.534[22, 21, 24, 23, 18, 23, 20, 20]
43.556[18, 22, 23, 24, 17, 23, 18, 20]
43.579[20, 22, 21, 23, 19, 23, 16, 20]
43.594[20, 20, 22, 23, 19, 19, 17, 18]
43.617[21, 22, 20, 21, 22, 20, 17, 18]
43.639[20, 21, 18, 21, 21, 21, 19, 18]
43.654[21, 22, 17, 20, 22, 20, 20, 21]
43.684[18, 21, 18, 19, 21, 20, 19, 21]
43.699[20, 22, 17, 19, 21, 21, 19, 22]
43.715[20, 20, 18, 19, 17, 20, 18, 22]
43.737[19, 21, 20, 19, 17, 20, 17, 20]
43.759[20, 20, 22, 20, 18, 19, 17, 18]
43.774[21, 21, 20, 22, 18, 21, 18, 18]
43.797[20, 21, 23, 21, 21, 20, 19, 18]
43.819[20, 22, 23, 21, 22, 21, 19, 19]
43.842[20, 22, 21, 22, 22, 20, 18, 20]
43.856[19, 21, 20, 22, 23, 20, 17, 20]
43.879[19, 22, 22, 19, 23, 18, 17, 20]
43.894[21, 23, 20, 20, 20, 17, 17, 18]
43.917[19, 21, 21, 20, 20, 19, 17, 17]
43.939[20, 21, 22, 20, 22, 19, 16, 16]
43.962[19, 23, 23, 19, 20, 19, 17, 20]
43.976[21, 21, 21, 21, 20, 21, 19, 22]
43.999[19, 22, 21, 21, 21, 21, 19, 23]
44.023[20, 22, 19, 21, 21, 20, 21, 24]
44.037[20, 22, 16, 21, 19, 19, 20, 27]
44.059[23, 21, 17, 22, 21, 22, 21, 23]
44.09[19, 23, 17, 20, 20, 21, 19, 23]
44.097[21, 22, 17, 21, 19, 23, 21, 22]
44.119[21, 21, 20, 21, 20, 22, 20, 20]
44.142[19, 21, 20, 21, 20, 21, 21, 18]
44.165[21, 23, 20, 21, 19, 19, 21, 19]
44.18[22, 22, 20, 21, 19, 19, 21, 19]
44.202[21, 21, 20, 20, 21, 16, 20, 20]
44.216[22, 22, 19, 19, 20, 17, 19, 21]
44.239[25, 22, 23, 18, 20, 18, 21, 20]
44.262[23, 20, 24, 16, 19, 18, 20, 19]
44.276[22, 21, 24, 15, 19, 17, 22, 19]
44.299[22, 22, 24, 15, 19, 18, 21, 17]
44.323[20, 21, 24, 17, 19, 20, 23, 17]
44.336[17, 20, 21, 18, 21, 19, 21, 19]
44.367[16, 22, 22, 18, 21, 18, 20, 21]
44.382[17, 20, 21, 17, 21, 18, 19, 21]
44.396[18, 18, 23, 17, 20, 19, 19, 21]
44.419[22, 21, 24, 17, 19, 16, 16, 22]
44.442[24, 22, 24, 18, 18, 17, 16, 21]
44.457[25, 20, 22, 19, 19, 18, 20, 23]
44.479[24, 21, 22, 20, 19, 19, 18, 22]
44.502[23, 22, 20, 20, 21, 17, 17, 24]
44.516[17, 20, 18, 18, 22, 21, 17, 23]
44.539[16, 19, 18, 17, 22, 20, 19, 24]
44.563[16, 19, 20, 18, 22, 21, 17, 22]
44.577[16, 19, 20, 17, 23, 21, 18, 22]
44.599[18, 20, 20, 17, 22, 21, 20, 22]
44.622[20, 20, 20, 19, 20, 20, 20, 21]
44.636[19, 19, 21, 18, 22, 21, 18, 18]
44.659[20, 18, 20, 19, 21, 21, 18, 18]
44.682[21, 19, 18, 19, 21, 20, 18, 18]
44.696[20, 21, 19, 19, 20, 21, 16, 18]
44.719[19, 19, 19, 20, 21, 21, 18, 18]
44.742[21, 21, 20, 21, 19, 20, 18, 17]
44.757[20, 22, 19, 19, 19, 19, 18, 17]
44.779[18, 22, 20, 20, 18, 18, 21, 17]
44.802[19, 19, 20, 20, 19, 17, 21, 18]
44.816[19, 21, 19, 18, 20, 16, 19, 20]
44.839[18, 20, 20, 21, 19, 18, 19, 20]
44.862[19, 19, 21, 20, 18, 17, 18, 21]
44.885[19, 19, 22, 19, 19, 18, 19, 20]
44.899[20, 19, 20, 19, 18, 17, 20, 21]
44.922[21, 20, 20, 18, 17, 21, 20, 19]
44.945[19, 20, 20, 17, 18, 21, 22, 23]
44.959[18, 19, 19, 19, 20, 21, 22, 21]
44.99[20, 20, 19, 20, 21, 20, 19, 22]
45.005[19, 20, 20, 21, 21, 22, 19, 20]
45.019[19, 19, 20, 21, 22, 19, 20, 20]
45.042[20, 20, 21, 20, 22, 19, 19, 16]
45.065[21, 20, 21, 19, 21, 21, 20, 17]
45.079[19, 21, 21, 20, 20, 23, 19, 18]
45.103[20, 21, 21, 20, 21, 21, 21, 18]
45.125[23, 21, 20, 20, 21, 22, 19, 18]
45.147[23, 20, 20, 20, 19, 22, 21, 18]
45.163[22, 20, 21, 22, 20, 21, 19, 18]
45.185[23, 20, 20, 22, 21, 22, 20, 18]
45.199[23, 19, 20, 20, 21, 21, 18, 17]
45.222[20, 20, 20, 20, 21, 18, 20, 20]
45.245[19, 21, 19, 24, 22, 19, 19, 20]
45.259[20, 21, 19, 22, 21, 19, 20, 22]
45.282[20, 21, 21, 23, 21, 19, 19, 21]
45.305[20, 22, 22, 24, 28, 20, 20, 21]
45.319[19, 20, 22, 24, 28, 19, 20, 20]
45.35[19, 21, 21, 22, 27, 20, 21, 19]
45.365[18, 22, 22, 22, 27, 21, 21, 16]
45.379[17, 21, 22, 21, 26, 19, 20, 18]
45.403[19, 20, 21, 22, 17, 19, 21, 18]
45.425[18, 21, 22, 22, 17, 23, 21, 17]
45.439[19, 20, 23, 21, 18, 22, 18, 18]
45.462[20, 19, 21, 19, 18, 22, 19, 19]
45.485[20, 19, 21, 20, 20, 22, 21, 19]
45.499[17, 21, 22, 19, 20, 22, 20, 18]
45.522[20, 22, 21, 18, 19, 20, 20, 18]
45.545[19, 22, 23, 17, 20, 20, 22, 17]
45.559[18, 23, 23, 17, 20, 20, 21, 17]
45.583[18, 23, 24, 17, 20, 20, 22, 16]
45.605[20, 22, 23, 16, 21, 18, 21, 16]
45.619[22, 22, 23, 17, 20, 20, 20, 18]
45.642[22, 23, 22, 17, 19, 21, 19, 16]
45.664[23, 21, 22, 21, 20, 23, 18, 17]
45.679[22, 20, 21, 20, 19, 24, 18, 21]
45.702[21, 21, 20, 20, 19, 24, 20, 21]
45.725[15, 22, 22, 20, 19, 21, 20, 21]
45.747[17, 22, 21, 21, 20, 20, 21, 21]
45.762[18, 23, 25, 33, 24, 18, 21, 20]
45.785[19, 22, 25, 35, 26, 17, 20, 17]
45.799[19, 22, 24, 36, 25, 19, 17, 17]
45.823[21, 24, 22, 36, 27, 20, 17, 21]
45.845[20, 24, 23, 37, 27, 21, 17, 23]
45.867[19, 23, 18, 27, 23, 20, 18, 25]
45.882[18, 23, 20, 31, 21, 20, 19, 26]
45.905[20, 21, 21, 36, 22, 20, 19, 25]
45.927[19, 20, 20, 37, 20, 19, 20, 22]
45.942[20, 19, 19, 35, 20, 18, 20, 20]
45.965[20, 20, 20, 34, 20, 17, 19, 19]
45.988[20, 21, 19, 26, 18, 18, 18, 20]
46.002[19, 21, 19, 21, 21, 17, 18, 21]
46.025[19, 22, 20, 20, 20, 19, 17, 20]
46.047[17, 20, 20, 22, 21, 20, 20, 21]
46.063[17, 20, 20, 21, 22, 20, 21, 20]
46.085[20, 19, 21, 22, 23, 19, 20, 18]
46.107[20, 21, 23, 18, 20, 20, 20, 20]
46.122[19, 19, 23, 19, 21, 20, 21, 20]
46.145[20, 21, 25, 17, 20, 20, 18, 22]
46.167[20, 21, 26, 20, 18, 22, 17, 22]
46.183[17, 21, 24, 19, 20, 21, 18, 21]
46.205[19, 20, 22, 20, 20, 19, 19, 18]
46.227[18, 21, 21, 20, 20, 19, 19, 19]
46.242[17, 20, 20, 20, 20, 18, 19, 16]
46.273[18, 19, 19, 18, 20, 16, 21, 16]
46.287[17, 20, 20, 20, 19, 19, 20, 19]
46.302[15, 21, 19, 20, 21, 20, 19, 20]
46.332[19, 21, 21, 19, 21, 17, 19, 20]
46.347[22, 20, 22, 18, 20, 18, 20, 20]
46.361[21, 20, 21, 20, 20, 19, 20, 20]
46.385[22, 18, 22, 17, 20, 17, 20, 18]
46.415[23, 19, 22, 19, 21, 16, 22, 18]
46.421[20, 18, 21, 20, 22, 17, 22, 17]
46.445[18, 20, 21, 20, 22, 18, 21, 17]
46.467[17, 19, 22, 20, 23, 17, 21, 17]
46.482[17, 20, 20, 21, 22, 18, 21, 17]
46.505[17, 18, 20, 20, 19, 18, 19, 18]
46.526[17, 19, 22, 19, 20, 19, 18, 18]
46.557[17, 18, 22, 20, 23, 18, 19, 18]
46.565[19, 20, 20, 21, 21, 17, 17, 18]
46.587[18, 20, 22, 21, 22, 18, 18, 19]
46.609[18, 20, 22, 21, 25, 19, 18, 19]
46.625[21, 21, 18, 22, 24, 19, 17, 19]
46.647[20, 20, 18, 22, 22, 18, 17, 20]
46.67[19, 19, 20, 21, 23, 18, 18, 20]
46.685[19, 19, 21, 21, 22, 19, 18, 18]
46.707[19, 22, 21, 22, 19, 20, 18, 17]
46.729[17, 20, 22, 21, 19, 18, 18, 20]
46.745[20, 21, 22, 21, 20, 18, 18, 20]
46.766[21, 22, 21, 21, 20, 19, 18, 19]
46.789[21, 22, 19, 21, 20, 18, 18, 21]
46.806[22, 18, 19, 21, 20, 17, 18, 21]
46.827[22, 19, 18, 20, 20, 19, 18, 19]
46.849[21, 23, 20, 19, 20, 20, 18, 19]
46.866[20, 23, 19, 20, 20, 19, 20, 19]
46.888[22, 23, 20, 20, 22, 18, 19, 19]
46.909[20, 24, 21, 20, 22, 18, 19, 20]
46.925[19, 24, 23, 22, 21, 17, 21, 20]
46.946[20, 20, 23, 21, 20, 16, 19, 19]
46.969[20, 21, 23, 19, 20, 17, 21, 21]
46.985[19, 21, 22, 19, 18, 16, 20, 22]
47.006[22, 20, 21, 19, 18, 17, 21, 21]
47.029[22, 21, 19, 17, 19, 18, 18, 22]
47.045[20, 19, 18, 18, 21, 19, 19, 24]
47.066[22, 18, 19, 19, 21, 19, 17, 23]
47.089[22, 17, 19, 19, 21, 20, 18, 20]
47.105[20, 17, 19, 19, 21, 19, 19, 22]
47.126[19, 18, 19, 21, 19, 19, 21, 21]
47.149[20, 18, 18, 22, 20, 20, 21, 21]
47.166[18, 20, 18, 21, 19, 20, 20, 21]
47.186[18, 22, 18, 20, 20, 20, 19, 21]
47.209[17, 22, 18, 20, 21, 19, 18, 19]
47.224[16, 21, 20, 19, 21, 19, 17, 20]
47.246[15, 23, 19, 17, 18, 18, 19, 18]
47.269[15, 21, 19, 17, 22, 16, 18, 20]
47.284[18, 17, 19, 18, 21, 16, 20, 21]
47.306[19, 19, 20, 20, 21, 18, 19, 22]
47.33[20, 21, 19, 19, 22, 17, 18, 23]
47.344[20, 19, 19, 21, 22, 19, 18, 23]
47.366[22, 21, 22, 22, 20, 19, 21, 21]
47.389[20, 23, 25, 22, 19, 21, 20, 21]
47.404[20, 21, 23, 20, 19, 21, 21, 20]
47.426[19, 20, 23, 20, 19, 21, 21, 18]
47.449[19, 21, 24, 20, 20, 20, 20, 21]
47.464[18, 23, 20, 21, 19, 22, 20, 22]
47.487[17, 23, 18, 20, 18, 20, 18, 21]
47.509[16, 23, 20, 21, 19, 19, 20, 21]
47.524[17, 22, 20, 21, 20, 20, 21, 21]
47.547[17, 22, 22, 21, 21, 20, 21, 20]
47.569[18, 20, 22, 19, 21, 18, 19, 18]
47.584[22, 19, 23, 21, 21, 17, 19, 20]
47.608[23, 19, 24, 20, 21, 18, 17, 22]
47.629[22, 20, 23, 22, 20, 16, 16, 23]
47.646[23, 20, 23, 22, 19, 16, 16, 22]
47.666[22, 21, 24, 23, 21, 17, 16, 22]
47.689[19, 21, 23, 23, 21, 17, 21, 21]
47.72[19, 21, 21, 23, 19, 18, 21, 18]
47.734[19, 21, 21, 19, 21, 18, 21, 19]
47.749[18, 21, 22, 19, 19, 20, 22, 18]
47.772[19, 19, 24, 17, 18, 21, 22, 18]
47.786[21, 19, 22, 19, 18, 21, 19, 19]
47.809[21, 22, 22, 20, 20, 21, 21, 20]
47.832[21, 21, 24, 21, 20, 22, 20, 18]
47.846[23, 23, 21, 22, 19, 20, 20, 20]
47.869[23, 24, 17, 23, 19, 18, 22, 19]
47.891[24, 23, 19, 20, 20, 18, 22, 18]
47.906[23, 21, 18, 19, 19, 20, 21, 17]
47.929[25, 23, 17, 21, 20, 19, 22, 17]
47.952[22, 21, 18, 21, 21, 19, 21, 15]
47.967[24, 20, 20, 21, 20, 19, 19, 17]
47.989[22, 22, 20, 22, 21, 21, 19, 17]
48.011[22, 21, 20, 23, 21, 17, 18, 19]
48.026[21, 21, 22, 21, 19, 17, 17, 19]
48.057[21, 21, 22, 23, 20, 17, 20, 21]
48.072[19, 21, 21, 22, 23, 17, 21, 20]
48.086[19, 20, 20, 22, 22, 16, 20, 20]
48.109[19, 20, 23, 20, 21, 18, 21, 20]
48.131[20, 20, 20, 20, 22, 20, 22, 19]
48.146[19, 20, 21, 20, 23, 21, 21, 19]
48.169[19, 20, 21, 20, 22, 23, 20, 18]
48.191[17, 19, 21, 21, 21, 25, 21, 18]
48.206[19, 20, 18, 22, 22, 24, 22, 16]
48.229[19, 18, 21, 22, 21, 23, 21, 17]
48.251[18, 19, 21, 23, 19, 23, 19, 16]
48.267[17, 20, 22, 22, 20, 20, 19, 17]
48.29[20, 22, 22, 24, 20, 15, 19, 17]
48.32[18, 22, 23, 24, 21, 16, 19, 18]
48.327[18, 23, 23, 24, 21, 16, 19, 19]
48.349[20, 24, 21, 22, 23, 15, 19, 21]
48.371[20, 22, 19, 22, 21, 16, 19, 19]
48.386[20, 21, 20, 20, 22, 18, 20, 21]
48.409[22, 20, 20, 17, 20, 18, 19, 20]
48.431[23, 19, 19, 21, 19, 19, 18, 20]
48.454[23, 18, 22, 18, 18, 19, 18, 24]
48.469[23, 19, 21, 19, 19, 19, 19, 25]
48.491[22, 17, 20, 19, 19, 19, 19, 23]
48.506[19, 18, 20, 19, 20, 22, 17, 22]
48.529[17, 18, 20, 19, 21, 22, 19, 22]
48.551[15, 19, 17, 22, 20, 22, 20, 16]
48.574[17, 19, 18, 22, 23, 22, 18, 16]
48.589[17, 19, 19, 22, 23, 21, 19, 18]
48.611[18, 18, 22, 24, 21, 20, 20, 19]
48.626[18, 18, 23, 21, 21, 20, 18, 20]
48.649[18, 17, 22, 21, 22, 19, 20, 20]
48.671[15, 18, 21, 22, 20, 18, 19, 20]
48.694[16, 18, 22, 23, 22, 20, 19, 20]
48.709[17, 19, 17, 23, 22, 19, 19, 21]
48.731[17, 18, 19, 25, 23, 21, 18, 19]
48.754[18, 21, 19, 24, 21, 22, 19, 19]
48.769[20, 21, 20, 22, 22, 22, 21, 18]
48.791[22, 21, 21, 22, 21, 21, 19, 18]
48.814[20, 21, 23, 22, 21, 19, 20, 18]
48.829[20, 22, 22, 21, 19, 17, 21, 19]
48.851[19, 20, 23, 20, 20, 17, 19, 21]
48.874[21, 19, 23, 22, 18, 19, 16, 22]
48.889[17, 21, 21, 21, 19, 21, 16, 22]
48.911[18, 21, 21, 21, 19, 22, 17, 20]
48.935[20, 21, 20, 21, 19, 22, 17, 20]
48.949[22, 21, 20, 22, 21, 21, 17, 18]
48.972[19, 23, 19, 20, 19, 19, 18, 16]
48.994[19, 22, 20, 20, 20, 19, 20, 16]
49.009[20, 22, 22, 20, 21, 20, 18, 16]
49.031[18, 23, 21, 18, 22, 19, 19, 18]
49.055[17, 23, 21, 19, 22, 21, 18, 18]
49.069[18, 24, 23, 18, 22, 21, 18, 20]
49.092[18, 24, 25, 18, 21, 19, 18, 20]
49.115[16, 24, 23, 19, 20, 18, 19, 21]
49.129[17, 23, 23, 19, 21, 19, 18, 21]
49.152[16, 24, 21, 20, 21, 17, 19, 21]
49.175[17, 21, 20, 21, 21, 19, 17, 20]
49.189[17, 21, 17, 22, 22, 19, 17, 23]
49.212[18, 21, 20, 20, 21, 18, 16, 22]
49.235[17, 20, 19, 20, 20, 17, 16, 22]
49.249[17, 20, 21, 19, 20, 20, 15, 22]
49.271[18, 20, 22, 20, 21, 19, 17, 23]
49.295[18, 19, 22, 18, 20, 20, 16, 19]
49.309[17, 21, 20, 22, 20, 22, 18, 20]
49.331[17, 20, 22, 22, 19, 22, 19, 20]
49.354[18, 19, 20, 21, 19, 21, 20, 19]
49.369[17, 17, 18, 19, 18, 20, 20, 18]
49.391[19, 20, 21, 24, 18, 19, 21, 19]
49.414[20, 17, 22, 22, 18, 18, 19, 19]
49.429[21, 20, 21, 22, 19, 21, 19, 18]
49.451[20, 20, 22, 22, 18, 22, 19, 20]
49.475[22, 20, 21, 23, 17, 22, 18, 19]
49.489[21, 19, 19, 19, 17, 22, 20, 19]
49.511[21, 20, 18, 18, 21, 20, 21, 20]
49.534[21, 19, 18, 19, 20, 19, 20, 19]
49.549[22, 20, 17, 20, 20, 18, 20, 18]
49.571[19, 21, 18, 20, 21, 19, 20, 17]
49.595[19, 21, 17, 21, 21, 20, 17, 17]
49.617[19, 21, 18, 21, 19, 20, 16, 18]
49.631[19, 21, 19, 21, 22, 20, 19, 17]
49.655[19, 21, 19, 22, 23, 18, 19, 19]
49.677[20, 19, 18, 21, 22, 17, 20, 20]
49.691[20, 20, 20, 21, 23, 17, 22, 21]
49.715[20, 20, 18, 22, 22, 17, 24, 20]
49.737[19, 20, 18, 22, 20, 16, 22, 21]
49.752[18, 21, 19, 19, 21, 15, 21, 21]
49.775[17, 21, 18, 21, 22, 19, 19, 22]
49.797[19, 22, 17, 20, 22, 19, 21, 23]
49.811[19, 21, 18, 19, 22, 19, 19, 22]
49.835[21, 22, 18, 22, 21, 19, 22, 21]
49.857[24, 22, 17, 24, 22, 20, 22, 21]
49.871[25, 23, 20, 23, 21, 17, 21, 20]
49.895[24, 22, 21, 24, 20, 17, 19, 20]
49.917[24, 23, 22, 22, 21, 17, 18, 19]
49.931[23, 23, 22, 20, 22, 17, 15, 21]
49.955[21, 23, 23, 22, 21, 19, 18, 20]
49.978[20, 21, 22, 21, 22, 20, 19, 17]
50.0[19, 22, 21, 20, 24, 20, 21, 17]
50.015[19, 21, 20, 19, 23, 21, 21, 17]
50.037[20, 21, 22, 21, 22, 21, 23, 19]
50.06[20, 22, 22, 19, 22, 21, 21, 19]
50.075[19, 23, 22, 21, 21, 20, 20, 20]
50.097[20, 21, 22, 22, 23, 19, 17, 22]
50.111[21, 22, 23, 23, 24, 20, 18, 22]
50.135[19, 21, 21, 23, 25, 18, 16, 22]
50.157[20, 20, 20, 21, 25, 18, 16, 21]
50.171[20, 19, 20, 22, 25, 19, 17, 20]
50.195[20, 21, 21, 23, 23, 20, 18, 17]
50.217[19, 21, 21, 23, 23, 18, 18, 20]
50.231[19, 21, 21, 20, 23, 19, 19, 16]
50.254[19, 21, 23, 20, 21, 20, 19, 20]
50.277[19, 21, 22, 19, 21, 19, 19, 22]
50.291[18, 20, 23, 18, 21, 19, 18, 23]
50.314[20, 18, 23, 18, 21, 18, 18, 20]
50.337[20, 19, 21, 19, 20, 18, 18, 22]
50.351[20, 18, 20, 19, 20, 18, 19, 19]
50.375[20, 17, 20, 19, 21, 17, 19, 18]
50.397[21, 17, 19, 21, 21, 18, 20, 20]
50.411[17, 19, 19, 20, 19, 18, 18, 21]
50.434[19, 20, 20, 20, 19, 19, 19, 21]
50.457[20, 20, 20, 20, 20, 17, 18, 20]
50.471[19, 23, 19, 20, 18, 18, 19, 21]
50.495[20, 24, 20, 17, 19, 17, 19, 19]
50.517[21, 22, 21, 18, 20, 20, 21, 19]
50.531[19, 20, 21, 21, 19, 21, 22, 19]
50.554[18, 20, 22, 21, 19, 22, 20, 19]
50.577[18, 20, 22, 22, 20, 22, 21, 19]
50.6[18, 21, 23, 23, 21, 23, 21, 21]
50.615[17, 21, 21, 24, 20, 20, 19, 21]
50.637