[19, 22, 22, 25, 24, 19, 19, 17]
0.914[21, 23, 21, 24, 24, 20, 19, 18]
0.937[21, 20, 21, 24, 23, 20, 19, 17]
0.959[22, 20, 22, 25, 23, 20, 19, 16]
0.974[22, 19, 22, 28, 21, 19, 17, 14]
0.997[21, 16, 22, 30, 18, 18, 16, 16]
1.02[19, 16, 20, 27, 15, 17, 18, 16]
1.034[18, 17, 25, 38, 15, 17, 19, 16]
1.057[17, 19, 33, 54, 18, 17, 18, 20]
1.079[17, 20, 33, 57, 19, 15, 19, 21]
1.094[18, 22, 34, 56, 20, 17, 20, 21]
1.117[19, 22, 34, 56, 20, 19, 20, 23]
1.139[20, 25, 32, 50, 20, 20, 18, 23]
1.154[22, 25, 23, 31, 19, 20, 19, 22]
1.177[24, 24, 29, 40, 20, 21, 19, 22]
1.199[23, 22, 29, 44, 19, 21, 19, 20]
1.214[23, 23, 29, 45, 20, 18, 20, 18]
1.237[22, 21, 28, 47, 21, 20, 19, 20]
1.259[21, 20, 30, 48, 21, 19, 18, 20]
1.274[20, 21, 24, 35, 19, 19, 18, 21]
1.297[19, 21, 25, 31, 21, 18, 18, 24]
1.318[21, 20, 25, 31, 21, 18, 17, 24]
1.334[20, 19, 25, 30, 21, 18, 18, 23]
1.357[20, 18, 20, 26, 22, 20, 24, 24]
1.378[19, 18, 20, 26, 21, 20, 24, 24]
1.4[19, 19, 21, 26, 19, 20, 24, 22]
1.417[16, 19, 20, 30, 19, 20, 24, 22]
1.439[17, 19, 23, 36, 18, 21, 24, 23]
1.46[17, 19, 28, 47, 16, 19, 17, 19]
1.477[17, 19, 29, 52, 18, 19, 17, 21]
1.498[18, 17, 26, 52, 18, 22, 20, 22]
1.52[17, 17, 26, 49, 17, 25, 19, 22]
1.537[19, 17, 29, 49, 18, 23, 19, 22]
1.558[19, 18, 31, 55, 21, 24, 20, 23]
1.58[19, 18, 31, 51, 21, 25, 21, 21]
1.597[19, 19, 31, 51, 23, 22, 20, 20]
1.625[21, 18, 32, 51, 23, 19, 21, 21]
1.64[18, 17, 29, 47, 21, 20, 21, 21]
1.657[20, 17, 22, 28, 19, 20, 20, 20]
1.678[19, 18, 23, 36, 18, 18, 19, 20]
1.7[18, 20, 42, 75, 19, 19, 20, 21]
1.717[19, 21, 42, 79, 18, 18, 19, 20]
1.738[19, 21, 41, 78, 19, 17, 19, 19]
1.76[19, 24, 42, 78, 19, 18, 21, 20]
1.777[20, 23, 42, 76, 19, 19, 21, 21]
1.798[20, 22, 27, 45, 18, 21, 20, 20]
1.82[19, 21, 39, 72, 21, 21, 19, 20]
1.843[20, 24, 40, 76, 21, 21, 20, 20]
1.866[21, 20, 40, 75, 20, 20, 19, 19]
1.88[20, 21, 39, 75, 22, 20, 18, 17]
1.904[20, 22, 40, 73, 22, 18, 18, 18]
1.926[20, 22, 29, 53, 21, 18, 18, 18]
1.94[21, 20, 29, 53, 23, 18, 17, 19]
1.963[19, 22, 28, 51, 24, 18, 17, 20]
1.994[22, 21, 28, 50, 23, 19, 18, 22]
2.0[22, 20, 26, 46, 22, 18, 17, 22]
2.023[21, 22, 23, 30, 20, 19, 18, 22]
2.045[21, 22, 24, 20, 19, 18, 19, 21]
2.061[21, 20, 22, 21, 19, 18, 19, 21]
2.083[18, 20, 24, 27, 20, 17, 19, 18]
2.105[18, 22, 22, 27, 19, 19, 20, 19]
2.12[18, 20, 23, 27, 19, 18, 18, 19]
2.143[18, 22, 21, 28, 20, 19, 21, 17]
2.174[19, 22, 23, 33, 19, 18, 20, 16]
2.18[18, 23, 20, 28, 19, 20, 20, 17]
2.203[18, 23, 29, 50, 21, 18, 20, 18]
2.226[19, 24, 32, 55, 23, 19, 21, 18]
2.24[18, 22, 32, 54, 22, 18, 19, 18]
2.263[19, 23, 34, 53, 22, 19, 18, 20]
2.285[19, 22, 34, 54, 21, 19, 18, 19]
2.3[19, 21, 26, 37, 20, 18, 19, 18]
2.323[19, 20, 21, 29, 16, 19, 21, 20]
2.345[18, 20, 23, 33, 18, 19, 21, 21]
2.36[17, 20, 22, 32, 20, 18, 21, 20]
2.383[18, 20, 24, 31, 19, 19, 21, 21]
2.405[18, 20, 24, 26, 20, 20, 20, 21]
2.42[18, 19, 27, 29, 23, 19, 20, 20]
2.443[19, 20, 25, 24, 22, 19, 21, 18]
2.465[19, 21, 25, 26, 21, 20, 23, 18]
2.48[17, 22, 28, 33, 23, 19, 24, 17]
2.504[19, 22, 33, 46, 22, 19, 25, 17]
2.525[19, 21, 32, 45, 18, 21, 21, 18]
2.54[19, 21, 35, 48, 20, 22, 21, 19]
2.563[19, 21, 34, 48, 20, 21, 20, 20]
2.585[21, 19, 31, 44, 17, 21, 19, 20]
2.6[20, 19, 28, 32, 19, 20, 19, 22]
2.623[20, 20, 34, 43, 21, 19, 20, 21]
2.645[19, 20, 31, 42, 19, 18, 20, 21]
2.66[18, 20, 32, 40, 18, 20, 19, 20]
2.683[18, 21, 32, 46, 22, 19, 18, 18]
2.705[17, 20, 29, 44, 21, 19, 18, 17]
2.72[17, 18, 29, 47, 19, 21, 17, 15]
2.743[19, 17, 33, 51, 22, 18, 15, 16]
2.773[20, 19, 33, 53, 23, 16, 16, 15]
2.782[20, 20, 33, 49, 21, 19, 18, 16]
2.803[22, 21, 36, 54, 21, 19, 17, 18]
2.825[23, 22, 29, 42, 23, 18, 18, 19]
2.848[22, 22, 25, 40, 20, 19, 19, 19]
2.863[21, 24, 31, 52, 21, 20, 19, 20]
2.885[21, 23, 31, 52, 20, 18, 18, 19]
2.908[20, 24, 29, 49, 20, 19, 17, 18]
2.924[17, 24, 31, 49, 20, 18, 16, 19]
2.945[16, 24, 33, 47, 21, 19, 16, 20]
2.968[17, 19, 27, 32, 18, 17, 14, 19]
2.983[17, 19, 31, 48, 17, 17, 13, 20]
3.013[18, 19, 30, 49, 18, 17, 16, 19]
3.028[18, 19, 30, 50, 17, 17, 18, 17]
3.044[22, 18, 28, 47, 19, 18, 17, 16]
3.065[21, 21, 28, 48, 20, 19, 21, 18]
3.088[21, 20, 26, 34, 21, 19, 22, 18]
3.103[21, 21, 26, 32, 22, 21, 22, 19]
3.125[22, 23, 24, 30, 21, 21, 23, 19]
3.148[20, 23, 23, 30, 19, 21, 22, 19]
3.163[19, 23, 24, 28, 19, 20, 19, 19]
3.185[18, 23, 22, 24, 19, 22, 18, 18]
3.208[17, 22, 24, 24, 18, 20, 21, 18]
3.223[17, 19, 25, 22, 19, 20, 20, 19]
3.245[16, 19, 25, 21, 19, 20, 21, 19]
3.268[18, 17, 27, 25, 19, 21, 22, 19]
3.283[19, 20, 25, 22, 18, 21, 24, 20]
3.305[19, 19, 27, 23, 19, 21, 21, 21]
3.328[20, 21, 28, 33, 18, 21, 19, 20]
3.343[19, 21, 33, 47, 18, 19, 22, 20]
3.365[19, 22, 31, 45, 17, 18, 21, 19]
3.389[20, 20, 32, 46, 20, 17, 21, 19]
3.402[20, 21, 30, 49, 21, 17, 21, 17]
3.425[20, 21, 30, 47, 21, 17, 22, 19]
3.448[20, 21, 26, 36, 23, 20, 20, 19]
3.463[21, 21, 26, 37, 22, 20, 21, 18]
3.485[20, 21, 25, 36, 21, 19, 22, 18]
3.508[19, 21, 26, 35, 19, 20, 22, 18]
3.523[19, 22, 29, 43, 20, 20, 22, 15]
3.545[20, 23, 29, 42, 18, 17, 21, 15]
3.568[19, 23, 30, 43, 19, 17, 20, 15]
3.583[18, 23, 31, 43, 17, 17, 18, 16]
3.605[18, 22, 30, 42, 20, 18, 19, 17]
3.628[18, 22, 25, 31, 18, 20, 20, 18]
3.643[18, 21, 24, 29, 20, 21, 23, 19]
3.665[18, 20, 27, 40, 20, 22, 22, 22]
3.688[19, 22, 28, 47, 19, 22, 21, 21]
3.703[19, 23, 27, 46, 18, 22, 22, 22]
3.725[20, 21, 27, 46, 19, 20, 20, 22]
3.748[19, 21, 32, 57, 19, 20, 18, 21]
3.771[21, 22, 29, 51, 22, 18, 18, 20]
3.785[20, 20, 32, 60, 25, 20, 23, 20]
3.808[21, 20, 32, 62, 24, 19, 23, 20]
3.831[21, 20, 35, 68, 24, 20, 22, 19]
3.845[19, 19, 31, 62, 23, 21, 21, 19]
3.868[18, 21, 35, 64, 23, 21, 21, 20]
3.891[21, 22, 31, 49, 22, 20, 17, 20]
3.905[20, 21, 34, 48, 22, 21, 17, 21]
3.928[21, 22, 35, 46, 22, 19, 18, 20]
3.951[21, 22, 35, 44, 22, 17, 19, 20]
3.965[21, 22, 33, 40, 21, 20, 20, 20]
3.989[21, 22, 34, 43, 21, 20, 21, 20]
4.011[21, 23, 31, 43, 20, 20, 20, 19]
4.025[20, 21, 35, 58, 22, 20, 21, 18]
4.049[21, 21, 36, 59, 22, 21, 20, 19]
4.071[21, 22, 40, 63, 22, 19, 19, 18]
4.085[18, 22, 39, 61, 22, 18, 19, 21]
4.108[18, 21, 40, 62, 21, 18, 18, 18]
4.131[18, 21, 34, 42, 19, 20, 18, 21]
4.145[18, 21, 31, 38, 21, 20, 16, 21]
4.169[19, 19, 26, 31, 22, 19, 17, 21]
4.191[20, 19, 32, 44, 23, 20, 17, 20]
4.205[20, 20, 31, 43, 23, 21, 18, 20]
4.228[21, 20, 31, 44, 24, 20, 19, 18]
4.251[21, 21, 34, 45, 23, 19, 19, 16]
4.265[20, 20, 34, 45, 23, 21, 19, 17]
4.288[21, 20, 31, 38, 21, 21, 21, 16]
4.311[20, 20, 33, 41, 20, 21, 21, 17]
4.325[20, 18, 33, 39, 18, 20, 20, 20]
4.349[17, 18, 32, 37, 14, 23, 22, 20]
4.371[17, 19, 32, 38, 17, 22, 24, 20]
4.385[17, 22, 30, 34, 19, 22, 21, 19]
4.408[18, 23, 29, 36, 20, 21, 21, 19]
4.431[17, 23, 34, 48, 22, 22, 21, 16]
4.446[17, 22, 32, 51, 23, 17, 19, 18]
4.468[19, 22, 33, 51, 20, 16, 18, 17]
4.491[18, 20, 31, 49, 22, 20, 18, 19]
4.506[18, 18, 32, 59, 24, 21, 20, 19]
4.528[20, 20, 26, 50, 22, 20, 19, 19]
4.551[21, 20, 27, 48, 22, 21, 19, 20]
4.565[20, 20, 31, 50, 25, 23, 18, 21]
4.589[20, 19, 29, 50, 22, 20, 19, 19]
4.611[20, 20, 27, 30, 21, 20, 17, 20]
4.626[19, 18, 28, 32, 20, 19, 18, 21]
4.649[21, 18, 29, 31, 23, 22, 17, 20]
4.671[20, 20, 22, 25, 20, 22, 20, 19]
4.685[20, 20, 30, 46, 21, 23, 19, 19]
4.708[19, 20, 30, 48, 20, 24, 19, 19]
4.731[19, 22, 28, 45, 21, 23, 18, 19]
4.753[17, 22, 28, 45, 19, 21, 19, 19]
4.769[18, 20, 31, 51, 21, 22, 18, 19]
4.791[19, 22, 30, 47, 22, 24, 17, 20]
4.813[19, 23, 29, 46, 22, 22, 17, 20]
4.828[21, 24, 30, 50, 21, 23, 17, 21]
4.851[21, 23, 29, 51, 22, 23, 18, 23]
4.873[21, 24, 27, 45, 22, 22, 17, 23]
4.888[21, 24, 25, 37, 20, 19, 19, 24]
4.911[23, 21, 29, 45, 24, 22, 20, 23]
4.933[22, 23, 28, 41, 24, 23, 20, 23]
4.949[22, 23, 29, 41, 25, 22, 18, 21]
4.971[21, 22, 30, 45, 25, 22, 21, 23]
4.993[21, 23, 25, 40, 25, 23, 20, 20]
5.008[19, 23, 24, 29, 24, 21, 21, 22]
5.031[16, 21, 29, 41, 25, 20, 22, 21]
5.053[18, 20, 29, 42, 24, 20, 24, 23]
5.068[18, 20, 28, 39, 24, 19, 23, 22]
5.091[17, 21, 29, 40, 23, 18, 22, 24]
5.114[17, 22, 27, 40, 21, 18, 21, 22]
5.128[19, 22, 24, 29, 19, 17, 21, 24]
5.151[18, 24, 24, 30, 21, 18, 19, 22]
5.173[18, 25, 27, 39, 19, 17, 18, 21]
5.188[21, 24, 26, 39, 21, 19, 19, 19]
5.211[21, 26, 26, 41, 22, 18, 19, 19]
5.233[19, 27, 26, 40, 23, 18, 18, 19]
5.247[21, 26, 26, 45, 22, 17, 19, 18]
5.271[20, 25, 31, 52, 23, 19, 19, 20]
5.294[18, 25, 30, 54, 22, 17, 19, 21]
5.307[19, 22, 32, 53, 23, 18, 18, 21]
5.331[19, 23, 33, 56, 23, 20, 20, 20]
5.353[19, 22, 31, 51, 22, 22, 21, 19]
5.367[23, 23, 25, 34, 22, 21, 21, 17]
5.391[22, 22, 24, 31, 23, 23, 21, 17]
5.413[23, 21, 30, 47, 23, 23, 23, 18]
5.428[23, 19, 27, 43, 22, 22, 21, 18]
5.451[21, 21, 30, 46, 23, 21, 20, 18]
5.473[18, 20, 29, 46, 24, 21, 18, 20]
5.488[18, 22, 30, 46, 23, 19, 19, 18]
5.511[20, 22, 27, 47, 23, 20, 21, 19]
5.533[21, 23, 31, 56, 23, 20, 19, 19]
5.548[21, 22, 31, 53, 23, 20, 21, 20]
5.571[21, 23, 31, 56, 22, 19, 23, 18]
5.593[21, 22, 31, 56, 22, 20, 22, 19]
5.608[19, 22, 30, 43, 21, 19, 19, 19]
5.631[18, 21, 25, 33, 19, 21, 20, 18]
5.652[18, 23, 23, 34, 20, 21, 19, 20]
5.675[20, 23, 23, 32, 18, 20, 16, 21]
5.692[20, 23, 22, 29, 18, 19, 17, 20]
5.714[19, 24, 28, 46, 17, 19, 19, 20]
5.742[19, 24, 29, 48, 18, 19, 20, 21]
5.752[19, 21, 29, 48, 17, 19, 21, 19]
5.773[15, 19, 28, 46, 20, 19, 21, 18]
5.795[17, 20, 34, 56, 21, 19, 22, 18]
5.811[17, 19, 27, 42, 22, 20, 20, 19]
5.832[18, 19, 27, 41, 23, 19, 18, 18]
5.863[19, 22, 27, 41, 22, 18, 17, 18]
5.871[19, 22, 28, 42, 23, 17, 19, 17]
5.892[17, 21, 23, 34, 23, 19, 20, 18]
5.915[18, 21, 24, 40, 22, 17, 20, 18]
5.931[17, 22, 29, 49, 22, 19, 21, 19]
5.952[14, 19, 29, 50, 23, 21, 23, 18]
5.975[17, 20, 31, 51, 22, 21, 21, 19]
5.991[19, 19, 31, 47, 22, 20, 21, 18]
6.013[17, 20, 36, 58, 23, 22, 20, 19]
6.035[18, 20, 32, 52, 23, 21, 19, 18]
6.051[18, 18, 32, 50, 23, 20, 19, 20]
6.072[19, 19, 31, 51, 22, 19, 18, 19]
6.095[19, 19, 30, 50, 23, 20, 20, 20]
6.111[20, 18, 24, 32, 23, 17, 21, 18]
6.132[21, 21, 29, 48, 22, 19, 22, 17]
6.155[20, 22, 30, 52, 21, 18, 20, 16]
6.171[18, 23, 29, 49, 19, 19, 20, 18]
6.193[16, 24, 29, 50, 19, 19, 20, 18]
6.215[18, 23, 33, 57, 18, 21, 18, 17]
6.231[18, 21, 29, 47, 20, 20, 17, 19]
6.253[19, 22, 28, 45, 21, 22, 18, 19]
6.275[20, 21, 30, 46, 23, 20, 19, 18]
6.297[21, 21, 29, 46, 23, 22, 18, 20]
6.312[19, 21, 25, 37, 24, 19, 20, 20]
6.335[19, 22, 23, 29, 22, 19, 21, 19]
6.351[20, 21, 23, 27, 22, 20, 19, 19]
6.373[20, 22, 22, 25, 20, 20, 19, 22]
6.395[20, 20, 21, 26, 20, 18, 18, 23]
6.411[20, 20, 23, 23, 19, 19, 17, 23]
6.432[19, 20, 32, 52, 21, 20, 18, 24]
6.455[19, 21, 32, 55, 20, 17, 20, 23]
6.471[18, 20, 31, 55, 20, 18, 23, 20]
6.492[19, 23, 32, 56, 19, 19, 23, 18]
6.515[18, 23, 35, 61, 19, 19, 25, 20]
6.531[19, 21, 29, 43, 18, 18, 22, 19]
6.552[19, 21, 31, 44, 19, 17, 22, 19]
6.575[20, 20, 33, 47, 18, 17, 20, 19]
6.591[18, 17, 32, 46, 18, 18, 19, 18]
6.613[19, 19, 28, 39, 20, 17, 16, 18]
6.635[18, 19, 30, 39, 19, 19, 18, 18]
6.658[17, 19, 27, 32, 19, 22, 19, 18]
6.672[18, 20, 28, 45, 21, 22, 18, 19]
6.695[18, 22, 29, 50, 21, 21, 18, 18]
6.717[20, 20, 29, 50, 20, 21, 20, 17]
6.732[20, 20, 26, 47, 21, 20, 20, 17]
6.755[20, 20, 27, 50, 20, 18, 19, 18]
6.777[20, 20, 24, 36, 19, 20, 22, 16]
6.792[21, 18, 24, 30, 20, 20, 20, 17]
6.815[19, 21, 25, 30, 20, 20, 19, 18]
6.837[22, 21, 34, 55, 20, 20, 22, 18]
6.852[21, 21, 32, 54, 21, 21, 22, 18]
6.875[21, 23, 32, 54, 22, 20, 19, 20]
6.898[20, 23, 32, 54, 22, 19, 20, 21]
6.912[20, 21, 31, 55, 23, 19, 20, 19]
6.935[17, 21, 22, 30, 23, 18, 16, 19]
6.957[17, 20, 22, 28, 22, 19, 16, 19]
6.972[16, 17, 23, 34, 20, 20, 17, 18]
6.995[17, 19, 27, 47, 20, 20, 20, 17]
7.017[17, 20, 27, 46, 18, 19, 22, 18]
7.032[18, 22, 28, 47, 17, 20, 23, 20]
7.055[18, 22, 29, 48, 17, 18, 22, 21]
7.086[19, 22, 27, 49, 17, 17, 22, 21]
7.092[20, 21, 27, 49, 18, 17, 19, 21]
7.116[19, 20, 27, 50, 18, 17, 17, 20]
7.137[19, 21, 27, 49, 19, 18, 17, 19]
7.152[18, 21, 26, 48, 20, 18, 19, 18]
7.177[19, 20, 25, 45, 22, 17, 19, 19]
7.197[17, 20, 22, 30, 20, 19, 19, 18]
7.22[18, 19, 28, 43, 24, 17, 19, 19]
7.235[18, 17, 28, 46, 25, 18, 18, 19]
7.257[19, 18, 27, 45, 24, 18, 19, 20]
7.272[19, 20, 29, 45, 23, 17, 19, 21]
7.303[18, 20, 30, 49, 23, 16, 18, 23]
7.318[17, 22, 25, 37, 22, 18, 19, 23]
7.332[18, 24, 24, 30, 20, 16, 21, 22]
7.355[18, 23, 28, 41, 20, 15, 18, 21]
7.378[18, 21, 27, 43, 19, 17, 19, 19]
7.392[18, 23, 26, 39, 20, 17, 19, 17]
7.415[19, 21, 25, 40, 18, 16, 18, 17]
7.437[18, 19, 28, 43, 18, 17, 16, 18]
7.454[18, 18, 30, 47, 19, 20, 19, 18]
7.475[19, 19, 31, 44, 20, 21, 19, 19]
7.497[19, 17, 31, 44, 20, 20, 20, 18]
7.512[20, 18, 31, 43, 20, 21, 19, 19]
7.535[21, 21, 30, 46, 20, 22, 20, 19]
7.558[21, 21, 35, 57, 22, 18, 18, 19]
7.58[19, 21, 35, 59, 23, 18, 16, 18]
7.595[19, 22, 36, 60, 23, 18, 16, 19]
7.618[17, 22, 35, 62, 24, 20, 16, 18]
7.64[17, 20, 39, 70, 26, 20, 16, 20]
7.655[16, 21, 31, 56, 23, 20, 17, 20]
7.677[15, 20, 29, 53, 24, 21, 18, 22]
7.7[16, 19, 37, 66, 24, 22, 19, 23]
7.715[15, 18, 38, 69, 23, 20, 18, 23]
7.737[18, 20, 34, 57, 21, 20, 20, 20]
7.76[18, 19, 34, 53, 22, 21, 18, 20]
7.775[19, 19, 38, 56, 22, 22, 19, 20]
7.797[18, 21, 32, 47, 20, 20, 19, 17]
7.82[20, 21, 32, 44, 21, 21, 20, 17]
7.835[20, 20, 30, 44, 23, 21, 19, 16]
7.857[19, 20, 30, 46, 24, 21, 20, 15]
7.88[21, 18, 26, 44, 24, 18, 19, 15]
7.895[22, 18, 25, 34, 24, 19, 17, 15]
7.919[21, 18, 29, 44, 24, 22, 16, 16]
7.94[19, 18, 31, 48, 22, 22, 18, 17]
7.955[20, 20, 29, 45, 23, 22, 17, 19]
7.977[18, 20, 29, 45, 23, 23, 17, 21]
8.0[17, 21, 29, 47, 24, 23, 18, 19]
8.015[19, 20, 23, 34, 24, 18, 18, 19]
8.037[18, 23, 30, 50, 21, 18, 17, 18]
8.06[20, 22, 30, 54, 23, 19, 19, 20]
8.075[19, 24, 30, 53, 22, 17, 20, 19]
8.097[20, 22, 30, 51, 22, 18, 21, 20]
8.12[19, 23, 33, 56, 22, 18, 21, 20]
8.135[19, 20, 29, 44, 22, 17, 21, 21]
8.157[17, 21, 29, 41, 18, 16, 20, 18]
8.18[18, 19, 30, 46, 18, 17, 19, 18]
8.195[18, 23, 32, 52, 19, 16, 18, 19]
8.217[17, 23, 29, 48, 18, 18, 18, 18]
8.24[18, 23, 27, 43, 20, 18, 21, 19]
8.255[19, 23, 26, 42, 21, 20, 20, 19]
8.277[21, 22, 26, 38, 23, 20, 21, 19]
8.3[19, 21, 25, 35, 21, 21, 21, 19]
8.315[20, 22, 26, 33, 22, 19, 22, 20]
8.337[20, 22, 26, 30, 20, 22, 20, 19]
8.36[20, 22, 36, 56, 22, 20, 19, 19]
8.375[19, 22, 36, 59, 20, 19, 19, 19]
8.397[19, 19, 36, 57, 22, 18, 18, 18]
8.42[18, 20, 43, 75, 23, 21, 19, 17]
8.435[17, 19, 43, 75, 22, 18, 18, 18]
8.457[18, 19, 36, 58, 22, 20, 18, 16]
8.48[18, 20, 37, 56, 21, 22, 18, 16]
8.503[18, 21, 39, 63, 22, 22, 18, 16]
8.517[19, 20, 31, 41, 20, 19, 18, 18]
8.54[20, 20, 31, 41, 19, 21, 17, 18]
8.563[21, 23, 32, 45, 19, 19, 17, 20]
8.577[21, 23, 30, 44, 19, 19, 17, 19]
8.6[21, 23, 25, 34, 17, 20, 17, 19]
8.623[20, 24, 26, 36, 17, 23, 16, 18]
8.637[21, 24, 29, 44, 21, 23, 17, 18]
8.66[20, 22, 27, 40, 20, 23, 17, 16]
8.683[20, 22, 27, 43, 21, 21, 17, 16]
8.697[21, 20, 28, 44, 22, 21, 17, 16]
8.721[21, 21, 31, 52, 22, 21, 17, 16]
8.743[19, 20, 27, 46, 21, 20, 16, 17]
8.758[17, 20, 27, 45, 21, 20, 16, 17]
8.78[17, 20, 26, 41, 21, 21, 16, 16]
8.803[18, 21, 35, 69, 22, 20, 16, 16]
8.817[19, 19, 33, 63, 22, 19, 16, 17]
8.841[19, 19, 34, 62, 21, 19, 17, 16]
8.863[19, 19, 36, 65, 21, 18, 18, 17]
8.877[18, 21, 37, 69, 21, 20, 19, 17]
8.9[17, 20, 31, 51, 21, 21, 20, 17]
8.923[19, 21, 32, 53, 21, 23, 20, 17]
8.937[20, 21, 32, 52, 21, 23, 19, 17]
8.96[20, 22, 31, 56, 22, 23, 20, 18]
8.983[22, 19, 31, 56, 25, 22, 19, 18]
8.998[22, 20, 28, 47, 23, 21, 18, 17]
9.028[21, 23, 26, 42, 22, 19, 19, 18]
9.043[22, 22, 32, 53, 23, 19, 20, 17]
9.057[22, 23, 31, 47, 24, 21, 19, 16]
9.08[20, 23, 33, 45, 24, 20, 19, 17]
9.103[20, 23, 45, 81, 26, 21, 19, 18]
9.117[19, 20, 47, 86, 26, 20, 18, 17]
9.14[19, 22, 49, 94, 28, 21, 18, 18]
9.163[20, 23, 54, 105, 28, 19, 18, 19]
9.186[20, 22, 53, 107, 26, 20, 17, 20]
9.201[20, 21, 47, 92, 24, 20, 18, 19]
9.223[21, 23, 49, 96, 24, 23, 17, 18]
9.237[19, 21, 47, 86, 23, 22, 17, 18]
9.26[19, 21, 45, 85, 21, 22, 17, 17]
9.283[19, 21, 46, 84, 21, 22, 17, 15]
9.297[18, 20, 41, 73, 19, 21, 16, 20]
9.32[17, 17, 36, 62, 20, 20, 19, 20]
9.343[17, 17, 31, 58, 19, 20, 19, 21]
9.357[18, 18, 33, 50, 20, 19, 20, 23]
9.38[18, 18, 43, 77, 25, 17, 20, 22]
9.403[19, 19, 46, 85, 26, 19, 22, 20]
9.417[19, 20, 48, 86, 25, 20, 20, 21]
9.44[19, 19, 47, 84, 26, 17, 21, 20]
9.463[17, 19, 44, 83, 24, 18, 21, 18]
9.485[21, 19, 33, 58, 22, 19, 20, 19]
9.5[20, 17, 29, 48, 22, 17, 18, 18]
9.523[20, 18, 26, 46, 22, 17, 19, 20]
9.546[20, 19, 28, 46, 23, 19, 17, 20]
9.561[21, 22, 24, 42, 24, 19, 16, 20]
9.583[17, 22, 24, 46, 22, 20, 16, 21]
9.606[18, 23, 33, 57, 26, 21, 16, 23]
9.621[19, 22, 38, 70, 26, 20, 16, 21]
9.65[19, 23, 37, 70, 25, 19, 17, 21]
9.665[19, 20, 37, 66, 24, 22, 18, 21]
9.68[21, 23, 43, 73, 25, 21, 19, 20]
9.703[20, 22, 43, 76, 24, 21, 20, 19]
9.725[18, 23, 40, 65, 23, 23, 20, 19]
9.74[20, 21, 41, 66, 23, 24, 20, 19]
9.763[21, 22, 41, 66, 23, 23, 20, 20]
9.785[21, 19, 41, 67, 24, 22, 19, 21]
9.8[21, 19, 33, 53, 20, 21, 19, 19]
9.823[21, 19, 33, 52, 22, 21, 20, 20]
9.845[20, 21, 34, 52, 22, 19, 22, 21]
9.86[18, 21, 36, 61, 23, 20, 23, 20]
9.883[18, 21, 38, 70, 24, 20, 23, 19]
9.905[19, 23, 39, 75, 26, 20, 24, 20]
9.92[20, 22, 39, 75, 26, 18, 23, 20]
9.943[19, 21, 38, 76, 26, 20, 21, 19]
9.965[19, 19, 47, 85, 27, 20, 20, 20]
9.979[20, 19, 39, 67, 25, 21, 20, 19]
10.003[19, 18, 41, 63, 24, 20, 20, 20]
10.025[19, 17, 40, 63, 23, 20, 19, 18]
10.04[20, 16, 47, 81, 22, 20, 18, 20]
10.063[21, 18, 45, 82, 19, 18, 17, 19]
10.085[48, 24, 154, 106, 21, 19, 18, 29]
10.1[70, 56, 446, 159, 28, 26, 17, 33]
10.123[110, 66, 474, 188, 34, 28, 24, 64]
10.145[115, 73, 499, 201, 36, 30, 28, 69]
10.16[250, 92, 507, 197, 38, 49, 186, 123]
10.183[300, 162, 493, 192, 48, 74, 335, 199]
10.205[439, 184, 280, 158, 62, 218, 627, 395]
10.219[504, 214, 245, 132, 107, 329, 856, 510]
10.243[610, 367, 237, 122, 129, 392, 936, 572]
10.265[601, 405, 225, 127, 140, 410, 1022, 602]
10.279[608, 423, 211, 119, 150, 471, 1111, 654]
10.303[647, 448, 198, 117, 147, 444, 1069, 634]
10.325[706, 460, 187, 109, 130, 483, 974, 736]
10.34[852, 392, 133, 106, 150, 549, 1101, 766]
10.363[888, 382, 159, 107, 161, 690, 1149, 830]
10.385[961, 379, 169, 113, 161, 706, 1085, 1012]
10.415[929, 343, 169, 117, 165, 713, 1062, 1012]
10.423[918, 332, 162, 116, 163, 698, 1029, 963]
10.445[763, 319, 169, 100, 133, 637, 906, 941]
10.468[721, 287, 137, 96, 127, 534, 814, 971]
10.483[690, 276, 128, 98, 145, 609, 783, 866]
10.505[672, 293, 117, 92, 150, 659, 834, 894]
10.528[659, 291, 125, 97, 151, 628, 912, 875]
10.542[688, 278, 111, 99, 153, 625, 872, 856]
10.565[707, 320, 127, 102, 151, 661, 924, 872]
10.588[673, 302, 129, 91, 137, 644, 923, 849]
10.603[673, 327, 131, 98, 142, 652, 830, 801]
10.625[621, 331, 131, 91, 135, 647, 720, 794]
10.647[539, 327, 135, 82, 129, 662, 742, 820]
10.664[611, 333, 128, 75, 122, 638, 681, 747]
10.684[619, 363, 122, 75, 109, 572, 686, 717]
10.707[586, 373, 115, 61, 89, 492, 660, 737]
10.723[571, 371, 109, 66, 94, 522, 734, 724]
10.745[607, 371, 106, 68, 94, 524, 680, 733]
10.767[570, 336, 103, 67, 87, 474, 633, 727]
10.783[515, 299, 101, 68, 84, 460, 591, 664]
10.804[540, 281, 123, 72, 90, 479, 665, 688]
10.827[619, 285, 122, 74, 90, 462, 656, 679]
10.843[604, 303, 124, 78, 84, 414, 703, 657]
10.864[563, 303, 121, 78, 86, 428, 690, 633]
10.887[566, 295, 116, 76, 88, 391, 732, 625]
10.903[584, 260, 116, 79, 87, 386, 734, 616]
10.925[491, 236, 115, 74, 96, 379, 766, 593]
10.947[469, 198, 110, 71, 103, 415, 717, 615]
10.964[430, 212, 109, 68, 101, 382, 766, 619]
10.984[503, 210, 108, 69, 95, 382, 723, 630]
11.015[453, 202, 92, 60, 91, 360, 660, 601]
11.023[497, 201, 92, 61, 79, 369, 533, 628]
11.044[524, 216, 92, 61, 73, 332, 511, 721]
11.067[562, 190, 84, 65, 67, 326, 424, 778]
11.084[517, 192, 90, 72, 70, 319, 528, 825]
11.104[522, 201, 80, 68, 70, 317, 620, 826]
11.127[490, 191, 80, 73, 70, 278, 624, 803]
11.15[489, 181, 88, 71, 68, 279, 683, 679]
11.165[483, 179, 89, 68, 82, 276, 692, 623]
11.187[454, 196, 101, 62, 83, 282, 684, 566]
11.203[440, 190, 105, 64, 82, 315, 691, 617]
11.225[450, 195, 102, 58, 78, 302, 700, 636]
11.247[430, 199, 93, 60, 81, 299, 680, 680]
11.263[423, 199, 111, 71, 75, 308, 692, 657]
11.292[421, 190, 111, 70, 71, 312, 648, 692]
11.307[439, 188, 117, 74, 72, 276, 692, 652]
11.323[455, 192, 116, 76, 69, 257, 729, 621]
11.344[445, 189, 116, 77, 70, 250, 736, 675]
11.367[424, 210, 101, 68, 63, 229, 677, 679]
11.39[436, 197, 90, 66, 67, 238, 666, 616]
11.404[446, 221, 82, 64, 69, 287, 574, 591]
11.427[515, 224, 83, 62, 71, 304, 594, 626]
11.449[519, 221, 83, 59, 69, 305, 592, 526]
11.464[536, 197, 79, 59, 71, 302, 603, 498]
11.487[517, 201, 69, 63, 69, 291, 624, 560]
11.509[491, 168, 67, 56, 60, 241, 605, 557]
11.524[378, 156, 67, 56, 65, 250, 580, 612]
11.547[393, 144, 68, 54, 63, 240, 547, 642]
11.57[344, 147, 65, 52, 62, 240, 583, 629]
11.585[376, 167, 71, 55, 66, 217, 529, 612]
11.607[395, 163, 68, 60, 73, 254, 560, 654]
11.63[413, 166, 72, 61, 66, 233, 496, 662]
11.645[371, 155, 71, 60, 65, 233, 467, 627]
11.667[435, 149, 80, 66, 71, 250, 489, 673]
11.69[447, 124, 91, 62, 68, 249, 509, 664]
11.704[432, 136, 89, 61, 70, 232, 424, 615]
11.727[423, 127, 95, 60, 73, 236, 484, 533]
11.749[455, 145, 95, 60, 78, 276, 499, 588]
11.765[442, 160, 96, 57, 83, 320, 440, 603]
11.795[388, 177, 82, 57, 83, 319, 508, 587]
11.809[394, 192, 89, 60, 76, 306, 555, 586]
11.825[420, 214, 85, 59, 75, 306, 504, 631]
11.847[402, 201, 80, 59, 69, 267, 524, 575]
11.87[377, 202, 74, 56, 58, 243, 562, 527]
11.884[420, 195, 79, 55, 55, 261, 570, 523]
11.907[413, 168, 70, 49, 56, 260, 514, 560]
11.93[406, 160, 63, 46, 55, 264, 494, 525]
11.944[410, 183, 67, 45, 63, 287, 478, 522]
11.967[401, 168, 63, 44, 61, 260, 425, 531]
11.989[472, 149, 57, 45, 59, 248, 312, 551]
12.004[508, 164, 62, 47, 59, 249, 336, 530]
12.027[493, 155, 72, 50, 56, 236, 391, 512]
12.049[496, 136, 76, 51, 51, 233, 399, 530]
12.064[483, 130, 79, 50, 59, 295, 415, 530]
12.087[426, 152, 85, 48, 63, 288, 443, 541]
12.11[405, 153, 88, 48, 65, 306, 454, 629]
12.124[401, 151, 83, 50, 69, 309, 434, 626]
12.147[418, 161, 78, 55, 71, 309, 447, 613]
12.169[427, 174, 84, 58, 70, 227, 505, 575]
12.184[445, 155, 81, 57, 66, 229, 480, 550]
12.207[489, 141, 74, 56, 65, 196, 481, 468]
12.229[495, 147, 78, 52, 73, 273, 592, 440]
12.245[485, 133, 74, 49, 74, 276, 632, 456]
12.267[485, 123, 74, 46, 72, 289, 559, 483]
12.29[448, 135, 72, 45, 75, 301, 574, 524]
12.312[383, 150, 77, 51, 73, 318, 590, 537]
12.327[365, 147, 78, 53, 65, 265, 482, 601]
12.35[398, 154, 83, 54, 60, 266, 410, 608]
12.372[407, 159, 74, 54, 57, 244, 444, 600]
12.387[418, 157, 76, 56, 57, 243, 502, 618]
12.41[495, 156, 72, 53, 60, 226, 500, 664]
12.432[569, 172, 67, 52, 61, 229, 478, 651]
12.447[590, 220, 77, 56, 67, 226, 497, 676]
12.469[596, 229, 86, 57, 65, 229, 511, 777]
12.492[583, 236, 83, 59, 67, 227, 448, 766]
12.507[529, 230, 84, 60, 65, 225, 423, 711]
12.529[464, 221, 84, 61, 71, 202, 454, 705]
12.552[412, 170, 72, 56, 67, 193, 443, 684]
12.567[411, 167, 77, 63, 71, 227, 410, 592]
12.589[441, 171, 87, 67, 76, 233, 424, 533]
12.612[419, 191, 85, 65, 82, 255, 481, 542]
12.627[417, 179, 83, 60, 77, 265, 473, 539]
12.649[380, 174, 82, 60, 76, 263, 455, 516]
12.672[379, 169, 69, 56, 75, 245, 446, 510]
12.687[343, 145, 57, 49, 66, 236, 418, 595]
12.71[345, 112, 65, 47, 55, 213, 404, 690]
12.732[329, 131, 71, 46, 51, 205, 388, 720]
12.747[396, 168, 87, 52, 52, 213, 404, 721]
12.77[375, 197, 94, 46, 47, 208, 434, 744]
12.792[388, 218, 112, 50, 50, 204, 448, 686]
12.807[396, 216, 113, 55, 53, 210, 398, 606]
12.83[400, 210, 111, 59, 56, 210, 474, 591]
12.852[363, 187, 104, 55, 56, 222, 485, 638]
12.867[391, 192, 116, 58, 55, 218, 482, 611]
12.89[412, 206, 98, 58, 58, 218, 497, 647]
12.912[407, 223, 96, 59, 61, 226, 524, 620]
12.927[400, 232, 99, 57, 61, 225, 504, 583]
12.949[426, 228, 95, 56, 59, 196, 506, 584]
12.972[463, 196, 74, 57, 62, 206, 506, 613]
12.987[494, 170, 72, 52, 56, 206, 481, 599]
13.01[502, 167, 71, 46, 49, 198, 458, 581]
13.032[502, 157, 66, 45, 47, 191, 384, 594]
13.048[479, 157, 70, 41, 45, 220, 351, 572]
13.069[427, 156, 73, 37, 46, 268, 422, 513]
13.092[413, 167, 74, 46, 52, 283, 423, 487]
13.107[447, 193, 71, 50, 53, 269, 497, 495]
13.129[474, 184, 65, 52, 54, 266, 526, 566]
13.152[509, 198, 64, 60, 63, 246, 510, 558]
13.167[528, 215, 67, 59, 62, 190, 460, 621]
13.19[496, 201, 71, 59, 61, 168, 478, 641]
13.212[486, 157, 72, 56, 62, 199, 395, 651]
13.235[491, 156, 79, 55, 61, 202, 376, 575]
13.249[510, 147, 76, 49, 53, 201, 403, 574]
13.272[557, 124, 78, 51, 53, 215, 364, 512]
13.295[640, 138, 89, 46, 53, 212, 358, 553]
13.309[670, 167, 90, 47, 50, 184, 344, 525]
13.332[683, 186, 86, 48, 51, 200, 360, 601]
13.355[627, 182, 86, 49, 49, 204, 373, 569]
13.369[593, 186, 82, 48, 53, 194, 381, 594]
13.392[512, 207, 86, 53, 51, 190, 360, 525]
13.415[515, 194, 83, 51, 49, 193, 395, 543]
13.43[507, 185, 83, 52, 60, 223, 394, 622]
13.452[514, 183, 85, 54, 63, 226, 352, 644]
13.475[485, 170, 80, 53, 61, 219, 388, 679]
13.489[457, 135, 56, 45, 61, 222, 387, 699]
13.512[427, 134, 62, 54, 73, 323, 393, 720]
13.535[395, 127, 130, 56, 67, 316, 393, 596]
13.549[404, 126, 133, 64, 68, 309, 395, 612]
13.572[425, 141, 137, 68, 71, 339, 339, 571]
13.594[460, 147, 143, 75, 71, 337, 365, 595]
13.609[431, 141, 148, 76, 61, 254, 309, 660]
13.632[429, 136, 101, 81, 64, 245, 319, 650]
13.655[462, 166, 100, 75, 60, 249, 425, 629]
13.669[506, 173, 102, 77, 56, 202, 441, 685]
13.692[464, 164, 100, 69, 55, 220, 451, 668]
13.715[463, 172, 92, 67, 62, 227, 508, 580]
13.729[486, 193, 92, 64, 64, 241, 521, 597]
13.752[517, 188, 91, 64, 68, 280, 490, 580]
13.775[474, 178, 84, 59, 69, 291, 485, 522]
13.789[517, 182, 76, 59, 69, 281, 478, 527]
13.812[514, 183, 75, 58, 68, 302, 435, 497]
13.835[486, 163, 100, 52, 67, 293, 462, 486]
13.849[410, 190, 111, 54, 67, 273, 458, 631]
13.872[385, 189, 110, 52, 63, 270, 482, 694]
13.895[363, 189, 112, 54, 62, 264, 481, 660]
13.909[405, 180, 111, 52, 59, 219, 487, 691]
13.932[418, 207, 95, 53, 54, 207, 481, 723]
13.956[447, 167, 77, 53, 57, 231, 457, 671]
13.969[447, 171, 83, 54, 59, 223, 437, 599]
13.992[479, 173, 81, 57, 61, 223, 428, 606]
14.015[497, 167, 77, 54, 58, 220, 411, 592]
14.029[508, 132, 61, 50, 59, 239, 391, 567]
14.052[547, 143, 76, 49, 55, 233, 389, 590]
14.075[555, 138, 76, 47, 53, 230, 402, 606]
14.089[509, 146, 80, 41, 52, 243, 404, 583]
14.112[480, 152, 85, 45, 55, 264, 476, 657]
14.135[449, 163, 99, 49, 56, 264, 428, 679]
14.149[386, 154, 89, 50, 63, 286, 480, 594]
14.172[394, 153, 118, 55, 94, 413, 630, 647]
14.195[406, 140, 139, 57, 95, 432, 654, 694]
14.217[371, 148, 153, 61, 98, 443, 608, 606]
14.233[382, 131, 173, 58, 96, 443, 643, 624]
14.255[383, 150, 185, 60, 95, 423, 610, 636]
14.278[373, 156, 178, 61, 69, 329, 454, 553]
14.293[386, 150, 165, 60, 71, 349, 486, 590]
14.315[383, 158, 152, 61, 69, 331, 497, 636]
14.338[378, 163, 127, 60, 67, 334, 490, 596]
14.352[372, 167, 107, 56, 63, 334, 467, 621]
14.375[364, 161, 85, 50, 63, 314, 484, 630]
14.397[361, 171, 78, 55, 59, 249, 444, 610]
14.412[391, 157, 78, 47, 54, 262, 501, 601]
14.435[432, 161, 65, 53, 59, 265, 544, 585]
14.457[429, 140, 72, 57, 60, 322, 570, 574]
14.472[426, 136, 69, 60, 67, 376, 563, 572]
14.495[415, 131, 81, 65, 76, 398, 543, 508]
14.518[386, 131, 81, 66, 81, 396, 510, 464]
14.532[350, 129, 80, 64, 79, 398, 472, 461]
14.555[373, 127, 75, 58, 75, 336, 449, 451]
14.578[405, 135, 98, 57, 66, 267, 444, 457]
14.592[422, 148, 89, 46, 60, 267, 427, 496]
14.615[466, 148, 89, 48, 59, 257, 393, 532]
14.637[471, 153, 91, 47, 58, 224, 339, 514]
14.652[523, 159, 102, 54, 65, 256, 338, 547]
14.675[512, 163, 101, 58, 64, 300, 394, 595]
14.697[498, 158, 100, 57, 59, 275, 415, 610]
14.712[469, 162, 103, 60, 60, 278, 430, 571]
14.735[453, 174, 107, 59, 64, 340, 458, 623]
14.765[418, 165, 95, 55, 60, 331, 462, 599]
14.772[432, 168, 81, 50, 59, 289, 426, 576]
14.795[409, 161, 79, 51, 62, 323, 441, 558]
14.818[424, 156, 70, 48, 60, 320, 485, 619]
14.831[417, 129, 61, 50, 54, 259, 466, 589]
14.855[356, 129, 66, 54, 65, 300, 463, 603]
14.878[407, 123, 71, 53, 68, 355, 434, 592]
14.892[417, 142, 78, 57, 67, 328, 445, 591]
14.915[416, 138, 79, 56, 73, 358, 374, 540]
14.937[430, 140, 82, 53, 74, 383, 363, 534]
14.952[509, 148, 80, 50, 69, 341, 448, 561]
14.975[426, 136, 69, 48, 68, 306, 494, 522]
14.997[437, 131, 65, 45, 71, 314, 476, 539]
15.02[419, 134, 64, 47, 64, 285, 532, 623]
15.035[426, 133, 64, 46, 64, 284, 539, 611]
15.057[405, 134, 64, 53, 73, 332, 494, 644]
15.072[423, 152, 66, 54, 73, 340, 483, 678]
15.095[416, 159, 66, 54, 69, 337, 465, 654]
15.117[455, 162, 69, 51, 70, 328, 398, 604]
15.14[451, 190, 78, 64, 75, 298, 459, 605]
15.155[414, 186, 75, 57, 67, 272, 451, 639]
15.177[406, 187, 76, 59, 68, 293, 412, 623]
15.2[488, 175, 79, 61, 73, 311, 440, 641]
15.215[464, 175, 75, 61, 73, 320, 472, 622]
15.237[462, 153, 71, 53, 66, 315, 428, 624]
15.26[511, 156, 72, 53, 64, 313, 406, 489]
15.275[524, 141, 74, 57, 60, 295, 448, 527]
15.297[437, 161, 75, 53, 54, 281, 483, 498]
15.32[425, 187, 86, 59, 60, 331, 476, 534]
15.335[462, 180, 80, 55, 63, 362, 449, 516]
15.357[377, 179, 83, 59, 61, 345, 490, 482]
15.38[375, 185, 78, 53, 70, 364, 464, 393]
15.395[489, 179, 78, 54, 73, 365, 395, 467]
15.417[497, 159, 74, 56, 75, 351, 428, 478]
15.44[488, 157, 72, 55, 75, 341, 465, 547]
15.455[528, 157, 71, 59, 83, 360, 448, 593]
15.478[520, 149, 74, 61, 82, 347, 450, 613]
15.5[428, 127, 65, 61, 80, 337, 467, 631]
15.515[440, 119, 61, 54, 75, 298, 399, 601]
15.537[397, 120, 67, 54, 72, 275, 407, 602]
15.56[334, 120, 63, 48, 65, 251, 391, 557]
15.575[356, 114, 57, 45, 63, 243, 435, 643]
15.598[355, 111, 60, 49, 65, 242, 412, 565]
15.62[315, 111, 53, 53, 67, 267, 417, 621]
15.642[396, 117, 46, 58, 71, 283, 420, 577]
15.658[415, 121, 52, 62, 66, 293, 411, 652]
15.679[443, 130, 58, 63, 60, 268, 363, 671]
15.701[483, 136, 60, 61, 60, 270, 389, 682]
15.718[498, 137, 73, 61, 58, 243, 390, 655]
15.739[487, 146, 71, 55, 50, 229, 337, 643]
15.755[513, 145, 72, 53, 54, 230, 338, 601]
15.778[495, 138, 67, 50, 59, 239, 344, 591]
15.799[460, 131, 70, 50, 57, 279, 320, 578]
15.815[434, 126, 63, 48, 56, 274, 308, 518]
15.838[438, 106, 63, 48, 59, 270, 323, 537]
15.859[403, 106, 63, 51, 66, 285, 388, 574]
15.875[382, 127, 72, 56, 62, 268, 393, 512]
15.898[384, 127, 67, 55, 61, 211, 396, 525]
15.919[411, 128, 62, 53, 66, 236, 417, 532]
15.935[352, 129, 64, 54, 67, 273, 451, 551]
15.958[388, 146, 62, 48, 65, 248, 438, 590]
15.979[380, 135, 60, 49, 71, 290, 476, 541]
16.001[364, 145, 64, 51, 71, 304, 472, 582]
16.018[416, 144, 72, 54, 67, 284, 447, 644]
16.039[421, 140, 70, 56, 72, 343, 467, 636]
16.056[405, 111, 67, 55, 69, 351, 437, 584]
16.076[450, 122, 64, 50, 67, 321, 359, 602]
16.099[473, 114, 61, 47, 64, 313, 366, 545]
16.121[478, 127, 58, 48, 64, 311, 424, 504]
16.144[491, 133, 65, 48, 54, 199, 369, 528]
16.159[479, 141, 68, 50, 48, 156, 375, 498]
16.182[437, 127, 65, 48, 46, 161, 450, 498]
16.197[443, 124, 64, 47, 46, 184, 468, 491]
16.219[399, 110, 59, 42, 49, 219, 431, 536]
16.242[374, 114, 51, 46, 52, 223, 420, 468]
16.257[393, 111, 51, 44, 55, 241, 399, 455]
16.279[400, 107, 49, 45, 53, 239, 326, 444]
16.301[383, 116, 52, 47, 56, 247, 283, 455]
16.316[390, 118, 52, 49, 58, 252, 328, 358]
16.339[395, 124, 61, 45, 53, 245, 365, 401]
16.361[365, 129, 65, 53, 55, 228, 387, 403]
16.384[401, 133, 73, 58, 61, 245, 382, 367]
16.399[449, 138, 73, 55, 59, 221, 420, 488]
16.422[415, 132, 75, 55, 57, 192, 397, 497]
16.436[447, 126, 69, 60, 60, 204, 361, 481]
16.459[466, 132, 70, 52, 60, 213, 335, 473]
16.481[444, 135, 74, 53, 53, 197, 378, 506]
16.496[407, 121, 78, 55, 53, 236, 386, 423]
16.519[394, 126, 77, 55, 58, 286, 380, 417]
16.543[347, 128, 80, 56, 65, 298, 391, 450]
16.556[329, 114, 76, 57, 65, 316, 408, 514]
16.579[326, 104, 68, 52, 69, 312, 356, 506]
16.61[300, 101, 60, 53, 69, 289, 307, 493]
16.617[317, 94, 67, 53, 64, 242, 315, 524]
16.639[381, 89, 62, 49, 62, 268, 368, 513]
16.662[374, 82, 63, 49, 63, 279, 354, 478]
16.676[365, 82, 56, 50, 61, 281, 383, 474]
16.707[407, 88, 57, 51, 60, 270, 392, 483]
16.721[422, 106, 52, 51, 58, 273, 370, 437]
16.736[365, 104, 61, 50, 55, 237, 296, 480]
16.759[390, 108, 62, 52, 54, 216, 276, 497]
16.782[392, 118, 67, 50, 54, 242, 304, 495]
16.797[421, 123, 69, 48, 55, 254, 320, 503]
16.827[402, 114, 67, 46, 62, 276, 349, 495]
16.842[427, 113, 64, 45, 65, 346, 353, 442]
16.856[404, 124, 65, 50, 74, 365, 419, 408]
16.879[430, 120, 63, 52, 76, 359, 371, 420]
16.902[409, 118, 65, 54, 82, 382, 348, 406]
16.916[406, 114, 68, 55, 79, 360, 314, 392]
16.942[440, 106, 63, 54, 74, 285, 301, 399]
16.962[479, 102, 62, 50, 66, 247, 315, 451]
16.978[483, 105, 64, 51, 64, 265, 320, 423]
16.999[465, 100, 60, 49, 55, 219, 313, 470]
17.022[480, 97, 60, 49, 50, 214, 307, 490]
17.044[440, 106, 65, 49, 49, 218, 324, 526]
17.059[424, 109, 72, 51, 44, 232, 241, 480]
17.082[411, 105, 70, 55, 46, 186, 269, 510]
17.104[404, 101, 75, 52, 42, 185, 253, 446]
17.119[379, 131, 83, 51, 44, 189, 285, 442]
17.141[371, 151, 80, 51, 50, 220, 311, 372]
17.164[352, 150, 72, 47, 50, 200, 297, 410]
17.179[312, 150, 70, 39, 53, 236, 315, 400]
17.202[296, 163, 77, 49, 62, 265, 318, 449]
17.224[313, 145, 66, 49, 59, 259, 312, 462]
17.239[314, 129, 65, 50, 59, 242, 291, 454]
17.262[311, 116, 62, 49, 58, 268, 304, 406]
17.284[304, 120, 66, 52, 54, 263, 293, 388]
17.299[298, 105, 55, 49, 50, 238, 328, 350]
17.321[318, 106, 59, 51, 50, 254, 335, 311]
17.344[304, 94, 60, 49, 46, 251, 336, 389]
17.359[333, 114, 64, 56, 52, 224, 353, 399]
17.381[390, 106, 60, 53, 50, 222, 387, 440]
17.404[394, 111, 63, 50, 45, 228, 362, 444]
17.419[391, 122, 58, 52, 50, 229, 378, 501]
17.442[392, 126, 59, 53, 52, 266, 378, 503]
17.464[375, 108, 55, 44, 51, 279, 365, 499]
17.479[325, 111, 57, 47, 56, 274, 296, 557]
17.502[312, 113, 55, 45, 60, 277, 345, 537]
17.525[288, 94, 53, 40, 59, 283, 303, 529]
17.539[302, 92, 53, 41, 58, 239, 293, 506]
17.561[299, 96, 58, 46, 56, 263, 313, 488]
17.584[299, 100, 62, 47, 57, 294, 319, 387]
17.599[364, 92, 60, 46, 54, 293, 260, 384]
17.622[371, 96, 63, 51, 53, 278, 256, 386]
17.644[372, 110, 61, 50, 54, 291, 260, 355]
17.659[408, 117, 55, 47, 59, 267, 322, 402]
17.682[403, 130, 48, 46, 54, 213, 316, 411]
17.704[331, 145, 55, 48, 55, 207, 317, 459]
17.719[378, 138, 51, 48, 57, 226, 334, 416]
17.75[423, 141, 58, 57, 55, 218, 346, 460]
17.764[401, 142, 66, 56, 50, 223, 290, 473]
17.779[403, 139, 70, 57, 56, 250, 285, 440]
17.801[407, 124, 64, 56, 53, 248, 282, 385]
17.824[420, 127, 64, 53, 53, 244, 268, 434]
17.839[427, 119, 59, 43, 54, 232, 294, 406]
17.861[413, 113, 53, 45, 57, 227, 300, 362]
17.884[437, 104, 51, 43, 53, 198, 325, 401]
17.907[458, 116, 61, 46, 53, 191, 358, 440]
17.922[421, 116, 61, 45, 49, 190, 389, 418]
17.944[376, 111, 62, 45, 48, 225, 392, 387]
17.959[371, 109, 63, 42, 44, 263, 397, 391]
17.981[356, 107, 59, 41, 41, 263, 388, 424]
18.004[387, 101, 55, 38, 42, 275, 365, 414]
18.027[362, 102, 54, 40, 44, 266, 354, 417]
18.042[338, 102, 53, 42, 44, 262, 314, 476]
18.064[372, 102, 55, 40, 43, 215, 280, 492]
18.087[389, 110, 63, 42, 44, 217, 285, 439]
18.101[351, 102, 63, 41, 48, 226, 302, 414]
18.124[372, 112, 68, 41, 48, 231, 273, 425]
18.147[388, 107, 66, 41, 50, 210, 284, 389]
18.161[348, 108, 67, 42, 51, 237, 292, 360]
18.184[316, 101, 61, 43, 54, 261, 284, 381]
18.207[308, 100, 62, 49, 51, 238, 274, 382]
18.229[315, 92, 59, 47, 48, 238, 277, 337]
18.244[321, 94, 56, 46, 49, 240, 269, 322]
18.267[309, 89, 54, 46, 46, 198, 252, 425]
18.281[350, 78, 50, 42, 44, 165, 234, 417]
18.304[356, 85, 47, 36, 42, 180, 231, 447]
18.327[340, 98, 56, 46, 46, 175, 246, 461]
18.342[319, 95, 59, 48, 51, 185, 242, 513]
18.364[324, 102, 59, 52, 50, 183, 223, 430]
18.387[310, 116, 64, 53, 50, 177, 250, 446]
18.401[313, 122, 68, 53, 50, 161, 270, 478]
18.424[371, 106, 59, 47, 56, 184, 291, 558]
18.447[392, 118, 59, 49, 52, 184, 305, 547]
18.461[411, 116, 58, 45, 52, 182, 323, 556]
18.484[433, 101, 54, 42, 52, 186, 345, 567]
18.507[432, 99, 50, 47, 53, 267, 389, 583]
18.521[369, 106, 52, 44, 47, 261, 367, 496]
18.544[357, 98, 51, 44, 46, 248, 354, 461]
18.567[382, 99, 52, 45, 47, 249, 336, 461]
18.581[352, 103, 53, 44, 48, 263, 300, 424]
18.604[348, 98, 53, 40, 45, 178, 204, 344]
18.627[357, 112, 65, 41, 43, 165, 225, 357]
18.642[346, 123, 70, 42, 47, 193, 248, 411]
18.664[307, 122, 72, 41, 46, 199, 277, 382]
18.687[301, 144, 79, 48, 49, 187, 296, 396]
18.701[310, 142, 77, 50, 48, 192, 318, 419]
18.724[311, 127, 68, 50, 49, 199, 299, 444]
18.747[341, 123, 67, 50, 52, 203, 297, 404]
18.761[366, 123, 64, 54, 54, 206, 283, 446]
18.784[367, 98, 59, 54, 65, 274, 296, 465]
18.807[346, 98, 59, 54, 69, 280, 282, 452]
18.822[358, 116, 61, 55, 70, 280, 287, 433]
18.844[417, 114, 56, 52, 67, 272, 269, 420]
18.867[389, 112, 54, 48, 66, 280, 261, 410]
18.881[390, 121, 61, 45, 53, 216, 223, 441]
18.904[431, 123, 62, 46, 53, 203, 205, 440]
18.927[446, 113, 60, 42, 49, 190, 189, 440]
18.95[425, 103, 63, 43, 44, 173, 193, 485]
18.964[462, 100, 66, 43, 43, 144, 204, 487]
18.987[473, 94, 55, 42, 44, 127, 190, 466]
19.009[461, 83, 53, 42, 41, 127, 193, 463]
19.024[437, 89, 55, 46, 49, 167, 204, 469]
19.047[391, 98, 52, 50, 48, 155, 197, 407]
19.07[399, 102, 48, 49, 48, 167, 179, 368]
19.084[373, 95, 56, 51, 45, 184, 239, 434]
19.107[378, 100, 55, 52, 52, 186, 291, 467]
19.129[390, 93, 50, 49, 47, 160, 305, 447]
19.144[390, 91, 51, 51, 52, 184, 308, 566]
19.167[378, 105, 57, 56, 57, 210, 324, 591]
19.19[377, 108, 51, 54, 59, 198, 300, 558]
19.204[376, 108, 53, 53, 53, 205, 269, 604]
19.227[383, 128, 53, 52, 51, 203, 244, 641]
19.25[415, 147, 56, 50, 47, 184, 227, 537]
19.264[403, 137, 55, 48, 45, 154, 198, 588]
19.287[465, 148, 56, 47, 46, 169, 231, 635]
19.31[454, 155, 60, 51, 50, 159, 219, 634]
19.324[440, 139, 68, 55, 53, 165, 234, 675]
19.347[424, 135, 75, 54, 54, 193, 264, 731]
19.369[444, 135, 74, 52, 54, 199, 299, 755]
19.384[379, 124, 75, 56, 58, 193, 266, 730]
19.407[385, 126, 76, 52, 53, 189, 262, 663]
19.429[433, 129, 80, 50, 52, 178, 263, 646]
19.444[413, 119, 77, 47, 57, 181, 242, 618]
19.474[412, 124, 76, 50, 54, 179, 218, 533]
19.489[440, 119, 73, 45, 54, 186, 215, 502]
19.504[431, 107, 70, 44, 52, 186, 230, 523]
19.527[403, 107, 54, 41, 52, 204, 215, 473]
19.55[403, 107, 50, 42, 46, 181, 234, 427]
19.564[350, 107, 53, 45, 56, 184, 256, 499]
19.587[307, 107, 54, 48, 51, 169, 349, 490]
19.61[289, 119, 57, 48, 54, 173, 361, 479]
19.624[252, 115, 60, 49, 58, 223, 369, 457]
19.647[290, 107, 56, 47, 59, 255, 363, 475]
19.67[312, 123, 52, 44, 50, 242, 354, 484]
19.684[342, 128, 52, 39, 48, 243, 269, 464]
19.707[389, 120, 47, 42, 55, 301, 289, 516]
19.73[423, 153, 47, 49, 54, 277, 324, 515]
19.744[402, 156, 52, 54, 58, 258, 324, 549]
19.767[394, 146, 53, 56, 59, 276, 366, 513]
19.789[438, 147, 51, 55, 62, 277, 370, 513]
19.804[458, 148, 54, 52, 55, 221, 351, 493]
19.827[487, 118, 56, 49, 54, 228, 336, 489]
19.849[492, 111, 52, 43, 48, 228, 356, 459]
19.872[503, 99, 52, 39, 48, 235, 332, 408]
19.887[482, 102, 61, 45, 47, 235, 319, 435]
19.909[420, 120, 61, 47, 50, 238, 301, 386]
19.932[348, 111, 58, 43, 44, 215, 282, 394]
19.947[350, 117, 65, 48, 49, 206, 296, 397]
19.97[324, 123, 66, 50, 63, 258, 268, 421]
19.992[263, 129, 63, 51, 73, 291, 274, 373]
20.007[272, 116, 62, 54, 72, 288, 297, 363]
20.029[305, 128, 65, 57, 73, 284, 306, 350]
20.052[288, 122, 58, 53, 69, 292, 267, 345]
20.067[367, 123, 63, 53, 55, 225, 244, 380]
20.09[398, 121, 69, 52, 53, 281, 296, 398]
20.112[409, 117, 67, 51, 55, 308, 265, 416]
20.127[375, 136, 74, 54, 58, 315, 253, 408]
20.15[375, 136, 74, 53, 59, 307, 261, 457]
20.172[284, 131, 69, 51, 66, 369, 312, 406]
20.187[329, 120, 60, 47, 65, 329, 281, 420]
20.21[325, 116, 61, 44, 64, 308, 291, 405]
20.232[333, 83, 47, 37, 61, 304, 288, 405]
20.247[313, 113, 217, 80, 62, 305, 265, 304]
20.269[322, 121, 253, 93, 55, 236, 210, 266]
20.292[263, 125, 288, 98, 50, 225, 191, 231]
20.307[228, 147, 332, 119, 58, 214, 165, 199]
20.33[213, 153, 347, 126, 58, 199, 147, 179]
20.352[216, 139, 316, 119, 60, 189, 142, 163]
20.366[216, 130, 414, 114, 58, 223, 137, 155]
20.389[151, 130, 521, 135, 53, 183, 96, 86]
20.412[166, 108, 520, 127, 41, 178, 97, 82]
20.426[150, 94, 521, 120, 39, 180, 94, 88]
20.457[181, 77, 512, 105, 30, 187, 106, 102]
20.472[167, 80, 443, 103, 30, 114, 90, 96]
20.486[168, 67, 284, 67, 29, 106, 94, 95]
20.509[142, 55, 250, 44, 28, 99, 92, 93]
20.532[149, 52, 237, 45, 31, 93, 87, 73]
20.546[105, 49, 218, 44, 30, 68, 66, 40]
20.569[91, 41, 187, 41, 27, 58, 69, 39]
20.592[84, 39, 191, 42, 27, 57, 57, 34]
20.606[78, 36, 186, 49, 27, 51, 53, 53]
20.629[52, 38, 257, 75, 25, 43, 52, 51]
20.652[32, 37, 269, 83, 25, 38, 45, 50]
20.681[27, 33, 259, 83, 22, 32, 32, 51]
20.69[23, 35, 270, 84, 22, 33, 36, 52]
20.711[23, 39, 325, 102, 21, 32, 36, 28]
20.734[20, 40, 287, 89, 22, 32, 35, 26]
20.75[19, 40, 284, 82, 21, 31, 35, 25]
20.771[19, 38, 290, 82, 23, 31, 36, 23]
20.794[20, 37, 276, 83, 21, 25, 30, 22]
20.81[20, 34, 200, 53, 22, 24, 26, 20]
20.831[23, 36, 195, 57, 22, 23, 25, 21]
20.854[24, 43, 208, 62, 26, 24, 22, 21]
20.87[25, 42, 200, 63, 26, 24, 22, 21]
20.892[26, 41, 193, 58, 27, 24, 21, 22]
20.914[27, 42, 215, 61, 29, 25, 21, 24]
20.93[24, 36, 191, 52, 28, 25, 20, 23]
20.951[23, 25, 164, 46, 25, 23, 21, 22]
20.974[22, 25, 157, 40, 25, 24, 21, 23]
20.99[21, 24, 154, 39, 25, 23, 21, 22]
21.011[19, 19, 122, 33, 22, 21, 20, 22]
21.034[19, 24, 202, 38, 25, 22, 20, 21]
21.05[18, 23, 189, 33, 26, 21, 20, 22]
21.071[19, 23, 186, 34, 24, 20, 18, 22]
21.094[19, 23, 185, 34, 24, 21, 20, 21]
21.11[21, 26, 196, 37, 24, 21, 21, 21]
21.131[20, 20, 113, 35, 19, 20, 20, 20]
21.154[23, 23, 118, 39, 21, 19, 20, 20]
21.17[23, 23, 120, 40, 23, 20, 22, 21]
21.191[24, 23, 132, 40, 23, 19, 20, 22]
21.214[22, 22, 122, 36, 23, 22, 18, 20]
21.23[23, 24, 129, 34, 25, 21, 20, 22]
21.251[22, 28, 167, 38, 25, 26, 22, 22]
21.274[20, 30, 175, 42, 25, 25, 22, 21]
21.29[20, 30, 170, 42, 25, 27, 21, 22]
21.311[20, 30, 159, 41, 25, 25, 22, 22]
21.334[20, 31, 151, 44, 25, 26, 22, 21]
21.35[17, 25, 101, 38, 23, 21, 19, 20]
21.372[19, 26, 134, 35, 22, 21, 18, 20]
21.394[19, 28, 177, 44, 24, 18, 18, 20]
21.41[18, 29, 183, 44, 22, 18, 18, 20]
21.431[19, 27, 185, 39, 23, 17, 16, 21]
21.462[19, 28, 181, 40, 22, 16, 16, 24]
21.47[20, 25, 151, 41, 23, 17, 17, 22]
21.491[22, 21, 112, 34, 22, 18, 19, 24]
21.514[22, 23, 120, 36, 23, 18, 19, 24]
21.53[22, 23, 117, 36, 23, 17, 20, 22]
21.551[23, 23, 118, 32, 21, 18, 21, 22]
21.574[22, 24, 115, 32, 21, 18, 20, 22]
21.59[20, 26, 97, 27, 20, 17, 18, 20]
21.611[21, 23, 73, 25, 20, 16, 19, 20]
21.634[20, 23, 62, 23, 20, 16, 18, 19]
21.649[19, 23, 65, 29, 20, 17, 19, 19]
21.671[20, 21, 69, 30, 18, 17, 19, 20]
21.694[21, 19, 75, 34, 19, 19, 22, 19]
21.709[21, 20, 75, 33, 21, 19, 22, 20]
21.731[23, 21, 85, 35, 21, 19, 22, 20]
21.754[21, 22, 84, 32, 21, 18, 21, 19]
21.776[21, 23, 81, 32, 24, 18, 20, 19]
21.791[19, 21, 69, 27, 25, 16, 18, 19]
21.814[20, 24, 81, 29, 24, 17, 17, 20]
21.836[20, 24, 74, 29, 24, 19, 19, 18]
21.851[24, 23, 69, 32, 25, 18, 18, 18]
21.874[23, 22, 71, 37, 25, 17, 19, 17]
21.896[23, 24, 81, 39, 25, 18, 20, 19]
21.911[23, 23, 68, 39, 23, 17, 22, 17]
21.934[21, 23, 71, 37, 23, 17, 21, 18]
21.956[18, 24, 86, 34, 23, 18, 22, 20]
21.971[17, 25, 97, 28, 23, 18, 21, 20]
21.994[17, 25, 92, 27, 22, 19, 20, 18]
22.016[17, 23, 90, 26, 21, 19, 18, 19]
22.031[16, 24, 107, 29, 20, 18, 18, 19]
22.053[17, 23, 112, 27, 21, 18, 17, 18]
22.076[18, 24, 101, 27, 18, 19, 16, 19]
22.091[18, 25, 100, 24, 17, 18, 17, 20]
22.122[18, 26, 102, 27, 19, 19, 18, 19]
22.136[18, 25, 90, 26, 19, 18, 18, 19]
22.151[18, 24, 78, 28, 19, 20, 20, 19]
22.173[19, 21, 84, 28, 21, 20, 22, 18]
22.196[24, 22, 96, 32, 21, 20, 23, 17]
22.211[25, 22, 98, 32, 21, 19, 22, 19]
22.234[26, 23, 91, 31, 22, 21, 22, 20]
22.256[26, 24, 87, 30, 21, 18, 22, 19]
22.271[25, 25, 86, 31, 21, 19, 21, 20]
22.293[20, 24, 80, 31, 21, 19, 21, 19]
22.316[19, 23, 77, 30, 21, 21, 22, 18]
22.331[19, 20, 79, 31, 20, 21, 21, 19]
22.354[18, 21, 73, 31, 18, 21, 21, 19]
22.376[18, 21, 89, 31, 18, 20, 19, 19]
22.392[19, 20, 84, 35, 17, 21, 18, 21]
22.413[19, 21, 82, 36, 18, 19, 16, 19]
22.436[18, 23, 75, 35, 19, 18, 18, 17]
22.451[18, 21, 78, 35, 20, 18, 18, 18]
22.473[18, 21, 59, 35, 19, 17, 20, 19]
22.496[17, 22, 63, 30, 20, 16, 20, 16]
22.511[18, 22, 67, 27, 20, 18, 20, 18]
22.533[17, 21, 68, 27, 19, 18, 20, 18]
22.556[18, 23, 66, 28, 20, 19, 19, 17]
22.571[17, 25, 62, 25, 20, 19, 18, 16]
22.594[18, 25, 62, 22, 20, 19, 19, 17]
22.624[19, 25, 58, 23, 21, 18, 20, 17]
22.631[20, 25, 59, 26, 20, 19, 19, 18]
22.654[21, 26, 59, 25, 19, 18, 19, 19]
22.676[22, 25, 61, 25, 19, 21, 19, 19]
22.698[21, 24, 54, 25, 20, 21, 19, 20]
22.713[20, 24, 54, 24, 19, 21, 20, 18]
22.736[21, 24, 55, 21, 20, 21, 18, 17]
22.759[21, 23, 70, 24, 21, 21, 18, 17]
22.773[21, 23, 76, 25, 22, 18, 18, 18]
22.796[20, 24, 78, 26, 21, 17, 19, 18]
22.818[21, 23, 77, 25, 21, 18, 18, 19]
22.834[20, 23, 76, 26, 21, 18, 20, 20]
22.856[19, 23, 69, 24, 21, 18, 20, 20]
22.879[19, 22, 58, 22, 20, 19, 20, 19]
22.893[19, 23, 50, 20, 20, 20, 20, 18]
22.916[18, 22, 53, 20, 20, 20, 20, 19]
22.947[17, 24, 53, 21, 20, 19, 19, 17]
22.953[18, 23, 48, 21, 20, 20, 19, 17]
22.976[18, 22, 51, 24, 19, 19, 20, 20]
22.998[17, 22, 59, 25, 18, 19, 21, 21]
23.013[17, 23, 57, 24, 18, 19, 19, 20]
23.036[18, 23, 56, 24, 18, 19, 19, 21]
23.058[18, 24, 57, 23, 18, 19, 18, 21]
23.074[20, 25, 49, 20, 18, 21, 17, 20]
23.096[21, 26, 50, 22, 18, 21, 16, 19]
23.119[20, 26, 61, 24, 19, 19, 17, 20]
23.133[21, 26, 63, 25, 19, 19, 17, 22]
23.156[20, 24, 59, 24, 19, 21, 18, 21]
23.179[21, 25, 58, 24, 19, 20, 18, 19]
23.193[22, 23, 61, 27, 20, 20, 18, 20]
23.216[23, 24, 54, 28, 20, 21, 18, 20]
23.238[22, 21, 53, 27, 19, 21, 17, 18]
23.254[22, 21, 50, 28, 19, 19, 17, 22]
23.276[22, 20, 56, 29, 21, 18, 16, 23]
23.299[22, 19, 44, 25, 20, 19, 16, 23]
23.322[22, 20, 52, 25, 18, 18, 17, 22]
23.336[23, 22, 56, 26, 18, 18, 21, 22]
23.359[23, 24, 57, 26, 18, 18, 22, 17]
23.373[21, 24, 52, 25, 18, 19, 23, 17]
23.396[18, 23, 51, 25, 20, 18, 22, 17]
23.419[16, 22, 49, 21, 21, 19, 21, 19]
23.433[16, 21, 63, 21, 21, 21, 17, 20]
23.456[15, 19, 67, 23, 22, 21, 17, 19]
23.479[15, 22, 71, 23, 20, 20, 16, 20]
23.494[18, 23, 74, 23, 21, 21, 17, 20]
23.516[20, 35, 73, 27, 22, 21, 18, 18]
23.539[19, 35, 58, 29, 23, 19, 17, 18]
23.553[21, 35, 55, 28, 22, 18, 17, 18]
23.576[21, 34, 49, 27, 22, 18, 18, 17]
23.599[20, 33, 46, 29, 20, 18, 17, 16]
23.613[19, 21, 36, 25, 18, 17, 17, 15]
23.636[20, 22, 33, 20, 17, 17, 17, 14]
23.659[18, 22, 30, 20, 17, 19, 17, 14]
23.682[18, 22, 30, 20, 18, 18, 17, 15]
23.704[17, 23, 30, 21, 18, 18, 17, 14]
23.719[18, 22, 30, 19, 19, 18, 16, 15]
23.742[17, 21, 34, 20, 19, 17, 17, 15]
23.756[17, 20, 36, 20, 19, 18, 18, 16]
23.779[18, 20, 36, 19, 18, 18, 19, 16]
23.802[22, 21, 37, 18, 17, 19, 20, 15]
23.816[21, 21, 42, 18, 17, 20, 21, 17]
23.839[22, 22, 40, 17, 17, 21, 21, 19]
23.869[23, 24, 37, 17, 18, 19, 20, 18]
23.876[21, 26, 35, 19, 18, 22, 20, 19]
23.899[20, 25, 35, 19, 18, 19, 19, 20]
23.922[19, 25, 30, 20, 18, 19, 17, 20]
23.936[18, 25, 30, 20, 17, 20, 17, 19]
23.959[19, 26, 46, 24, 18, 20, 16, 18]
23.982[20, 24, 56, 26, 17, 18, 19, 19]
23.996[17, 24, 60, 26, 18, 19, 18, 19]
24.019[19, 24, 60, 26, 20, 19, 20, 17]
24.041[19, 24, 62, 27, 22, 20, 19, 18]
24.056[20, 22, 52, 23, 21, 20, 20, 18]
24.079[20, 23, 41, 22, 23, 22, 18, 16]
24.102[22, 22, 33, 21, 25, 21, 19, 17]
24.116[21, 23, 32, 21, 24, 21, 19, 17]
24.139[22, 22, 28, 23, 24, 21, 21, 16]
24.162[20, 21, 30, 22, 24, 21, 19, 17]
24.176[22, 23, 31, 22, 24, 18, 20, 19]
24.199[21, 24, 32, 22, 21, 19, 21, 18]
24.222[21, 23, 38, 22, 21, 20, 20, 19]
24.236[20, 22, 41, 20, 20, 18, 17, 19]
24.259[21, 23, 38, 24, 20, 19, 17, 18]
24.282[20, 21, 39, 24, 18, 19, 18, 17]
24.296[19, 22, 43, 24, 20, 18, 17, 17]
24.32[19, 23, 39, 24, 19, 17, 17, 16]
24.342[20, 25, 34, 24, 20, 18, 18, 17]
24.356[20, 24, 35, 22, 21, 17, 18, 18]
24.38[18, 24, 34, 21, 20, 18, 17, 17]
24.401[20, 23, 38, 23, 19, 18, 17, 18]
24.416[21, 22, 38, 24, 21, 18, 16, 20]
24.439[21, 21, 39, 23, 21, 17, 16, 21]
24.462[20, 22, 37, 22, 19, 18, 19, 20]
24.476[21, 21, 37, 23, 20, 19, 19, 21]
24.499[20, 20, 36, 24, 22, 19, 21, 21]
24.522[19, 18, 37, 22, 21, 20, 23, 21]
24.536[18, 19, 37, 21, 19, 20, 22, 20]
24.559[19, 20, 37, 20, 22, 20, 19, 21]
24.582[20, 20, 41, 18, 23, 19, 19, 22]
24.611[23, 22, 35, 16, 20, 19, 17, 21]
24.619[22, 23, 32, 17, 19, 17, 17, 21]
24.642[23, 22, 31, 19, 21, 19, 18, 22]
24.664[24, 20, 32, 19, 19, 17, 19, 21]
24.679[22, 20, 25, 19, 17, 17, 20, 21]
24.701[20, 20, 23, 17, 17, 17, 19, 23]
24.724[20, 21, 31, 19, 20, 20, 19, 22]
24.739[20, 21, 34, 18, 19, 19, 20, 21]
24.762[20, 20, 34, 21, 21, 19, 21, 23]
24.784[21, 20, 34, 21, 22, 18, 19, 23]
24.799[20, 19, 38, 21, 23, 18, 20, 23]
24.821[21, 17, 35, 21, 21, 16, 19, 23]
24.844[21, 22, 35, 21, 21, 16, 17, 23]
24.859[19, 23, 33, 19, 20, 16, 16, 22]
24.889[19, 23, 33, 20, 19, 18, 17, 22]
24.904[20, 24, 29, 20, 19, 21, 17, 21]
24.919[20, 24, 28, 20, 19, 21, 20, 23]
24.942[19, 20, 30, 20, 19, 21, 20, 21]
24.964[20, 19, 33, 20, 19, 22, 21, 21]
24.987[20, 19, 34, 21, 19, 22, 21, 20]
25.001[22, 22, 33, 21, 18, 20, 21, 19]
25.024[21, 24, 30, 20, 19, 20, 18, 18]
25.039[21, 25, 30, 21, 19, 22, 19, 20]
25.061[23, 26, 34, 20, 20, 21, 19, 20]
25.084[22, 26, 38, 19, 21, 21, 19, 20]
25.098[22, 23, 38, 19, 21, 21, 18, 21]
25.122[21, 22, 39, 21, 21, 21, 19, 20]
25.144[21, 22, 38, 20, 22, 20, 19, 19]
25.158[21, 21, 35, 21, 21, 20, 18, 20]
25.182[20, 22, 30, 22, 22, 19, 18, 19]
25.204[21, 23, 31, 21, 21, 20, 17, 19]
25.219[22, 22, 30, 21, 21, 21, 16, 20]
25.242[22, 21, 28, 21, 21, 22, 18, 20]
25.264[22, 21, 24, 21, 21, 24, 18, 21]
25.278[23, 21, 24, 19, 19, 23, 19, 21]
25.302[23, 21, 31, 21, 19, 22, 19, 19]
25.324[24, 21, 31, 22, 20, 21, 20, 19]
25.338[24, 21, 31, 22, 20, 20, 18, 19]
25.362[23, 21, 36, 22, 19, 19, 18, 17]
25.384[23, 20, 39, 23, 19, 18, 18, 16]
25.398[22, 20, 34, 24, 18, 19, 18, 18]
25.422[20, 21, 32, 22, 16, 18, 18, 18]
25.445[49, 22, 32, 22, 15, 18, 18, 31]
25.458[50, 24, 33, 21, 17, 18, 18, 32]
25.482[53, 24, 32, 21, 16, 18, 22, 33]
25.504[53, 23, 31, 21, 19, 19, 21, 33]
25.518[53, 22, 32, 22, 20, 18, 21, 33]
25.541[29, 22, 32, 22, 19, 19, 21, 21]
25.564[28, 22, 27, 23, 19, 20, 22, 22]
25.587[22, 22, 24, 23, 20, 18, 19, 22]
25.601[21, 21, 27, 22, 18, 20, 18, 22]
25.624[20, 22, 29, 20, 20, 21, 19, 21]
25.647[20, 21, 31, 21, 19, 19, 18, 23]
25.662[52, 20, 29, 21, 19, 19, 16, 29]
25.683[54, 18, 31, 20, 19, 20, 19, 30]
25.706[55, 20, 33, 20, 19, 18, 19, 31]
25.722[56, 20, 36, 23, 17, 18, 21, 31]
25.743[57, 22, 34, 20, 18, 19, 21, 29]
25.766[35, 20, 35, 21, 16, 19, 22, 27]
25.782[59, 23, 40, 20, 18, 20, 19, 31]
25.803[59, 23, 40, 19, 19, 19, 19, 32]
25.826[60, 23, 37, 18, 20, 19, 18, 34]
25.842[60, 22, 35, 18, 19, 18, 19, 34]
25.863[58, 22, 46, 20, 22, 19, 20, 32]
25.886[33, 21, 39, 19, 20, 18, 20, 26]
25.902[32, 21, 38, 21, 22, 17, 20, 23]
25.924[30, 22, 37, 19, 22, 17, 18, 21]
25.946[55, 22, 37, 20, 23, 16, 18, 29]
25.963[56, 21, 30, 19, 21, 17, 19, 27]
25.983[57, 21, 33, 20, 20, 16, 17, 28]
26.006[57, 19, 32, 21, 17, 18, 18, 28]
26.022[57, 20, 33, 21, 18, 17, 19, 28]
26.045[33, 20, 33, 21, 18, 19, 19, 19]
26.066[28, 23, 35, 22, 19, 19, 18, 19]
26.088[25, 21, 36, 22, 18, 20, 19, 18]
26.103[22, 22, 36, 21, 22, 19, 19, 17]
26.126[21, 21, 45, 22, 21, 19, 17, 17]
26.142[19, 20, 47, 21, 22, 18, 16, 16]
26.163[19, 20, 43, 20, 22, 18, 18, 18]
26.186[57, 22, 38, 20, 24, 17, 18, 29]
26.202[59, 22, 45, 17, 20, 17, 18, 30]
26.223[61, 23, 37, 16, 21, 18, 17, 30]
26.246[62, 24, 36, 16, 21, 18, 18, 30]
26.262[63, 24, 34, 16, 22, 20, 16, 29]
26.283[32, 22, 36, 16, 21, 20, 16, 20]
26.306[64, 23, 36, 16, 21, 21, 15, 27]
26.323[64, 23, 35, 17, 20, 21, 18, 27]
26.343[64, 21, 34, 18, 20, 22, 19, 30]
26.366[64, 22, 36, 18, 18, 20, 19, 31]
26.382[65, 22, 35, 19, 18, 20, 19, 31]
26.403[34, 22, 30, 21, 19, 19, 19, 25]
26.426[30, 23, 34, 21, 20, 18, 16, 25]
26.442[29, 22, 35, 22, 20, 18, 17, 23]
26.463[26, 21, 34, 20, 21, 19, 19, 21]
26.486[51, 26, 39, 22, 22, 18, 17, 31]
26.508[51, 25, 40, 21, 22, 17, 18, 30]
26.523[53, 23, 38, 22, 24, 17, 20, 30]
26.546[54, 23, 38, 22, 23, 18, 19, 31]
26.568[55, 24, 37, 22, 22, 16, 18, 31]
26.583[30, 21, 32, 20, 21, 19, 18, 23]
26.605[56, 24, 25, 20, 19, 20, 19, 35]
26.628[56, 23, 20, 20, 17, 22, 17, 35]
26.643[57, 24, 21, 21, 18, 22, 18, 34]
26.666[57, 23, 29, 20, 18, 23, 18, 35]
26.688[58, 22, 34, 20, 20, 21, 18, 34]
26.703[33, 19, 35, 22, 22, 20, 19, 21]
26.726[44, 18, 38, 22, 22, 19, 20, 28]
26.749[60, 18, 43, 21, 22, 21, 19, 30]
26.763[61, 21, 40, 22, 23, 20, 20, 31]
26.786[61, 19, 36, 22, 22, 21, 20, 30]
26.808[62, 20, 36, 20, 20, 23, 18, 31]
26.823[53, 22, 32, 22, 21, 23, 18, 25]
26.846[60, 23, 25, 22, 21, 21, 19, 33]
26.87[62, 22, 23, 23, 20, 20, 19, 32]
26.884[62, 23, 23, 22, 18, 21, 18, 35]
26.906[62, 23, 22, 22, 20, 20, 19, 35]
26.928[63, 24, 22, 21, 19, 20, 20, 35]
26.943[62, 24, 23, 21, 21, 20, 21, 35]
26.966[59, 24, 24, 20, 20, 21, 21, 33]
26.988[58, 23, 22, 21, 21, 22, 21, 33]
27.003[58, 24, 23, 20, 20, 22, 21, 31]
27.026[58, 24, 24, 19, 21, 20, 21, 31]
27.048[32, 22, 22, 18, 20, 20, 20, 22]
27.063[60, 26, 23, 19, 22, 21, 19, 33]
27.086[61, 25, 21, 20, 21, 20, 19, 32]
27.108[62, 25, 20, 21, 22, 17, 17, 33]
27.123[62, 22, 20, 20, 20, 20, 16, 34]
27.153[61, 25, 22, 20, 20, 20, 16, 32]
27.168[61, 21, 20, 19, 19, 19, 18, 32]
27.183[62, 21, 22, 17, 20, 20, 19, 33]
27.206[60, 20, 21, 17, 18, 22, 20, 33]
27.228[61, 24, 20, 19, 20, 20, 19, 33]
27.243[62, 23, 21, 19, 20, 19, 20, 33]
27.266[59, 24, 21, 20, 18, 19, 20, 31]
27.288[60, 24, 20, 20, 18, 18, 19, 30]
27.303[60, 24, 21, 20, 19, 16, 18, 30]
27.326[59, 22, 21, 20, 16, 17, 19, 29]
27.348[75, 22, 19, 19, 17, 18, 18, 39]
27.363[58, 19, 19, 19, 17, 20, 16, 34]
27.386[57, 20, 20, 19, 20, 20, 16, 34]
27.408[56, 20, 20, 20, 19, 19, 15, 35]
27.423[75, 22, 20, 20, 21, 18, 17, 39]
27.446[60, 22, 20, 19, 22, 17, 18, 30]
27.484[60, 22, 20, 21, 24, 17, 21, 31]
27.491[59, 23, 19, 21, 22, 20, 23, 31]
27.506[79, 25, 22, 21, 24, 21, 23, 37]
27.528[63, 24, 21, 20, 23, 20, 23, 31]
27.551[63, 23, 21, 20, 23, 20, 24, 31]
27.566[62, 24, 23, 21, 22, 21, 22, 31]
27.588[63, 24, 23, 22, 19, 18, 20, 30]
27.611[64, 22, 22, 22, 19, 19, 21, 28]
27.626[63, 23, 24, 22, 20, 19, 20, 30]
27.648[63, 23, 24, 23, 18, 21, 19, 30]
27.671[63, 23, 21, 22, 18, 19, 18, 31]
27.686[77, 22, 22, 21, 19, 19, 18, 36]
27.708[62, 22, 21, 20, 18, 18, 17, 30]
27.731[63, 21, 19, 21, 19, 19, 16, 30]
27.746[64, 23, 21, 21, 21, 18, 17, 31]
27.768[63, 24, 23, 20, 20, 18, 18, 28]
27.791[43, 24, 26, 20, 20, 18, 19, 23]
27.806[61, 24, 26, 21, 19, 20, 20, 31]
27.828[60, 26, 27, 21, 20, 19, 20, 30]
27.851[60, 25, 24, 19, 17, 20, 27, 31]
27.865[61, 23, 25, 19, 17, 21, 28, 31]
27.888[60, 22, 19, 18, 19, 20, 28, 32]
27.91[61, 23, 19, 18, 21, 18, 28, 35]
27.926[62, 22, 19, 16, 18, 20, 29, 37]
27.948[61, 21, 19, 18, 19, 20, 23, 36]
27.971[60, 21, 19, 18, 19, 19, 20, 37]
27.987[61, 21, 19, 19, 18, 20, 18, 36]
28.008[50, 21, 17, 18, 17, 20, 19, 30]
28.031[52, 21, 18, 20, 19, 21, 19, 31]
28.046[53, 22, 20, 19, 18, 20, 18, 30]
28.068[55, 22, 19, 20, 18, 22, 18, 29]
28.09[76, 25, 22, 21, 19, 22, 20, 38]
28.106[65, 24, 22, 20, 18, 21, 18, 32]
28.128[64, 24, 21, 19, 16, 19, 18, 32]
28.151[63, 25, 20, 20, 16, 19, 19, 32]
28.166[64, 25, 18, 17, 17, 16, 19, 34]
28.188[63, 24, 17, 16, 16, 16, 18, 33]
28.211[61, 25, 19, 18, 18, 16, 19, 34]
28.226[61, 25, 20, 18, 19, 18, 21, 32]
28.248[60, 25, 22, 19, 20, 19, 19, 32]
28.271[77, 23, 24, 20, 20, 20, 22, 40]
28.286[59, 22, 23, 22, 21, 20, 21, 34]
28.308[61, 24, 25, 21, 21, 21, 22, 35]
28.331[61, 23, 26, 22, 21, 21, 20, 34]
28.346[61, 21, 23, 21, 19, 20, 21, 34]
28.368[41, 23, 22, 21, 20, 22, 19, 26]
28.391[59, 22, 21, 22, 20, 21, 19, 30]
28.414[59, 20, 17, 23, 20, 23, 19, 30]
28.428[59, 23, 17, 23, 19, 22, 19, 32]
28.451[58, 23, 19, 24, 22, 23, 19, 32]
28.474[73, 22, 20, 25, 22, 20, 20, 34]
28.488[58, 22, 21, 23, 22, 20, 21, 31]
28.511[59, 23, 21, 22, 22, 18, 20, 31]
28.534[58, 21, 21, 21, 22, 20, 20, 30]
28.548[59, 21, 20, 21, 21, 19, 21, 30]
28.571[34, 22, 18, 19, 22, 19, 20, 23]
28.594[58, 22, 19, 18, 21, 22, 19, 33]
28.608[58, 21, 20, 19, 22, 21, 19, 32]
28.631[60, 20, 20, 18, 22, 20, 21, 33]
28.654[59, 22, 23, 17, 23, 21, 19, 32]
28.668[61, 21, 23, 18, 22, 20, 20, 38]
28.691[64, 22, 23, 18, 21, 19, 21, 36]
28.714[64, 24, 22, 19, 20, 20, 20, 37]
28.728[63, 23, 21, 21, 19, 19, 18, 36]
28.751[64, 23, 18, 21, 17, 20, 18, 36]
28.774[62, 23, 17, 21, 19, 19, 16, 32]
28.788[53, 22, 19, 23, 19, 19, 17, 30]
28.819[55, 21, 20, 21, 19, 19, 17, 29]
28.834[55, 22, 20, 22, 19, 20, 17, 30]
28.848[55, 21, 20, 21, 19, 19, 17, 30]
28.871[55, 22, 23, 22, 18, 20, 16, 30]
28.894[65, 22, 21, 21, 17, 20, 16, 35]
28.908[63, 22, 21, 20, 18, 18, 17, 36]
28.931[62, 20, 22, 20, 18, 18, 18, 34]
28.954[61, 20, 22, 21, 18, 19, 18, 34]
28.968[61, 20, 20, 20, 20, 21, 19, 33]
28.991[60, 19, 20, 19, 20, 20, 17, 31]
29.014[61, 19, 20, 20, 19, 20, 17, 31]
29.028[61, 20, 18, 20, 20, 20, 17, 32]
29.051[62, 20, 20, 19, 20, 18, 18, 32]
29.074[61, 20, 21, 19, 19, 17, 18, 32]
29.096[52, 21, 21, 22, 20, 17, 20, 30]
29.111[54, 21, 22, 22, 21, 17, 21, 30]
29.134[54, 21, 22, 21, 22, 16, 21, 33]
29.148[55, 22, 21, 21, 22, 17, 22, 32]
29.171[55, 23, 20, 22, 23, 16, 21, 33]
29.194[64, 22, 20, 22, 24, 19, 21, 37]
29.208[63, 21, 18, 21, 25, 19, 22, 36]
29.231[63, 21, 21, 20, 23, 20, 22, 35]
29.254[62, 22, 22, 20, 23, 19, 20, 35]
29.268[62, 20, 23, 21, 22, 21, 20, 35]
29.291[32, 20, 23, 18, 20, 19, 18, 23]
29.314[57, 22, 25, 19, 18, 19, 16, 31]
29.328[56, 21, 25, 20, 20, 19, 16, 30]
29.351[57, 21, 25, 21, 19, 19, 16, 29]
29.374[58, 22, 27, 22, 19, 17, 17, 29]
29.396[58, 22, 27, 24, 19, 20, 17, 30]
29.411[60, 24, 26, 24, 20, 20, 18, 34]
29.434[61, 25, 26, 24, 18, 20, 20, 34]
29.456[62, 24, 27, 28, 20, 20, 21, 35]
29.471[62, 25, 24, 28, 20, 22, 19, 35]
29.494[61, 25, 24, 29, 20, 20, 20, 34]
29.516[38, 21, 23, 27, 18, 21, 19, 29]
29.531[58, 22, 22, 27, 21, 21, 19, 35]
29.554[57, 21, 21, 23, 20, 20, 18, 35]
29.576[58, 20, 32, 22, 21, 18, 19, 35]
29.591[58, 23, 46, 30, 21, 18, 18, 34]
29.614[55, 25, 127, 47, 23, 19, 20, 29]
29.636[69, 36, 211, 72, 23, 20, 21, 35]
29.651[87, 46, 279, 102, 22, 26, 29, 50]
29.674[133, 60, 359, 119, 23, 26, 48, 62]
29.696[164, 75, 366, 119, 24, 35, 122, 72]
29.711[207, 140, 354, 114, 26, 41, 160, 113]
29.734[309, 150, 315, 103, 35, 120, 490, 340]
29.756[410, 183, 273, 79, 38, 128, 537, 354]
29.771[446, 230, 163, 57, 52, 188, 665, 443]
29.794[464, 275, 165, 67, 62, 204, 750, 546]
29.817[465, 267, 157, 69, 74, 251, 802, 617]
29.831[479, 309, 163, 74, 93, 303, 788, 608]
29.854[447, 309, 139, 76, 104, 377, 938, 778]
29.884[488, 318, 139, 77, 109, 396, 954, 872]
29.89[500, 287, 115, 76, 112, 424, 965, 901]
29.914[563, 279, 106, 76, 106, 434, 979, 910]
29.936[564, 246, 98, 72, 91, 391, 985, 969]
29.951[565, 228, 106, 71, 83, 336, 840, 856]
29.974[587, 217, 103, 67, 73, 299, 804, 787]
29.996[609, 230, 108, 60, 65, 276, 756, 775]
30.011[564, 239, 113, 65, 75, 246, 761, 751]
30.033[527, 232, 112, 66, 79, 276, 716, 697]
30.056[516, 244, 100, 59, 77, 265, 748, 682]
30.07[447, 208, 86, 58, 77, 269, 712, 634]
30.094[415, 180, 82, 62, 77, 264, 689, 576]
30.116[412, 157, 73, 52, 65, 249, 702, 580]
30.13[473, 152, 86, 55, 69, 252, 668, 629]
30.154[503, 147, 88, 55, 68, 250, 706, 675]
30.176[546, 146, 93, 57, 65, 233, 695, 702]
30.191[552, 149, 87, 51, 63, 219, 711, 673]
30.214[542, 150, 88, 51, 63, 243, 664, 649]
30.236[503, 138, 70, 44, 53, 205, 641, 562]
30.25[465, 114, 66, 42, 49, 221, 568, 579]
30.274[394, 109, 63, 39, 46, 226, 547, 546]
30.296[415, 122, 67, 44, 45, 215, 556, 666]
30.319[421, 120, 70, 49, 53, 214, 483, 658]
30.334[442, 123, 69, 49, 53, 204, 483, 653]
30.356[537, 159, 73, 53, 56, 177, 511, 631]
30.379[545, 160, 74, 59, 59, 165, 540, 643]
30.394[513, 155, 69, 54, 59, 184, 527, 557]
30.416[514, 168, 67, 55, 54, 147, 560, 573]
30.438[510, 174, 67, 57, 56, 175, 537, 547]
30.454[400, 141, 65, 57, 55, 177, 496, 558]
30.476[387, 133, 69, 57, 55, 178, 478, 530]
30.499[390, 121, 67, 58, 54, 157, 461, 523]
30.514[372, 112, 63, 55, 51, 152, 489, 592]
30.536[324, 100, 61, 51, 47, 147, 530, 575]
30.559[317, 105, 65, 47, 44, 161, 556, 565]
30.573[360, 108, 62, 43, 43, 159, 536, 569]
30.596[375, 111, 59, 44, 44, 156, 529, 598]
30.618[409, 107, 64, 44, 48, 168, 478, 564]
30.633[456, 105, 67, 52, 49, 158, 437, 657]
30.656[457, 105, 63, 58, 51, 162, 381, 647]
30.679[420, 95, 59, 56, 51, 171, 416, 655]
30.694[385, 94, 62, 58, 51, 177, 414, 615]
30.717[403, 100, 62, 58, 50, 192, 432, 626]
30.738[354, 101, 60, 50, 49, 190, 430, 530]
30.754[394, 113, 64, 47, 52, 180, 450, 595]
30.777[436, 121, 69, 48, 52, 195, 414, 587]
30.798[442, 119, 67, 45, 53, 196, 393, 638]
30.814[479, 114, 65, 50, 54, 174, 380, 610]
30.837[496, 115, 63, 52, 51, 163, 377, 688]
30.858[541, 107, 60, 50, 53, 160, 383, 624]
30.874[531, 116, 67, 59, 56, 148, 537, 688]
30.895[565, 127, 77, 65, 62, 172, 588, 698]
30.918[524, 124, 78, 60, 60, 165, 610, 701]
30.934[500, 123, 80, 62, 64, 177, 622, 783]
30.955[448, 121, 81, 62, 62, 179, 624, 804]
30.978[443, 104, 77, 56, 60, 162, 552, 749]
30.995[432, 101, 70, 53, 55, 132, 511, 682]
31.015[494, 107, 72, 60, 57, 128, 482, 655]
31.038[528, 106, 73, 63, 53, 118, 491, 473]
31.054[537, 104, 73, 61, 54, 99, 512, 492]
31.075[543, 107, 69, 62, 58, 138, 577, 482]
31.098[523, 101, 64, 57, 57, 143, 602, 552]
31.114[472, 95, 61, 50, 57, 158, 600, 576]
31.135[497, 93, 56, 47, 60, 159, 574, 576]
31.158[464, 86, 50, 45, 57, 162, 551, 578]
31.174[471, 99, 52, 47, 53, 139, 429, 599]
31.195[466, 98, 55, 53, 58, 141, 432, 574]
31.218[458, 100, 54, 55, 61, 166, 520, 623]
31.24[405, 107, 55, 56, 59, 168, 531, 636]
31.255[426, 115, 73, 67, 60, 177, 527, 595]
31.278[383, 109, 71, 62, 58, 172, 555, 613]
31.3[404, 113, 75, 59, 51, 165, 519, 639]
31.315[376, 121, 79, 60, 45, 154, 505, 652]
31.338[367, 118, 79, 58, 44, 156, 508, 652]
31.36[369, 114, 63, 46, 39, 145, 496, 663]
31.375[364, 117, 61, 49, 38, 145, 494, 697]
31.398[352, 115, 58, 47, 40, 142, 486, 649]
31.42[386, 107, 48, 42, 41, 123, 449, 630]
31.435[419, 106, 51, 45, 39, 116, 487, 637]
31.458[463, 106, 51, 42, 41, 131, 509, 623]
31.48[495, 96, 49, 36, 41, 133, 532, 623]
31.495[585, 97, 47, 41, 40, 158, 621, 725]
31.518[612, 96, 55, 44, 38, 157, 607, 687]
31.54[606, 100, 51, 45, 38, 158, 564, 682]
31.556[562, 104, 58, 50, 41, 148, 569, 703]
31.578[538, 110, 64, 56, 48, 168, 600, 716]
31.6[509, 113, 65, 54, 51, 174, 541, 662]
31.615[469, 115, 65, 51, 51, 173, 558, 664]
31.638[473, 111, 68, 53, 55, 171, 543, 712]
31.661[489, 106, 63, 53, 60, 192, 509, 740]
31.675[490, 98, 59, 48, 56, 173, 454, 720]
31.698[445, 90, 59, 48, 53, 154, 457, 698]
31.72[441, 89, 55, 48, 56, 152, 453, 703]
31.735[408, 89, 54, 44, 55, 153, 496, 653]
31.758[443, 92, 57, 41, 47, 139, 499, 590]
31.78[461, 98, 57, 42, 44, 143, 450, 508]
31.795[471, 95, 57, 42, 46, 150, 452, 492]
31.818[504, 95, 58, 48, 48, 164, 463, 552]
31.84[563, 104, 58, 49, 47, 165, 431, 550]
31.855[545, 102, 56, 51, 46, 167, 456, 543]
31.878[533, 109, 57, 55, 46, 165, 502, 601]
31.9[516, 120, 55, 55, 47, 162, 497, 709]
31.917[464, 114, 54, 52, 51, 165, 473, 662]
31.938[419, 103, 50, 50, 58, 219, 585, 690]
31.96[394, 108, 47, 46, 59, 215, 593, 693]
31.975[411, 99, 48, 42, 58, 217, 555, 639]
31.998[403, 110, 54, 44, 57, 208, 524, 635]
32.02[419, 112, 57, 43, 51, 195, 516, 623]
32.035[437, 108, 57, 41, 45, 154, 408, 609]
32.06[434, 122, 70, 55, 45, 149, 350, 639]
32.08[441, 131, 69, 58, 47, 147, 383, 670]
32.095[458, 118, 71, 57, 47, 149, 405, 574]
32.118[501, 118, 69, 58, 46, 179, 415, 589]
32.141[492, 122, 71, 62, 45, 158, 434, 552]
32.156[525, 107, 61, 52, 44, 177, 463, 627]
32.178[493, 99, 59, 47, 44, 175, 431, 629]
32.2[494, 96, 52, 43, 42, 184, 397, 606]
32.223[446, 94, 46, 40, 39, 158, 469, 597]
32.238[425, 116, 54, 42, 41, 159, 446, 628]
32.26[393, 109, 50, 40, 44, 138, 415, 500]
32.283[400, 104, 50, 40, 46, 141, 430, 470]
32.298[406, 108, 53, 43, 46, 134, 467, 496]
32.322[406, 104, 58, 47, 50, 127, 411, 527]
32.343[407, 83, 50, 45, 53, 159, 387, 473]
32.358[426, 98, 50, 48, 50, 155, 468, 476]
32.38[470, 106, 57, 60, 48, 155, 456, 481]
32.403[426, 104, 55, 58, 50, 182, 419, 476]
32.418[409, 104, 52, 57, 48, 181, 428, 451]
32.44[451, 104, 53, 58, 54, 173, 488, 554]
32.463[469, 115, 57, 62, 61, 201, 441, 597]
32.478[418, 112, 49, 54, 65, 203, 433, 610]
32.5[410, 118, 55, 63, 66, 192, 521, 573]
32.523[443, 123, 55, 63, 68, 206, 514, 618]
32.538[444, 121, 53, 61, 68, 233, 523, 586]
32.56[383, 99, 51, 56, 63, 217, 545, 597]
32.583[409, 102, 54, 56, 61, 218, 551, 651]
32.598[402, 87, 49, 46, 59, 215, 481, 702]
32.62[402, 83, 52, 49, 59, 208, 440, 639]
32.643[380, 93, 50, 48, 50, 159, 379, 642]
32.659[393, 96, 50, 47, 48, 149, 327, 634]
32.68[370, 83, 45, 42, 46, 141, 324, 573]
32.703[380, 84, 43, 40, 45, 123, 294, 557]
32.718[403, 107, 42, 41, 41, 141, 294, 564]
32.748[361, 112, 45, 37, 39, 151, 268, 520]
32.763[387, 111, 55, 39, 40, 150, 262, 484]
32.778[438, 119, 56, 46, 38, 161, 276, 469]
32.8[470, 120, 56, 46, 39, 173, 307, 456]
32.823[445, 101, 50, 43, 43, 151, 350, 460]
32.838[492, 97, 57, 47, 46, 166, 413, 435]
32.86[493, 99, 50, 51, 47, 203, 400, 482]
32.891[469, 95, 54, 53, 46, 197, 385, 501]
32.898[452, 105, 61, 55, 47, 197, 416, 485]
32.92[462, 115, 64, 57, 42, 199, 387, 495]
32.943[467, 107, 63, 56, 43, 196, 401, 523]
32.966[455, 106, 64, 52, 44, 165, 448, 561]
32.98[467, 110, 61, 48, 47, 165, 449, 543]
33.003[465, 102, 54, 50, 48, 171, 420, 573]
33.018[450, 91, 52, 47, 50, 166, 422, 535]
33.04[454, 90, 46, 43, 48, 148, 336, 542]
33.063[467, 95, 48, 46, 50, 150, 263, 591]
33.078[463, 110, 55, 56, 53, 155, 321, 581]
33.1[487, 107, 55, 51, 55, 151, 302, 632]
33.123[490, 106, 59, 58, 59, 166, 301, 676]
33.146[459, 106, 57, 59, 59, 168, 309, 660]
33.16[474, 108, 55, 58, 55, 160, 394, 553]
33.183[487, 90, 54, 55, 53, 161, 397, 613]
33.206[467, 94, 60, 58, 51, 152, 432, 532]
33.221[468, 88, 59, 54, 46, 150, 462, 499]
33.243[457, 95, 61, 57, 47, 148, 463, 563]
33.266[431, 87, 57, 54, 46, 163, 432, 567]
33.28[461, 100, 51, 45, 42, 162, 446, 539]
33.303[479, 100, 48, 49, 41, 160, 462, 542]
33.326[491, 102, 49, 47, 43, 166, 440, 530]
33.34[488, 99, 48, 41, 43, 168, 451, 500]
33.363[479, 111, 54, 46, 44, 160, 437, 501]
33.386[404, 103, 61, 54, 52, 178, 427, 538]
33.4[424, 102, 63, 51, 51, 176, 396, 558]
33.423[405, 110, 67, 59, 54, 174, 434, 613]
33.447[394, 109, 67, 63, 57, 172, 420, 576]
33.46[384, 102, 65, 62, 61, 189, 428, 609]
33.483[436, 100, 59, 57, 57, 174, 452, 579]
33.506[430, 106, 54, 54, 62, 216, 435, 548]
33.52[437, 106, 51, 47, 62, 216, 387, 474]
33.543[438, 105, 53, 45, 59, 221, 393, 488]
33.566[444, 105, 54, 44, 58, 203, 373, 535]
33.58[429, 126, 54, 48, 61, 212, 306, 497]
33.603[415, 122, 58, 49, 54, 199, 343, 481]
33.626[406, 113, 54, 45, 52, 189, 374, 494]
33.64[396, 119, 54, 43, 54, 190, 375, 486]
33.663[391, 117, 54, 45, 52, 181, 387, 455]
33.686[356, 101, 63, 53, 56, 181, 417, 503]
33.7[350, 103, 63, 53, 59, 142, 385, 522]
33.723[357, 106, 66, 53, 60, 143, 348, 530]
33.746[390, 109, 166, 63, 59, 124, 344, 547]
33.76[383, 104, 229, 69, 56, 124, 333, 453]
33.783[398, 98, 255, 68, 47, 105, 364, 409]
33.813[417, 99, 260, 68, 45, 123, 397, 400]
33.82[427, 97, 263, 69, 39, 112, 399, 397]
33.843[427, 87, 216, 62, 41, 115, 429, 338]
33.867[428, 103, 148, 60, 45, 122, 454, 349]
33.88[439, 100, 92, 50, 46, 120, 441, 371]
33.903[457, 97, 78, 51, 51, 120, 464, 440]
33.926[444, 102, 67, 50, 55, 142, 514, 469]
33.94[406, 106, 65, 51, 50, 149, 483, 482]
33.963[448, 92, 67, 42, 49, 145, 460, 515]
33.986[435, 94, 64, 45, 55, 160, 425, 551]
34.0[425, 93, 67, 48, 61, 195, 383, 581]
34.023[473, 89, 67, 48, 66, 194, 332, 601]
34.046[482, 81, 62, 45, 66, 190, 387, 606]
34.06[447, 100, 57, 44, 66, 190, 418, 620]
34.098[431, 103, 55, 42, 62, 178, 443, 605]
34.106[378, 101, 49, 36, 52, 140, 432, 565]
34.128[311, 101, 45, 35, 44, 119, 429, 581]
34.143[337, 104, 44, 35, 45, 129, 398, 600]
34.166[321, 82, 39, 35, 46, 135, 362, 572]
34.188[405, 74, 40, 35, 44, 147, 302, 565]
34.203[397, 74, 43, 35, 43, 139, 339, 518]
34.226[413, 74, 42, 35, 51, 164, 319, 478]
34.248[414, 69, 44, 40, 48, 151, 303, 435]
34.263[418, 73, 51, 44, 47, 180, 376, 538]
34.286[369, 83, 54, 48, 50, 177, 399, 560]
34.308[373, 86, 56, 51, 50, 175, 360, 555]
34.323[395, 86, 62, 56, 45, 153, 360, 541]
34.346[391, 104, 72, 57, 51, 154, 416, 584]
34.368[394, 111, 114, 63, 50, 116, 334, 493]
34.382[431, 111, 134, 62, 51, 124, 320, 495]
34.406[427, 115, 142, 62, 51, 125, 349, 586]
34.428[433, 127, 141, 60, 50, 125, 359, 574]
34.443[428, 117, 140, 55, 45, 132, 283, 545]
34.466[438, 116, 123, 51, 47, 138, 356, 547]
34.488[458, 109, 103, 50, 45, 125, 373, 523]
34.503[473, 105, 104, 48, 45, 122, 370, 449]
34.526[428, 94, 108, 48, 47, 141, 390, 467]
34.548[457, 109, 112, 52, 51, 138, 397, 487]
34.562[462, 104, 112, 47, 48, 127, 343, 450]
34.593[382, 99, 111, 45, 45, 123, 332, 411]
34.608[416, 101, 99, 46, 44, 125, 344, 464]
34.623[417, 103, 92, 42, 41, 109, 348, 439]
34.646[378, 80, 78, 39, 39, 106, 344, 427]
34.668[363, 79, 50, 40, 40, 106, 388, 511]
34.682[440, 82, 47, 38, 40, 104, 415, 592]
34.706[447, 81, 51, 38, 43, 100, 428, 523]
34.728[442, 81, 57, 40, 41, 91, 434, 535]
34.743[445, 85, 63, 39, 42, 136, 462, 538]
34.766[465, 84, 64, 40, 43, 141, 446, 475]
34.788[392, 92, 73, 52, 48, 144, 446, 384]
34.802[382, 90, 73, 52, 49, 140, 409, 375]
34.826[447, 88, 73, 53, 53, 159, 447, 568]
34.848[461, 99, 76, 56, 51, 125, 462, 590]
34.863[458, 99, 74, 57, 51, 145, 486, 589]
34.886[475, 102, 68, 55, 50, 153, 497, 605]
34.908[435, 109, 65, 57, 50, 174, 518, 635]
34.923[392, 113, 74, 58, 49, 187, 478, 474]
34.946[393, 112, 84, 60, 51, 189, 437, 427]
34.969[388, 115, 86, 59, 49, 178, 451, 491]
34.983[378, 124, 89, 53, 46, 178, 412, 481]
35.006[382, 120, 92, 51, 44, 160, 396, 441]
35.028[409, 113, 81, 47, 41, 125, 395, 429]
35.051[376, 111, 63, 41, 44, 132, 404, 464]
35.066[336, 107, 59, 39, 51, 137, 343, 405]
35.088[348, 90, 55, 45, 54, 139, 344, 446]
35.111[335, 91, 57, 45, 55, 155, 345, 476]
35.126[304, 99, 65, 53, 55, 162, 351, 484]
35.148[364, 86, 65, 52, 52, 159, 346, 494]
35.171[407, 93, 67, 50, 47, 166, 325, 533]
35.186[387, 92, 66, 50, 46, 180, 352, 497]
35.209[411, 96, 68, 56, 54, 188, 336, 549]
35.231[405, 92, 65, 52, 55, 188, 294, 550]
35.246[369, 93, 65, 53, 54, 189, 318, 544]
35.268[361, 92, 70, 57, 55, 190, 321, 507]
35.291[416, 89, 70, 55, 53, 167, 272, 483]
35.306[452, 85, 66, 49, 43, 145, 266, 436]
35.328[445, 82, 70, 54, 46, 137, 290, 421]
35.351[434, 91, 75, 57, 48, 150, 280, 384]
35.366[411, 85, 67, 54, 45, 139, 336, 438]
35.388[365, 84, 64, 54, 47, 149, 344, 452]
35.411[309, 80, 65, 55, 45, 155, 381, 423]
35.426[297, 74, 58, 45, 39, 154, 367, 415]
35.448[308, 80, 59, 43, 36, 142, 378, 471]
35.471[297, 85, 64, 44, 38, 146, 326, 402]
35.486[313, 100, 64, 43, 38, 146, 377, 516]
35.508[317, 104, 61, 39, 41, 144, 375, 519]
35.531[324, 123, 63, 41, 42, 141, 375, 531]
35.545[314, 128, 63, 39, 41, 139, 340, 467]
35.568[378, 126, 59, 39, 45, 140, 367, 502]
35.591[419, 122, 65, 45, 49, 164, 351, 426]
35.605[393, 120, 62, 45, 47, 165, 366, 410]
35.628[384, 104, 59, 45, 47, 171, 374, 389]
35.651[444, 93, 53, 45, 51, 191, 400, 402]
35.665[420, 96, 56, 44, 46, 190, 372, 448]
35.688[353, 88, 48, 41, 44, 163, 374, 425]
35.71[416, 107, 52, 42, 44, 162, 333, 477]
35.733[434, 106, 48, 40, 46, 172, 374, 493]
35.749[381, 99, 51, 41, 43, 146, 357, 538]
35.77[363, 99, 47, 40, 42, 133, 359, 469]
35.8[399, 102, 46, 41, 38, 155, 322, 463]
35.809[345, 87, 42, 39, 40, 150, 328, 426]
35.83[318, 85, 49, 42, 39, 134, 278, 420]
35.852[375, 94, 48, 39, 38, 128, 277, 461]
35.869[368, 93, 50, 38, 39, 129, 271, 482]
35.89[367, 89, 50, 35, 39, 108, 273, 486]
35.912[399, 84, 49, 34, 38, 113, 254, 582]
35.929[442, 97, 50, 37, 40, 111, 231, 574]
35.95[417, 86, 50, 43, 44, 150, 306, 515]
35.972[448, 84, 50, 46, 47, 162, 359, 539]
35.989[426, 85, 51, 45, 49, 176, 408, 548]
36.01[404, 86, 54, 51, 50, 176, 420, 432]
36.032[366, 73, 52, 52, 50, 196, 449, 457]
36.049[368, 81, 48, 52, 50, 185, 428, 444]
36.077[329, 81, 49, 51, 49, 199, 471, 424]
36.092[328, 83, 50, 53, 46, 212, 435, 404]
36.109[318, 82, 48, 52, 48, 211, 434, 399]
36.131[364, 88, 50, 49, 48, 195, 425, 388]
36.153[338, 83, 53, 48, 49, 212, 440, 500]
36.169[364, 81, 51, 51, 49, 186, 350, 502]
36.19[357, 86, 57, 55, 53, 169, 421, 493]
36.22[416, 95, 60, 56, 53, 187, 434, 521]
36.229[387, 85, 56, 54, 51, 195, 415, 578]
36.25[406, 93, 55, 55, 47, 164, 375, 491]
36.273[405, 99, 63, 57, 46, 166, 444, 492]
36.289[420, 96, 62, 52, 41, 160, 406, 509]
36.31[378, 93, 61, 47, 40, 147, 404, 494]
36.333[369, 101, 67, 48, 44, 136, 440, 415]
36.349[391, 95, 68, 47, 43, 140, 430, 423]
36.37[399, 88, 64, 43, 46, 143, 392, 386]
36.392[376, 85, 60, 43, 49, 142, 354, 379]
36.409[377, 78, 59, 44, 49, 160, 339, 429]
36.43[406, 69, 57, 47, 48, 164, 281, 470]
36.452[362, 71, 61, 48, 53, 185, 329, 471]
36.467[439, 77, 61, 47, 52, 196, 289, 480]
36.497[437, 80, 64, 46, 51, 204, 271, 452]
36.512[418, 84, 67, 45, 51, 187, 284, 401]
36.527[391, 89, 67, 46, 52, 185, 305, 407]
36.55[387, 89, 64, 44, 48, 168, 284, 469]
36.572[279, 85, 62, 43, 44, 162, 292, 459]
36.587[284, 89, 58, 44, 44, 161, 414, 469]
36.61[334, 94, 55, 46, 43, 160, 390, 497]
36.634[354, 85, 49, 39, 39, 158, 389, 448]
36.647[361, 86, 49, 45, 47, 164, 401, 385]
36.671[352, 95, 56, 46, 47, 155, 415, 377]
36.692[366, 90, 57, 46, 47, 142, 314, 464]
36.707[334, 82, 59, 44, 47, 156, 361, 509]
36.73[353, 91, 59, 46, 47, 152, 395, 528]
36.753[361, 96, 58, 42, 42, 131, 375, 564]
36.767[369, 87, 53, 43, 44, 136, 349, 579]
36.79[356, 94, 50, 40, 46, 163, 347, 561]
36.812[356, 93, 45, 41, 45, 148, 300, 506]
36.827[326, 86, 43, 42, 44, 154, 251, 500]
36.85[340, 87, 46, 44, 41, 154, 272, 482]
36.873[347, 93, 49, 44, 44, 184, 336, 474]
36.887[392, 88, 53, 45, 43, 155, 329, 510]
36.918[389, 91, 56, 49, 44, 174, 358, 486]
36.932[395, 98, 61, 54, 48, 179, 382, 508]
36.955[370, 91, 56, 51, 51, 190, 358, 457]
36.97[382, 92, 54, 51, 47, 154, 390, 503]
36.992[377, 83, 50, 53, 47, 153, 381, 415]
37.015[388, 85, 51, 49, 49, 149, 380, 461]
37.031[376, 84, 45, 42, 46, 145, 361, 418]
37.052[381, 90, 52, 45, 46, 157, 402, 411]
37.075[363, 84, 47, 45, 52, 162, 341, 364]
37.09[313, 89, 49, 41, 50, 164, 392, 369]
37.112[304, 84, 46, 43, 50, 146, 372, 386]
37.135[366, 78, 49, 42, 48, 138, 369, 453]
37.15[361, 76, 44, 38, 43, 105, 309, 508]
37.172[346, 82, 45, 38, 39, 94, 298, 520]
37.195[425, 85, 46, 38, 39, 122, 258, 549]
37.21[456, 97, 49, 35, 36, 120, 284, 498]
37.232[413, 94, 47, 40, 36, 121, 283, 500]
37.255[420, 86, 46, 39, 37, 129, 318, 455]
37.27[445, 89, 46, 40, 36, 135, 325, 532]
37.292[439, 87, 45, 39, 35, 101, 304, 488]
37.315[407, 78, 49, 44, 34, 116, 315, 492]
37.33[385, 89, 49, 43, 39, 129, 302, 485]
37.352[381, 88, 47, 44, 41, 150, 280, 491]
37.375[360, 88, 48, 42, 40, 157, 291, 417]
37.39[335, 89, 51, 44, 41, 159, 312, 511]
37.421[320, 88, 44, 38, 43, 159, 272, 581]
37.435[339, 79, 42, 34, 42, 147, 266, 539]
37.45[400, 88, 44, 36, 41, 122, 251, 608]
37.472[427, 86, 46, 38, 41, 120, 244, 577]
37.495[393, 83, 42, 36, 43, 122, 297, 496]
37.51[388, 84, 42, 39, 41, 108, 321, 443]
37.532[374, 86, 51, 45, 39, 107, 325, 462]
37.555[322, 79, 50, 43, 39, 123, 334, 431]
37.57[305, 82, 49, 41, 43, 138, 336, 442]
37.592[310, 87, 52, 43, 43, 162, 284, 471]
37.615[337, 95, 52, 46, 43, 157, 268, 456]
37.631[338, 96, 47, 42, 43, 157, 264, 471]
37.652[356, 100, 49, 45, 50, 147, 269, 389]
37.683[354, 96, 46, 43, 46, 167, 267, 387]
37.69[336, 91, 44, 45, 44, 151, 271, 348]
37.712[343, 79, 46, 43, 44, 153, 293, 413]
37.735[352, 86, 50, 46, 46, 158, 302, 389]
37.75[380, 82, 48, 46, 42, 177, 305, 432]
37.772[367, 86, 52, 50, 46, 150, 300, 444]
37.795[379, 99, 57, 49, 48, 139, 336, 497]
37.81[378, 100, 56, 47, 47, 145, 308, 455]
37.833[416, 94, 52, 45, 44, 139, 306, 441]
37.855[365, 97, 52, 42, 40, 123, 331, 438]
37.877[436, 88, 49, 41, 34, 114, 350, 480]
37.892[451, 83, 48, 39, 31, 113, 305, 431]
37.915[444, 94, 54, 46, 36, 114, 315, 401]
37.938[416, 98, 58, 46, 38, 123, 321, 400]
37.953[453, 102, 58, 50, 41, 135, 278, 420]
37.976[396, 106, 60, 53, 46, 136, 291, 379]
37.998[395, 103, 57, 55, 48, 151, 292, 378]
38.012[435, 96, 54, 50, 48, 154, 292, 387]
38.035[442, 86, 47, 49, 45, 155, 289, 402]
38.057[389, 78, 51, 49, 46, 141, 306, 388]
38.072[378, 86, 52, 44, 47, 146, 286, 350]
38.095[357, 83, 50, 43, 49, 152, 308, 367]
38.117[301, 76, 49, 42, 45, 143, 303, 380]
38.132[277, 84, 50, 44, 48, 137, 313, 442]
38.163[301, 90, 49, 42, 46, 141, 322, 421]
38.177[311, 85, 51, 46, 42, 152, 321, 469]
38.192[319, 90, 52, 45, 43, 143, 329, 493]
38.215[301, 91, 52, 47, 44, 139, 318, 484]
38.237[318, 95, 52, 47, 46, 141, 299, 408]
38.253[340, 108, 50, 45, 45, 140, 267, 398]
38.275[331, 110, 48, 46, 48, 114, 266, 384]
38.298[349, 106, 51, 51, 50, 111, 219, 351]
38.312[375, 106, 49, 50, 50, 112, 224, 391]
38.335[413, 109, 51, 50, 47, 118, 268, 437]
38.358[419, 89, 55, 53, 48, 116, 267, 522]
38.372[400, 84, 58, 54, 48, 149, 438, 516]
38.395[400, 92, 55, 49, 42, 151, 450, 522]
38.418[386, 96, 57, 51, 41, 153, 458, 571]
38.433[326, 89, 54, 49, 44, 154, 439, 550]
38.455[281, 94, 47, 48, 44, 159, 459, 504]
38.478[284, 86, 38, 43, 41, 125, 295, 524]
38.492[247, 85, 40, 43, 42, 116, 290, 501]
38.515[312, 104, 41, 44, 47, 132, 305, 412]
38.538[348, 117, 49, 49, 47, 154, 310, 405]
38.553[364, 125, 61, 53, 51, 144, 317, 376]
38.575[429, 132, 61, 53, 49, 144, 323, 422]
38.598[426, 129, 64, 54, 51, 162, 326, 437]
38.612[415, 117, 65, 54, 47, 157, 299, 453]
38.635[395, 105, 60, 50, 44, 126, 285, 446]
38.658[385, 100, 53, 48, 46, 123, 273, 542]
38.672[335, 106, 60, 52, 49, 140, 254, 463]
38.695[345, 108, 56, 51, 48, 115, 237, 476]
38.718[337, 102, 52, 47, 50, 123, 226, 448]
38.732[346, 100, 52, 50, 50, 129, 246, 499]
38.755[341, 94, 50, 50, 46, 140, 231, 379]
38.778[329, 78, 45, 46, 44, 130, 237, 387]
38.792[379, 99, 46, 51, 44, 129, 250, 384]
38.815[381, 104, 47, 51, 43, 113, 256, 388]
38.838[389, 101, 50, 47, 43, 125, 260, 395]
38.861[392, 108, 51, 45, 42, 138, 259, 440]
38.875[400, 109, 47, 45, 44, 139, 256, 436]
38.898[392, 94, 47, 42, 43, 140, 238, 409]
38.92[397, 102, 44, 43, 45, 141, 258, 473]
38.935[445, 100, 45, 45, 45, 136, 238, 429]
38.958[461, 97, 42, 42, 44, 115, 228, 436]
38.98[446, 105, 44, 40, 40, 112, 214, 471]
38.995[420, 97, 41, 35, 39, 129, 215, 536]
39.018[386, 84, 44, 39, 37, 152, 221, 501]
39.04[313, 81, 40, 37, 42, 156, 235, 522]
39.055[321, 84, 39, 44, 48, 160, 231, 477]
39.078[340, 80, 43, 45, 50, 160, 285, 438]
39.101[320, 93, 45, 47, 51, 156, 361, 370]
39.115[333, 96, 45, 47, 56, 137, 342, 351]
39.138[329, 107, 46, 47, 52, 134, 335, 313]
39.16[308, 101, 49, 41, 50, 146, 348, 328]
39.175[295, 96, 48, 41, 49, 144, 299, 351]
39.198[323, 96, 48, 42, 48, 136, 193, 340]
39.221[308, 94, 47, 41, 45, 130, 210, 322]
39.235[289, 90, 48, 42, 45, 145, 259, 308]
39.258[316, 98, 52, 43, 42, 129, 300, 374]
39.281[340, 98, 53, 48, 46, 131, 319, 357]
39.295[357, 93, 51, 46, 45, 135, 327, 347]
39.318[380, 105, 54, 47, 47, 147, 333, 359]
39.341[418, 101, 52, 45, 49, 145, 320, 383]
39.355[385, 92, 44, 43, 50, 151, 281, 336]
39.378[372, 91, 39, 35, 48, 159, 264, 332]
39.401[354, 93, 44, 41, 50, 165, 276, 331]
39.415[357, 96, 45, 40, 47, 156, 308, 325]
39.438[351, 93, 46, 42, 51, 154, 308, 317]
39.46[367, 96, 46, 42, 48, 145, 293, 357]
39.475[363, 99, 47, 43, 47, 131, 285, 346]
39.498[381, 101, 46, 42, 46, 128, 267, 351]
39.52[400, 91, 43, 41, 42, 127, 219, 373]
39.535[402, 99, 41, 44, 37, 107, 189, 363]
39.558[387, 97, 44, 45, 37, 114, 191, 270]
39.58[393, 95, 44, 46, 36, 143, 207, 291]
39.595[402, 84, 41, 42, 42, 210, 223, 363]
39.618[349, 81, 40, 43, 43, 216, 208, 347]
39.64[293, 69, 39, 36, 40, 214, 198, 340]
39.655[288, 65, 35, 36, 41, 212, 217, 366]
39.685[274, 60, 34, 35, 43, 207, 234, 375]
39.7[201, 54, 38, 35, 37, 152, 274, 297]
39.715[220, 51, 43, 34, 36, 155, 284, 289]
39.738[218, 54, 43, 36, 36, 171, 309, 273]
39.76[216, 54, 47, 36, 34, 177, 301, 220]
39.783[183, 53, 45, 33, 30, 160, 280, 160]
39.798[181, 57, 41, 32, 27, 141, 220, 138]
39.82[147, 54, 55, 36, 32, 136, 215, 97]
39.843[161, 51, 60, 34, 34, 132, 212, 110]
39.858[181, 52, 59, 33, 35, 141, 206, 144]
39.88[197, 56, 60, 36, 36, 146, 199, 140]
39.903[183, 50, 59, 34, 35, 142, 190, 140]
39.919[182, 46, 41, 27, 27, 136, 171, 136]
39.941[166, 43, 37, 25, 26, 126, 128, 118]
39.963[114, 41, 49, 26, 25, 102, 111, 63]
39.978[83, 35, 52, 23, 23, 92, 100, 55]
40.0[70, 34, 57, 25, 23, 91, 97, 41]
40.023[55, 30, 69, 30, 24, 79, 88, 37]
40.038[52, 31, 71, 30, 22, 48, 56, 31]
40.06[46, 33, 79, 30, 20, 42, 44, 30]
40.083[29, 31, 79, 30, 22, 46, 47, 26]
40.098[27, 33, 88, 30, 23, 51, 52, 26]
40.12[25, 35, 90, 25, 22, 51, 51, 23]
40.143[25, 34, 88, 25, 21, 51, 51, 23]
40.158[24, 28, 78, 23, 22, 47, 42, 21]
40.181[21, 25, 77, 23, 21, 37, 31, 21]
40.203[21, 22, 63, 22, 20, 25, 22, 19]
40.217[22, 21, 72, 22, 19, 23, 23, 20]
40.24[21, 22, 119, 27, 21, 21, 22, 18]
40.263[22, 21, 123, 27, 21, 21, 21, 19]
40.278[20, 22, 129, 26, 20, 20, 23, 21]
40.3[21, 21, 139, 28, 19, 21, 23, 21]
40.323[19, 20, 129, 28, 21, 20, 21, 21]
40.337[19, 21, 96, 27, 21, 20, 20, 21]
40.36[18, 27, 201, 35, 22, 20, 19, 20]
40.383[19, 30, 211, 36, 23, 21, 17, 17]
40.397[19, 30, 215, 35, 24, 21, 16, 17]
40.421[20, 29, 219, 35, 22, 23, 18, 17]
40.443[19, 27, 222, 34, 23, 23, 18, 16]
40.457[18, 22, 132, 26, 23, 24, 17, 17]
40.48[17, 18, 109, 25, 22, 23, 18, 18]
40.503[18, 19, 87, 24, 21, 23, 19, 18]
40.518[18, 20, 75, 23, 22, 24, 18, 17]
40.54[17, 20, 54, 20, 20, 22, 17, 21]
40.563[19, 20, 41, 20, 19, 23, 17, 20]
40.577[20, 20, 49, 20, 19, 22, 18, 20]
40.6[20, 21, 51, 20, 19, 22, 18, 21]
40.623[22, 19, 46, 19, 19, 21, 19, 21]
40.637[22, 19, 46, 22, 19, 21, 19, 19]
40.66[21, 18, 46, 20, 18, 19, 22, 20]
40.683[21, 19, 35, 20, 19, 20, 22, 21]
40.698[21, 18, 30, 20, 20, 18, 22, 20]
40.721[21, 17, 32, 20, 20, 18, 22, 20]
40.742[21, 19, 33, 18, 20, 19, 22, 19]
40.765[21, 20, 31, 18, 21, 20, 20, 20]
40.781[19, 20, 29, 17, 21, 20, 21, 18]
40.804[20, 20, 32, 17, 19, 20, 20, 19]
40.824[19, 21, 30, 17, 21, 20, 19, 18]
40.849[21, 21, 29, 18, 21, 19, 21, 20]
40.862[21, 22, 28, 20, 19, 19, 20, 19]
40.885[23, 20, 28, 20, 20, 20, 20, 22]
40.901[24, 20, 25, 20, 21, 21, 19, 22]
40.922[23, 23, 37, 23, 22, 20, 21, 22]
40.945[21, 22, 37, 24, 22, 21, 19, 21]
40.961[22, 21, 38, 24, 25, 22, 18, 21]
40.982[21, 21, 38, 24, 24, 21, 17, 20]
41.005[22, 21, 37, 25, 23, 22, 18, 20]
41.021[21, 19, 31, 23, 20, 22, 17, 20]
41.042[21, 20, 34, 22, 20, 22, 16, 19]
41.065[21, 21, 35, 22, 16, 21, 17, 18]
41.081[20, 20, 34, 22, 18, 20, 16, 18]
41.102[18, 22, 33, 22, 20, 19, 18, 18]
41.125[19, 21, 26, 21, 20, 19, 18, 19]
41.141[19, 19, 22, 23, 20, 18, 20, 20]
41.163[19, 18, 18, 22, 21, 19, 20, 18]
41.184[19, 21, 19, 22, 20, 20, 22, 21]
41.201[18, 20, 19, 22, 19, 20, 21, 21]
41.223[19, 20, 21, 22, 19, 20, 20, 22]
41.245[20, 21, 19, 20, 19, 22, 18, 22]
41.261[22, 21, 20, 18, 21, 22, 19, 22]
41.282[21, 20, 20, 18, 20, 20, 17, 21]
41.305[21, 19, 21, 18, 22, 19, 15, 18]
41.321[19, 21, 23, 18, 21, 20, 16, 18]
41.342[20, 21, 24, 19, 21, 19, 20, 17]
41.365[17, 19, 23, 19, 19, 20, 20, 17]
41.381[19, 20, 25, 19, 20, 19, 21, 14]
41.402[19, 20, 24, 19, 18, 19, 21, 14]
41.425[20, 20, 21, 19, 18, 19, 21, 14]
41.441[18, 19, 21, 19, 18, 19, 16, 14]
41.462[18, 20, 21, 22, 18, 18, 16, 16]
41.485[17, 19, 20, 21, 18, 19, 16, 18]
41.501[18, 21, 20, 20, 17, 19, 16, 18]
41.522[18, 22, 20, 20, 19, 20, 17, 20]
41.544[20, 22, 20, 20, 18, 18, 18, 19]
41.561[21, 22, 20, 19, 18, 19, 19, 18]
41.582[21, 22, 21, 21, 19, 19, 19, 19]
41.604[20, 22, 20, 22, 19, 20, 20, 19]
41.629[20, 20, 20, 21, 20, 19, 19, 17]
41.642[19, 22, 21, 20, 22, 21, 18, 18]
41.664[18, 22, 21, 19, 22, 20, 17, 19]
41.687[17, 23, 19, 16, 21, 19, 18, 17]
41.702[18, 21, 19, 17, 21, 21, 18, 19]
41.725[19, 23, 21, 18, 19, 22, 18, 19]
41.747[20, 21, 21, 19, 18, 20, 19, 18]
41.762[20, 20, 21, 18, 19, 21, 21, 18]
41.785[21, 20, 23, 21, 18, 21, 20, 18]
41.807[19, 20, 23, 21, 18, 19, 18, 16]
41.822[19, 19, 22, 20, 19, 18, 18, 15]
41.844[19, 19, 23, 21, 19, 19, 19, 16]
41.867[18, 20, 22, 23, 18, 20, 17, 16]
41.882[17, 18, 22, 21, 18, 21, 19, 15]
41.904[17, 18, 22, 20, 18, 21, 20, 17]
41.927[18, 21, 21, 19, 18, 21, 20, 19]
41.942[17, 21, 20, 19, 18, 20, 21, 20]
41.964[18, 22, 20, 18, 17, 19, 22, 20]
41.987[18, 22, 20, 19, 17, 19, 21, 21]
42.002[18, 24, 22, 18, 18, 18, 21, 20]
42.024[19, 22, 22, 18, 18, 19, 21, 17]
42.047[20, 22, 23, 19, 18, 21, 20, 17]
42.062[19, 23, 24, 17, 18, 20, 20, 16]
42.084[19, 24, 24, 16, 19, 20, 20, 17]
42.107[18, 24, 22, 19, 18, 20, 20, 18]
42.122[18, 25, 22, 19, 18, 20, 19, 19]
42.144[17, 25, 21, 18, 20, 19, 19, 20]
42.167[18, 25, 20, 20, 21, 19, 19, 20]
42.184[19, 24, 20, 22, 21, 18, 19, 19]
42.204[20, 23, 20, 21, 22, 19, 18, 20]
42.227[19, 23, 21, 21, 21, 18, 17, 19]
42.242[19, 23, 22, 23, 19, 19, 17, 19]
42.264[22, 24, 24, 22, 19, 19, 19, 20]
42.287[21, 22, 24, 19, 17, 18, 18, 20]
42.302[21, 21, 23, 18, 17, 19, 20, 20]
42.325[21, 20, 24, 20, 20, 19, 19, 21]
42.347[21, 20, 21, 19, 20, 19, 21, 20]
42.37[19, 17, 19, 19, 20, 19, 18, 22]
42.384[19, 18, 19, 21, 22, 19, 17, 21]
42.407[18, 20, 20, 22, 21, 19, 16, 18]
42.422[19, 21, 19, 21, 20, 22, 17, 18]
42.445[19, 21, 21, 21, 20, 21, 17, 18]
42.467[20, 24, 22, 22, 21, 20, 18, 18]
42.482[19, 25, 25, 21, 20, 22, 19, 18]
42.504[20, 24, 24, 20, 20, 22, 20, 17]
42.527[21, 23, 26, 20, 19, 18, 21, 17]
42.542[21, 23, 26, 19, 20, 20, 21, 16]
42.564[20, 21, 25, 20, 19, 21, 21, 17]
42.587[20, 18, 22, 20, 19, 19, 21, 17]
42.61[20, 21, 23, 20, 20, 18, 21, 18]
42.624[18, 20, 20, 18, 21, 20, 20, 20]
42.647[20, 20, 20, 19, 20, 19, 20, 21]
42.67[20, 22, 20, 19, 20, 19, 19, 20]
42.684[19, 22, 22, 21, 20, 20, 19, 20]
42.707[18, 21, 22, 21, 21, 19, 15, 20]
42.73[19, 21, 23, 21, 18, 19, 17, 20]
42.744[17, 21, 23, 21, 20, 17, 19, 22]
42.767[17, 21, 23, 21, 20, 16, 19, 21]
42.789[19, 21, 22, 19, 20, 17, 22, 21]
42.805[19, 20, 22, 19, 21, 18, 22, 22]
42.827[18, 21, 22, 20, 22, 18, 21, 21]
42.85[20, 22, 22, 19, 22, 19, 19, 20]
42.864[20, 21, 22, 21, 23, 19, 20, 20]
42.887[19, 23, 21, 22, 23, 19, 20, 21]
42.91[18, 21, 21, 22, 21, 20, 20, 20]
42.924[20, 22, 23, 22, 21, 21, 20, 19]
42.947[18, 20, 21, 22, 20, 23, 19, 17]
42.969[19, 21, 23, 20, 19, 23, 19, 19]
42.984[19, 21, 23, 19, 21, 22, 17, 19]
43.007[23, 22, 23, 20, 21, 20, 18, 18]
43.029[21, 21, 22, 19, 22, 18, 19, 19]
43.044[22, 23, 23, 19, 22, 15, 20, 20]
43.067[23, 22, 22, 18, 22, 15, 20, 21]
43.089[23, 21, 22, 21, 19, 17, 21, 22]
43.104[20, 21, 23, 20, 20, 18, 20, 22]
43.127[22, 20, 23, 21, 20, 19, 20, 23]
43.15[21, 19, 23, 21, 22, 20, 19, 23]
43.165[19, 22, 26, 21, 23, 20, 19, 22]
43.187[19, 21, 24, 19, 25, 18, 18, 22]
43.21[20, 24, 25, 18, 24, 18, 19, 22]
43.225[17, 24, 24, 18, 23, 16, 20, 21]
43.247[18, 24, 25, 20, 22, 16, 19, 20]
43.27[18, 23, 24, 21, 20, 17, 18, 20]
43.293[18, 23, 25, 21, 19, 17, 19, 19]
43.307[18, 23, 23, 22, 19, 17, 19, 19]
43.33[20, 25, 24, 22, 19, 18, 21, 18]
43.344[20, 26, 22, 21, 19, 17, 21, 20]
43.367[21, 26, 21, 20, 20, 19, 19, 20]
43.392[21, 26, 20, 20, 21, 19, 20, 20]
43.405[21, 26, 20, 17, 22, 20, 19, 19]
43.427[20, 24, 20, 18, 22, 19, 18, 19]
43.45[20, 23, 19, 19, 21, 20, 18, 17]
43.465[19, 23, 20, 20, 21, 20, 19, 17]
43.487[19, 25, 21, 21, 21, 20, 18, 17]
43.51[21, 26, 23, 21, 20, 19, 17, 18]
43.524[21, 27, 23, 21, 20, 21, 17, 18]
43.547[19, 24, 23, 20, 19, 20, 18, 18]
43.57[21, 24, 23, 20, 19, 20, 17, 18]
43.593[20, 23, 22, 19, 19, 20, 17, 19]
43.615[18, 21, 21, 20, 18, 20, 19, 19]
43.63[18, 20, 20, 20, 19, 18, 18, 20]
43.653[19, 22, 20, 19, 20, 18, 18, 21]
43.667[18, 24, 20, 18, 19, 18, 17, 21]
43.69[19, 23, 22, 18, 19, 17, 17, 20]
43.713[19, 22, 20, 19, 20, 17, 15, 21]
43.727[19, 22, 22, 18, 21, 18, 18, 21]
43.75[20, 24, 24, 18, 21, 17, 19, 21]
43.773[21, 22, 24, 18, 20, 18, 19, 21]
43.788[20, 26, 23, 18, 19, 18, 20, 20]
43.81[20, 26, 24, 17, 19, 17, 20, 18]
43.833[20, 26, 24, 17, 17, 19, 20, 20]
43.847[19, 23, 22, 17, 17, 19, 22, 21]
43.87[19, 23, 21, 18, 20, 19, 22, 21]
43.893[21, 19, 21, 19, 19, 18, 22, 23]
43.907[20, 19, 21, 19, 21, 21, 22, 24]
43.93[20, 18, 20, 19, 21, 18, 21, 21]
43.953[19, 20, 20, 20, 22, 21, 18, 21]
43.967[18, 21, 21, 19, 20, 20, 18, 21]
43.99[16, 20, 21, 19, 21, 20, 18, 20]
44.013[16, 21, 22, 20, 21, 18, 17, 21]
44.027[18, 24, 21, 21, 22, 19, 18, 21]
44.05[18, 23, 25, 22, 20, 17, 17, 21]
44.08[19, 20, 25, 23, 19, 20, 18, 21]
44.087[19, 21, 24, 23, 19, 20, 17, 19]
44.11[19, 22, 23, 22, 19, 20, 19, 19]
44.132[20, 20, 23, 21, 21, 19, 17, 17]
44.147[20, 21, 20, 19, 22, 20, 18, 16]
44.17[21, 23, 21, 20, 23, 18, 18, 16]
44.193[21, 22, 22, 19, 22, 21, 18, 18]
44.207[21, 22, 22, 18, 22, 21, 17, 20]
44.23[21, 22, 22, 17, 19, 20, 17, 20]
44.253[20, 22, 21, 20, 19, 19, 17, 21]
44.267[20, 21, 20, 19, 17, 20, 17, 22]
44.29[20, 22, 19, 18, 17, 19, 17, 22]
44.312[21, 21, 20, 20, 20, 18, 17, 20]
44.327[21, 23, 20, 21, 20, 18, 19, 22]
44.358[20, 21, 21, 20, 20, 20, 19, 20]
44.373[20, 21, 22, 20, 20, 18, 19, 19]
44.387[20, 19, 25, 22, 22, 18, 18, 18]
44.41[19, 20, 22, 23, 19, 19, 21, 19]
44.432[20, 18, 21, 24, 19, 19, 19, 19]
44.447[21, 20, 22, 23, 19, 18, 18, 18]
44.47[20, 20, 21, 22, 19, 18, 18, 19]
44.493[18, 20, 17, 22, 18, 20, 20, 20]
44.515[19, 21, 21, 19, 20, 20, 19, 19]
44.53[18, 22, 23, 18, 19, 20, 20, 20]
44.553[19, 21, 21, 19, 20, 20, 21, 20]
44.576[19, 22, 21, 19, 20, 20, 21, 20]
44.59[21, 23, 22, 19, 20, 20, 21, 19]
44.613[20, 23, 19, 21, 19, 22, 18, 18]
44.635[20, 22, 21, 21, 20, 21, 19, 17]
44.65[20, 22, 22, 22, 18, 22, 20, 17]
44.68[20, 22, 23, 22, 19, 22, 19, 18]
44.695[21, 22, 25, 24, 19, 21, 20, 19]
44.71[21, 21, 26, 22, 19, 20, 20, 20]
44.733[22, 21, 23, 21, 19, 21, 19, 21]
44.755[22, 21, 24, 24, 20, 21, 18, 21]
44.77[23, 21, 22, 24, 21, 20, 18, 20]
44.793[23, 20, 18, 23, 20, 21, 19, 18]
44.815[20, 22, 19, 23, 20, 21, 21, 18]
44.83[19, 22, 20, 24, 19, 19, 21, 18]
44.852[18, 21, 21, 22, 22, 19, 21, 18]
44.875[17, 21, 21, 21, 20, 20, 21, 20]
44.89[17, 20, 22, 21, 21, 18, 21, 20]
44.913[18, 17, 22, 21, 21, 20, 20, 20]
44.935[20, 17, 23, 19, 21, 20, 19, 19]
44.958[21, 21, 23, 18, 19, 22, 21, 19]
44.972[20, 21, 24, 20, 20, 20, 20, 19]
44.995[19, 21, 24, 19, 19, 21, 19, 19]
45.01[18, 22, 23, 20, 20, 20, 19, 19]
45.032[17, 21, 22, 20, 19, 19, 20, 18]
45.055[16, 20, 21, 20, 20, 19, 18, 18]
45.069[16, 19, 21, 20, 19, 19, 18, 14]
45.093[18, 21, 22, 21, 20, 19, 18, 18]
45.115[17, 20, 21, 22, 21, 20, 20, 20]
45.13[17, 22, 21, 21, 23, 22, 19, 22]
45.153[19, 21, 20, 20, 23, 20, 22, 22]
45.175[18, 22, 20, 20, 23, 22, 22, 23]
45.189[19, 21, 20, 19, 22, 22, 25, 21]
45.212[19, 21, 22, 21, 21, 20, 22, 20]
45.235[21, 21, 23, 21, 19, 19, 22, 19]
45.249[19, 21, 23, 20, 19, 19, 20, 19]
45.273[20, 22, 23, 21, 20, 19, 21, 19]
45.295[19, 22, 23, 22, 20, 20, 19, 18]
45.309[20, 23, 23, 21, 20, 20, 20, 19]
45.333[19, 23, 23, 22, 20, 20, 19, 19]
45.355[20, 22, 24, 24, 18, 21, 19, 20]
45.369[19, 23, 21, 23, 17, 19, 17, 20]
45.392[19, 21, 21, 22, 18, 17, 18, 22]
45.415[18, 22, 22, 21, 19, 19, 17, 20]
45.429[18, 21, 20, 21, 17, 18, 19, 20]
45.452[17, 23, 19, 19, 17, 18, 18, 21]
45.475[17, 22, 21, 20, 18, 19, 19, 20]
45.498[18, 22, 20, 20, 17, 19, 18, 19]
45.513[18, 23, 17, 21, 19, 19, 19, 19]
45.535[18, 23, 18, 22, 19, 19, 20, 19]
45.558[18, 22, 18, 22, 21, 21, 19, 17]
45.573[19, 22, 19, 21, 22, 19, 19, 19]
45.595[17, 23, 18, 21, 21, 20, 20, 19]
45.617[17, 20, 19, 20, 20, 20, 20, 20]
45.632[19, 22, 20, 20, 22, 19, 19, 20]
45.656[19, 20, 22, 21, 21, 19, 20, 20]
45.678[19, 21, 23, 21, 20, 20, 21, 20]
45.692[20, 21, 25, 21, 19, 18, 21, 20]
45.715[22, 21, 25, 22, 20, 18, 20, 19]
45.744[22, 20, 24, 20, 19, 19, 19, 20]
45.753[21, 22, 22, 19, 21, 18, 19, 19]
45.775[20, 23, 21, 20, 22, 18, 16, 17]
45.797[20, 22, 21, 20, 23, 19, 18, 18]
45.813[18, 23, 24, 20, 22, 19, 19, 20]
45.835[17, 22, 23, 20, 21, 21, 20, 21]
45.857[17, 24, 24, 22, 19, 20, 20, 21]
45.873[19, 22, 26, 20, 19, 19, 21, 21]
45.894[19, 22, 24, 20, 20, 21, 21, 19]
45.917[21, 21, 22, 18, 21, 19, 20, 21]
45.933[21, 21, 23, 20, 23, 17, 23, 20]
45.955[21, 18, 23, 20, 22, 17, 23, 22]
45.977[20, 18, 20, 19, 25, 18, 22, 21]
45.993[19, 20, 22, 20, 24, 16, 21, 22]
46.015[18, 20, 22, 21, 22, 17, 20, 21]
46.037[17, 21, 22, 21, 20, 17, 17, 20]
46.053[18, 21, 23, 20, 22, 18, 17, 19]
46.075[19, 19, 26, 21, 17, 20, 17, 18]
46.097[18, 18, 25, 20, 18, 20, 18, 19]
46.113[18, 19, 25, 19, 19, 19, 19, 20]
46.134[18, 19, 26, 19, 21, 20, 19, 20]
46.157[20, 20, 24, 19, 20, 20, 18, 22]
46.173[20, 21, 21, 18, 20, 18, 19, 22]
46.194[20, 21, 20, 18, 20, 18, 17, 21]
46.217[20, 21, 20, 19, 18, 18, 18, 19]
46.233[20, 21, 18, 19, 20, 19, 21, 20]
46.254[19, 22, 20, 19, 19, 19, 21, 18]
46.277[18, 21, 20, 20, 21, 19, 21, 18]
46.301[18, 21, 23, 21, 23, 19, 23, 19]
46.314[18, 19, 22, 20, 24, 20, 22, 20]
46.337[18, 22, 23, 19, 23, 18, 21, 18]
46.353[17, 21, 23, 19, 24, 16, 21, 18]
46.382[16, 21, 24, 18, 25, 16, 20, 18]
46.396[16, 21, 21, 18, 23, 16, 18, 20]
46.42[16, 23, 22, 16, 24, 17, 18, 20]
46.434[16, 20, 21, 18, 23, 17, 17, 21]
46.464[16, 21, 22, 18, 22, 18, 18, 23]
46.479[17, 21, 23, 18, 22, 17, 18, 23]
46.494[17, 23, 22, 21, 20, 17, 20, 20]
46.517[17, 21, 25, 22, 19, 15, 20, 21]
46.539[17, 21, 26, 22, 22, 17, 20, 19]
46.554[17, 23, 28, 21, 22, 18, 20, 18]
46.577[18, 22, 27, 22, 20, 19, 20, 18]
46.599[19, 21, 28, 19, 23, 20, 20, 20]
46.614[19, 21, 25, 18, 23, 20, 18, 21]
46.636[20, 21, 26, 19, 20, 21, 18, 20]
46.659[20, 18, 20, 20, 19, 21, 19, 21]
46.674[21, 18, 21, 22, 22, 21, 19, 21]
46.697[21, 18, 21, 21, 19, 19, 18, 18]
46.719[20, 19, 22, 23, 20, 21, 22, 19]
46.734[21, 22, 20, 22, 20, 18, 22, 20]
46.757[20, 22, 23, 21, 22, 17, 20, 19]
46.779[18, 22, 23, 20, 20, 16, 20, 21]
46.795[18, 22, 23, 20, 21, 17, 20, 21]
46.817[20, 23, 23, 21, 22, 15, 17, 20]
46.839[18, 22, 23, 19, 22, 16, 19, 20]
46.854[19, 23, 24, 19, 20, 17, 18, 20]
46.877[19, 24, 23, 16, 22, 17, 18, 18]
46.899[19, 26, 22, 18, 21, 17, 18, 18]
46.914[17, 24, 21, 18, 18, 17, 19, 18]
46.937[19, 23, 21, 19, 18, 16, 20, 18]
46.959[20, 23, 21, 19, 20, 16, 19, 20]
46.974[19, 22, 20, 22, 18, 19, 21, 19]
46.996[21, 23, 24, 22, 18, 20, 21, 19]
47.019[23, 22, 24, 22, 19, 20, 21, 20]
47.034[22, 23, 24, 23, 18, 21, 20, 21]
47.056[23, 21, 22, 23, 18, 20, 21, 19]
47.087[23, 21, 24, 21, 16, 19, 20, 20]
47.094[22, 21, 21, 19, 17, 18, 22, 20]
47.116[20, 22, 21, 21, 18, 17, 21, 18]
47.139[20, 21, 20, 21, 19, 17, 22, 17]
47.154[19, 21, 20, 21, 19, 19, 22, 18]
47.178[18, 21, 20, 22, 21, 19, 23, 19]
47.199[18, 19, 19, 20, 20, 19, 21, 20]
47.214[17, 19, 21, 20, 20, 19, 21, 19]
47.236[16, 18, 22, 20, 20, 18, 21, 21]
47.259[16, 20, 25, 21, 21, 19, 22, 20]
47.274[17, 19, 24, 20, 19, 17, 20, 20]
47.296[19, 21, 23, 23, 20, 18, 20, 18]
47.319[19, 22, 23, 23, 20, 19, 20, 19]
47.342[19, 23, 23, 23, 20, 19, 20, 17]
47.356[18, 23, 18, 23, 19, 18, 20, 20]
47.379[19, 24, 19, 23, 19, 18, 22, 22]
47.402[19, 23, 19, 22, 19, 19, 22, 22]
47.416[20, 22, 17, 21, 17, 19, 21, 22]
47.439[20, 20, 18, 19, 17, 18, 21, 22]
47.461[21, 21, 20, 21, 21, 22, 19, 20]
47.476[19, 23, 21, 23, 22, 21, 17, 18]
47.5[20, 22, 22, 21, 22, 20, 17, 20]
47.531[17, 21, 23, 21, 22, 21, 17, 19]
47.536[19, 22, 23, 22, 22, 22, 17, 19]
47.559[19, 22, 24, 20, 20, 21, 20, 19]
47.582[21, 19, 23, 19, 21, 20, 19, 20]
47.597[20, 19, 22, 19, 21, 21, 19, 18]
47.628[21, 19, 23, 20, 23, 20, 20, 17]
47.642[20, 20, 23, 19, 24, 18, 20, 18]
47.665[21, 19, 24, 18, 22, 17, 19, 20]
47.679[19, 20, 24, 19, 21, 17, 19, 19]
47.702[18, 20, 23, 18, 23, 18, 20, 19]
47.717[18, 19, 22, 17, 20, 17, 19, 18]
47.739[20, 20, 22, 17, 20, 17, 18, 20]
47.762[19, 20, 20, 19, 21, 17, 16, 18]
47.777[20, 19, 20, 19, 23, 19, 20, 16]
47.799[21, 21, 20, 20, 24, 18, 19, 19]
47.822[21, 22, 18, 20, 24, 18, 20, 21]
47.837[19, 21, 18, 21, 22, 19, 20, 20]
47.86[19, 22, 17, 20, 22, 18, 20, 20]
47.882[21, 22, 17, 22, 20, 16, 18, 20]
47.896[20, 22, 18, 21, 18, 17, 18, 19]
47.921[21, 22, 20, 21, 17, 18, 16, 18]
47.942[21, 22, 19, 20, 20, 17, 16, 16]
47.957[21, 23, 20, 21, 20, 18, 16, 17]
47.979[19, 24, 21, 20, 23, 19, 16, 18]
48.01[20, 23, 21, 20, 22, 19, 17, 19]
48.017[18, 23, 21, 20, 23, 19, 19, 19]
48.039[18, 23, 21, 19, 21, 20, 22, 20]
48.062[19, 23, 23, 18, 21, 20, 23, 21]
48.085[20, 22, 22, 16, 19, 19, 23, 21]
48.099[19, 21, 24, 16, 19, 18, 22, 20]
48.122[19, 21, 23, 15, 20, 20, 22, 20]
48.136[20, 22, 24, 15, 20, 21, 19, 20]
48.159[18, 20, 24, 16, 20, 21, 19, 19]
48.181[18, 19, 22, 17, 20, 22, 18, 20]
48.197[19, 19, 22, 17, 22, 20, 19, 21]
48.219[20, 19, 22, 18, 21, 20, 20, 21]
48.25[20, 20, 20, 18, 22, 19, 19, 19]
48.257[20, 21, 18, 19, 21, 19, 17, 20]
48.287[20, 23, 20, 19, 21, 22, 18, 19]
48.302[19, 23, 18, 21, 21, 21, 17, 18]
48.325[18, 24, 18, 22, 22, 20, 16, 19]
48.339[19, 23, 19, 22, 22, 20, 17, 20]
48.362[18, 23, 21, 22, 22, 20, 17, 20]
48.385[18, 21, 20, 22, 23, 17, 18, 22]
48.399[21, 23, 21, 21, 23, 17, 18, 21]
48.43[22, 22, 21, 20, 22, 18, 19, 21]
48.445[21, 21, 21, 22, 22, 18, 19, 20]
48.459[21, 22, 21, 19, 22, 17, 19, 20]
48.482[21, 23, 20, 20, 22, 17, 22, 20]
48.505[20, 21, 23, 19, 21, 20, 22, 20]
48.519[18, 22, 24, 19, 21, 20, 20, 21]
48.542[18, 22, 24, 19, 21, 21, 20, 21]
48.565[19, 20, 25, 19, 20, 21, 20, 19]
48.579[19, 21, 25, 20, 22, 22, 18, 17]
48.602[19, 21, 21, 23, 22, 22, 18, 19]
48.625[19, 21, 21, 23, 22, 22, 20, 16]
48.639[20, 20, 22, 24, 24, 24, 21, 16]
48.662[20, 21, 22, 24, 24, 24, 21, 16]
48.685[19, 20, 20, 23, 22, 23, 19, 15]
48.699[19, 20, 20, 20, 23, 22, 21, 14]
48.722[19, 21, 20, 19, 23, 22, 19, 15]
48.745[20, 22, 20, 18, 20, 19, 20, 17]
48.759[19, 24, 24, 21, 22, 21, 19, 17]
48.782[20, 24, 24, 20, 22, 20, 21, 19]
48.805[19, 24, 24, 21, 22, 21, 19, 18]
48.819[23, 23, 23, 21, 22, 22, 19, 19]
48.842[20, 24, 22, 23, 23, 21, 19, 18]
48.865[21, 21, 18, 21, 21, 19, 20, 19]
48.879[21, 23, 19, 22, 22, 20, 18, 18]
48.902[21, 23, 21, 21, 20, 17, 19, 18]
48.925[19, 23, 20, 23, 22, 16, 19, 17]
48.939[19, 22, 20, 22, 21, 17, 18, 19]
48.962[21, 23, 19, 22, 21, 17, 18, 18]
48.985[21, 24, 19, 21, 21, 19, 18, 18]
48.999[21, 24, 18, 21, 21, 19, 19, 21]
49.021[21, 24, 18, 19, 20, 19, 20, 23]
49.045[22, 25, 19, 21, 20, 19, 20, 21]
49.059[20, 25, 20, 22, 19, 17, 18, 21]
49.082[20, 23, 19, 21, 17, 17, 19, 21]
49.105[19, 21, 20, 22, 18, 18, 17, 19]
49.12[19, 22, 20, 22, 19, 19, 17, 17]
49.142[19, 21, 20, 20, 19, 19, 19, 17]
49.165[19, 23, 20, 20, 22, 20, 19, 17]
49.179[19, 24, 20, 20, 21, 20, 19, 18]
49.202[19, 24, 19, 19, 21, 21, 18, 20]
49.225[19, 24, 19, 19, 19, 19, 19, 19]
49.247[18, 25, 22, 19, 19, 19, 17, 21]
49.262[18, 23, 23, 18, 17, 20, 17, 22]
49.285[18, 23, 24, 19, 18, 19, 18, 21]
49.307[18, 23, 24, 20, 19, 17, 18, 21]
49.322[17, 24, 23, 19, 19, 17, 17, 19]
49.352[19, 22, 22, 19, 20, 18, 17, 16]
49.367[19, 21, 20, 19, 20, 16, 18, 15]
49.382[19, 21, 20, 19, 21, 16, 18, 18]
49.405[19, 21, 23, 18, 20, 17, 18, 19]
49.427[19, 21, 24, 17, 20, 19, 18, 19]
49.442[18, 22, 23, 16, 21, 20, 20, 20]
49.465[17, 23, 24, 18, 22, 22, 20, 19]
49.487[18, 23, 25, 17, 21, 23, 19, 19]
49.502[19, 23, 23, 18, 19, 24, 22, 18]
49.525[19, 22, 23, 19, 20, 23, 20, 18]
49.547[20, 22, 24, 21, 19, 23, 21, 19]
49.562[20, 24, 24, 20, 18, 21, 21, 19]
49.585[21, 24, 23, 19, 17, 21, 22, 18]
49.607[19, 25, 23, 21, 19, 20, 20, 17]
49.622[18, 23, 21, 20, 19, 20, 21, 18]
49.645[17, 24, 20, 21, 17, 18, 19, 18]
49.667[16, 21, 18, 20, 19, 20, 21, 20]
49.682[19, 22, 20, 19, 20, 20, 21, 18]
49.706[19, 19, 19, 16, 19, 21, 19, 17]
49.727[21, 23, 18, 17, 20, 21, 19, 17]
49.742[21, 21, 18, 15, 20, 21, 18, 16]
49.765[22, 22, 19, 17, 18, 20, 16, 14]
49.787[19, 26, 18, 17, 18, 19, 17, 14]
49.802[18, 26, 18, 16, 19, 19, 18, 16]
49.825[17, 25, 19, 16, 18, 19, 19, 16]
49.847[16, 25, 20, 15, 20, 19, 20, 17]
49.861[17, 25, 20, 18, 21, 19, 19, 17]
49.885[18, 19, 20, 18, 22, 20, 19, 19]
49.907[19, 21, 19, 18, 22, 18, 18, 21]
49.922[20, 21, 21, 19, 21, 19, 18, 21]
49.952[21, 22, 21, 20, 21, 22, 19, 22]
49.967[20, 21, 20, 17, 20, 22, 19, 23]
49.982[20, 21, 20, 17, 19, 23, 18, 21]
50.005