[15, 17, 23, 20, 19, 17, 18, 19]
1.265[16, 19, 22, 20, 18, 18, 16, 21]
1.289[16, 21, 21, 21, 20, 17, 20, 20]
1.303[16, 20, 21, 24, 20, 17, 20, 21]
1.327[19, 23, 22, 23, 23, 22, 23, 26]
1.348[24, 28, 25, 21, 27, 24, 26, 26]
1.363[26, 27, 27, 20, 28, 25, 27, 26]
1.389[26, 26, 28, 19, 27, 28, 25, 28]
1.412[29, 27, 28, 16, 29, 28, 25, 28]
1.423[27, 24, 28, 16, 28, 25, 23, 23]
1.446[23, 19, 24, 18, 22, 23, 21, 23]
1.476[20, 21, 23, 19, 22, 22, 22, 21]
1.483[22, 20, 23, 19, 22, 20, 22, 19]
1.514[18, 19, 21, 19, 19, 20, 20, 19]
1.543[19, 20, 21, 18, 18, 18, 20, 20]
1.551[18, 21, 22, 18, 20, 18, 21, 21]
1.566[19, 20, 20, 18, 19, 21, 19, 22]
1.589[17, 21, 19, 19, 18, 20, 20, 22]
1.611[17, 21, 20, 19, 19, 20, 20, 23]
1.626[17, 19, 18, 19, 19, 21, 19, 22]
1.649[16, 18, 16, 20, 18, 21, 18, 19]
1.671[16, 18, 17, 20, 20, 19, 19, 17]
1.686[16, 18, 19, 19, 20, 21, 21, 17]
1.708[17, 18, 18, 19, 21, 22, 19, 16]
1.731[16, 17, 18, 19, 21, 20, 20, 19]
1.754[18, 21, 19, 17, 21, 21, 21, 20]
1.768[19, 19, 19, 16, 20, 21, 21, 19]
1.791[20, 20, 18, 18, 20, 19, 19, 20]
1.806[19, 20, 18, 18, 19, 18, 21, 22]
1.828[20, 21, 21, 18, 20, 18, 22, 22]
1.851[18, 18, 20, 18, 20, 18, 22, 23]
1.867[19, 19, 20, 18, 20, 17, 21, 24]
1.889[16, 19, 20, 17, 20, 19, 21, 23]
1.912[19, 20, 21, 16, 20, 20, 20, 22]
1.926[18, 20, 18, 19, 21, 19, 18, 21]
1.949[20, 21, 20, 19, 21, 18, 18, 19]
1.971[19, 21, 21, 19, 21, 20, 18, 19]
1.987[22, 18, 22, 18, 21, 19, 19, 20]
2.008[20, 19, 22, 18, 21, 18, 18, 20]
2.031[20, 17, 23, 15, 20, 19, 20, 20]
2.046[21, 18, 21, 16, 20, 19, 20, 22]
2.068[21, 19, 21, 19, 21, 18, 21, 22]
2.098[18, 21, 21, 21, 20, 18, 21, 21]
2.106[19, 21, 20, 20, 22, 19, 22, 21]
2.129[19, 21, 19, 20, 22, 19, 21, 23]
2.151[17, 20, 20, 22, 22, 19, 23, 21]
2.172[17, 20, 21, 19, 22, 18, 21, 20]
2.202[18, 18, 19, 19, 24, 20, 20, 21]
2.212[16, 18, 20, 20, 24, 20, 19, 21]
2.232[16, 18, 22, 20, 22, 21, 19, 19]
2.254[17, 19, 22, 20, 22, 21, 18, 19]
2.271[17, 19, 19, 20, 21, 22, 19, 19]
2.294[18, 20, 21, 20, 20, 20, 19, 20]
2.314[20, 20, 21, 20, 20, 21, 18, 20]
2.331[20, 21, 21, 22, 20, 19, 18, 20]
2.352[21, 22, 21, 21, 21, 20, 18, 19]
2.374[21, 22, 22, 21, 20, 20, 17, 19]
2.391[20, 21, 21, 22, 20, 22, 19, 19]
2.414[19, 21, 21, 23, 20, 20, 18, 18]
2.435[19, 21, 19, 21, 19, 20, 19, 18]
2.451[18, 19, 19, 22, 22, 19, 18, 19]
2.472[17, 20, 19, 20, 21, 18, 18, 20]
2.495[19, 19, 19, 19, 20, 16, 17, 22]
2.518[18, 19, 19, 18, 22, 17, 18, 21]
2.532[18, 19, 19, 19, 22, 18, 19, 20]
2.554[18, 20, 18, 18, 19, 18, 20, 20]
2.571[18, 18, 18, 19, 21, 19, 20, 21]
2.592[16, 19, 19, 18, 22, 19, 19, 18]
2.622[18, 18, 18, 19, 20, 18, 19, 18]
2.631[19, 18, 19, 18, 20, 17, 18, 18]
2.653[20, 19, 19, 19, 19, 19, 18, 18]
2.674[21, 19, 18, 17, 18, 20, 19, 16]
2.691[22, 20, 21, 19, 17, 20, 19, 15]
2.712[23, 23, 21, 19, 17, 20, 20, 16]
2.734[23, 21, 22, 20, 17, 21, 21, 17]
2.751[23, 21, 22, 19, 17, 20, 20, 16]
2.772[22, 21, 22, 22, 18, 18, 20, 17]
2.796[21, 20, 19, 19, 20, 18, 20, 17]
2.817[20, 20, 20, 19, 21, 16, 19, 17]
2.832[19, 21, 18, 19, 22, 15, 19, 16]
2.854[19, 23, 20, 22, 23, 15, 20, 19]
2.869[18, 23, 20, 20, 22, 16, 20, 19]
2.9[19, 23, 19, 20, 21, 18, 21, 19]
2.914[20, 21, 21, 22, 20, 19, 21, 18]
2.931[19, 22, 22, 21, 20, 20, 21, 19]
2.952[21, 20, 21, 18, 18, 21, 20, 19]
2.975[19, 22, 21, 20, 18, 20, 20, 17]
2.997[20, 23, 24, 19, 17, 20, 20, 19]
3.012[20, 24, 22, 19, 18, 19, 20, 19]
3.036[21, 23, 21, 21, 18, 19, 20, 18]
3.057[20, 23, 20, 22, 19, 19, 19, 17]
3.073[20, 23, 19, 20, 20, 20, 19, 20]
3.094[20, 21, 17, 22, 20, 19, 18, 19]
3.126[19, 20, 17, 20, 20, 20, 16, 19]
3.14[18, 21, 18, 21, 20, 18, 16, 20]
3.155[18, 22, 18, 23, 23, 17, 17, 20]
3.177[18, 20, 20, 23, 22, 15, 15, 20]
3.192[17, 20, 20, 23, 21, 18, 17, 20]
3.214[19, 22, 21, 23, 21, 17, 18, 20]
3.245[18, 22, 21, 22, 21, 21, 19, 19]
3.252[18, 21, 24, 20, 21, 20, 18, 20]
3.283[17, 22, 24, 21, 22, 21, 19, 18]
3.297[19, 23, 22, 20, 23, 22, 19, 19]
3.313[17, 21, 25, 20, 22, 20, 19, 18]
3.335[18, 19, 24, 18, 22, 19, 18, 19]
3.357[18, 21, 21, 17, 21, 19, 18, 19]
3.373[19, 21, 22, 19, 21, 21, 18, 18]
3.394[18, 20, 24, 19, 22, 20, 17, 19]
3.417[19, 22, 20, 19, 24, 21, 19, 20]
3.432[19, 22, 19, 18, 24, 20, 17, 21]
3.455[19, 22, 21, 18, 23, 20, 17, 21]
3.485[19, 21, 21, 18, 22, 20, 16, 21]
3.492[18, 21, 20, 16, 21, 17, 17, 20]
3.515[19, 20, 21, 18, 20, 17, 16, 21]
3.537[19, 20, 21, 18, 20, 17, 17, 19]
3.553[20, 18, 21, 20, 19, 17, 16, 20]
3.575[18, 21, 20, 19, 20, 16, 20, 19]
3.597[19, 20, 19, 19, 21, 18, 18, 19]
3.612[20, 20, 19, 19, 19, 20, 17, 19]
3.634[19, 21, 20, 19, 20, 19, 18, 20]
3.657[18, 22, 17, 18, 21, 22, 18, 19]
3.672[19, 20, 18, 20, 20, 20, 17, 20]
3.695[19, 19, 21, 21, 19, 20, 18, 20]
3.725[17, 20, 21, 19, 20, 17, 19, 19]
3.733[18, 19, 20, 19, 19, 19, 19, 18]
3.755[19, 20, 21, 19, 18, 17, 20, 16]
3.777[19, 21, 20, 20, 19, 17, 17, 16]
3.799[18, 22, 19, 21, 17, 17, 17, 17]
3.814[18, 19, 19, 23, 18, 20, 18, 18]
3.838[20, 20, 19, 24, 19, 17, 18, 19]
3.852[19, 18, 20, 24, 18, 18, 18, 20]
3.875[19, 18, 20, 22, 17, 20, 20, 20]
3.906[20, 18, 20, 21, 18, 19, 19, 18]
3.919[20, 20, 19, 19, 18, 19, 19, 18]
3.936[21, 18, 20, 21, 17, 19, 18, 18]
3.957[22, 18, 19, 20, 19, 19, 20, 18]
3.979[22, 19, 21, 20, 20, 18, 19, 19]
3.994[22, 22, 22, 19, 20, 18, 23, 20]
4.017[23, 21, 22, 20, 21, 19, 22, 21]
4.04[21, 22, 23, 18, 22, 19, 22, 21]
4.055[20, 24, 23, 21, 22, 20, 22, 21]
4.077[19, 23, 21, 20, 22, 19, 21, 23]
4.107[21, 21, 20, 21, 22, 20, 17, 22]
4.116[22, 22, 19, 20, 20, 19, 19, 22]
4.145[22, 22, 19, 19, 20, 20, 19, 21]
4.159[22, 21, 18, 17, 19, 18, 18, 19]
4.183[22, 23, 19, 19, 18, 19, 19, 17]
4.197[19, 24, 19, 18, 19, 17, 19, 16]
4.219[17, 24, 21, 19, 20, 18, 17, 16]
4.234[18, 24, 20, 19, 18, 17, 19, 17]
4.257[19, 23, 21, 20, 19, 17, 19, 19]
4.288[20, 22, 21, 18, 19, 18, 20, 19]
4.295[21, 19, 21, 20, 19, 19, 21, 20]
4.317[22, 18, 21, 20, 21, 19, 21, 20]
4.34[22, 16, 21, 19, 21, 19, 20, 20]
4.356[21, 17, 21, 20, 21, 19, 19, 19]
4.377[22, 18, 23, 20, 21, 18, 20, 20]
4.4[21, 19, 23, 18, 21, 18, 21, 21]
4.422[22, 18, 21, 19, 19, 18, 22, 22]
4.437[21, 21, 22, 18, 20, 19, 25, 21]
4.46[21, 21, 21, 18, 22, 18, 26, 21]
4.483[20, 21, 19, 19, 22, 19, 24, 20]
4.497[19, 20, 21, 19, 21, 19, 21, 17]
4.52[17, 21, 20, 19, 22, 18, 23, 17]
4.535[17, 19, 20, 19, 21, 17, 21, 17]
4.557[18, 19, 19, 17, 20, 19, 21, 17]
4.58[18, 20, 19, 17, 20, 17, 21, 18]
4.594[17, 20, 16, 18, 19, 18, 23, 22]
4.617[17, 21, 18, 18, 19, 18, 20, 21]
4.64[19, 21, 18, 20, 21, 18, 19, 21]
4.654[18, 21, 19, 20, 20, 17, 18, 23]
4.678[19, 24, 18, 20, 21, 19, 18, 24]
4.7[21, 24, 20, 23, 22, 18, 18, 21]
4.714[20, 24, 21, 22, 20, 17, 18, 21]
4.737[18, 24, 22, 19, 18, 17, 17, 21]
4.768[18, 25, 22, 20, 19, 16, 18, 19]
4.774[17, 20, 22, 21, 18, 16, 19, 19]
4.797[19, 21, 22, 19, 19, 17, 19, 20]
4.82[21, 22, 21, 21, 20, 17, 18, 22]
4.85[23, 22, 21, 23, 21, 18, 19, 22]
4.857[23, 21, 21, 22, 20, 18, 20, 20]
4.88[24, 23, 22, 22, 22, 17, 19, 18]
4.902[23, 21, 22, 20, 21, 19, 17, 18]
4.917[22, 22, 22, 18, 21, 19, 18, 15]
4.947[21, 22, 20, 19, 21, 17, 17, 14]
4.962[21, 23, 20, 20, 22, 19, 16, 17]
4.977[19, 23, 20, 20, 22, 19, 21, 17]
5.0[20, 25, 20, 20, 21, 19, 21, 17]
5.023[20, 22, 20, 21, 21, 18, 21, 18]
5.037[19, 22, 21, 19, 20, 20, 21, 19]
5.06[19, 20, 19, 19, 21, 19, 22, 18]
5.083[18, 19, 18, 18, 19, 20, 17, 18]
5.097[16, 19, 17, 19, 20, 19, 18, 19]
5.12[18, 22, 17, 19, 20, 19, 18, 19]
5.15[19, 22, 19, 20, 22, 17, 17, 20]
5.157[18, 22, 20, 22, 21, 18, 17, 20]
5.18[21, 22, 19, 21, 21, 16, 18, 20]
5.203[21, 22, 19, 20, 20, 15, 19, 20]
5.217[22, 20, 21, 19, 21, 16, 19, 20]
5.24[21, 19, 20, 17, 18, 18, 19, 21]
5.263[21, 20, 20, 16, 19, 18, 18, 21]
5.277[19, 20, 23, 17, 19, 18, 18, 22]
5.3[19, 19, 23, 17, 18, 20, 18, 23]
5.323[17, 19, 23, 17, 18, 19, 17, 22]
5.337[18, 20, 21, 18, 17, 18, 19, 20]
5.36[18, 19, 21, 18, 19, 19, 20, 19]
5.383[18, 19, 19, 19, 18, 18, 19, 18]
5.397[17, 19, 19, 20, 19, 17, 20, 17]
5.428[17, 19, 18, 22, 20, 17, 20, 18]
5.443[18, 17, 18, 22, 20, 17, 20, 18]
5.457[19, 18, 18, 21, 18, 16, 20, 18]
5.481[20, 19, 18, 21, 19, 18, 20, 17]
5.503[21, 19, 20, 21, 18, 18, 21, 17]
5.517[21, 18, 19, 20, 17, 19, 21, 18]
5.54[19, 20, 18, 22, 18, 18, 20, 18]
5.563[20, 20, 20, 23, 17, 19, 20, 20]
5.577[21, 19, 20, 22, 18, 20, 18, 20]
5.6[21, 21, 17, 20, 19, 20, 15, 20]
5.623[20, 21, 19, 21, 20, 20, 15, 20]
5.637[22, 20, 21, 19, 19, 21, 16, 19]
5.66[22, 21, 21, 19, 20, 21, 19, 18]
5.683[21, 22, 22, 19, 19, 20, 19, 18]
5.705[20, 20, 24, 21, 20, 20, 19, 18]
5.728[22, 21, 25, 22, 20, 20, 20, 16]
5.743[20, 21, 23, 21, 20, 20, 20, 16]
5.757[22, 20, 22, 20, 19, 19, 18, 17]
5.78[22, 22, 22, 20, 21, 20, 20, 17]
5.81[22, 23, 20, 18, 19, 21, 20, 17]
5.825[22, 21, 18, 16, 19, 20, 21, 19]
5.84[21, 21, 19, 18, 19, 19, 20, 19]
5.863[18, 22, 20, 19, 20, 21, 20, 19]
5.885[19, 19, 20, 21, 18, 18, 20, 18]
5.9[20, 17, 20, 21, 18, 19, 20, 19]
5.923[18, 17, 19, 23, 18, 19, 19, 17]
5.945[20, 17, 17, 22, 19, 20, 18, 17]
5.96[21, 18, 19, 22, 18, 17, 18, 20]
5.983[21, 19, 18, 19, 19, 18, 16, 21]
6.005[20, 20, 18, 19, 21, 18, 18, 20]
6.021[22, 23, 21, 18, 22, 19, 18, 21]
6.043[20, 24, 21, 18, 21, 20, 20, 22]
6.089[19, 22, 20, 17, 22, 20, 20, 21]
6.09[18, 23, 20, 18, 23, 21, 21, 20]
6.11[20, 22, 22, 20, 21, 20, 21, 23]
6.125[19, 20, 19, 19, 20, 19, 20, 23]
6.14[20, 18, 19, 18, 20, 19, 19, 22]
6.163[20, 21, 19, 19, 21, 19, 20, 21]
6.185[20, 21, 21, 19, 19, 18, 21, 21]
6.2[17, 21, 20, 18, 18, 16, 19, 19]
6.223[19, 22, 22, 20, 19, 18, 21, 20]
6.245[19, 22, 23, 21, 19, 19, 21, 21]
6.261[19, 20, 22, 20, 18, 18, 21, 20]
6.283[18, 20, 22, 21, 20, 18, 19, 21]
6.305[21, 20, 21, 21, 22, 20, 22, 20]
6.319[18, 20, 21, 18, 20, 20, 22, 19]
6.343[18, 19, 20, 17, 22, 21, 22, 18]
6.366[18, 18, 21, 19, 20, 21, 22, 18]
6.388[18, 17, 21, 19, 18, 22, 23, 18]
6.403[18, 16, 22, 19, 18, 23, 21, 17]
6.426[19, 17, 22, 20, 19, 22, 19, 18]
6.441[18, 18, 21, 20, 17, 21, 19, 19]
6.47[21, 18, 20, 20, 19, 22, 20, 19]
6.485[22, 20, 21, 20, 19, 21, 18, 21]
6.5[20, 20, 20, 19, 21, 19, 17, 20]
6.538[20, 21, 18, 23, 20, 19, 20, 21]
6.545[21, 22, 20, 24, 22, 17, 19, 21]
6.559[19, 22, 20, 21, 20, 17, 18, 21]
6.583[22, 20, 19, 22, 22, 16, 18, 22]
6.605[22, 22, 19, 23, 20, 17, 19, 22]
6.62[22, 21, 20, 19, 22, 18, 14, 23]
6.643[21, 22, 21, 20, 22, 18, 17, 21]
6.665[22, 21, 22, 22, 24, 19, 16, 22]
6.68[18, 22, 22, 21, 23, 20, 18, 20]
6.703[17, 20, 23, 20, 23, 20, 17, 21]
6.726[18, 20, 23, 20, 21, 20, 20, 19]
6.748[18, 19, 22, 21, 20, 19, 20, 20]
6.763[17, 20, 22, 22, 18, 18, 25, 19]
6.785[16, 20, 22, 22, 18, 17, 24, 18]
6.807[18, 19, 19, 22, 19, 18, 25, 20]
6.823[19, 19, 19, 22, 21, 20, 24, 22]
6.844[20, 19, 19, 21, 23, 21, 23, 21]
6.867[20, 18, 19, 19, 23, 20, 19, 21]
6.883[21, 17, 20, 19, 24, 22, 19, 21]
6.904[19, 18, 21, 19, 23, 21, 19, 20]
6.927[18, 17, 22, 23, 22, 19, 18, 18]
6.943[18, 16, 22, 27, 21, 18, 20, 19]
6.966[18, 17, 22, 26, 21, 18, 19, 19]
6.987[18, 19, 22, 28, 19, 16, 18, 21]
7.003[19, 18, 23, 28, 19, 18, 18, 19]
7.025[18, 18, 22, 24, 18, 19, 20, 18]
7.047[18, 20, 23, 21, 17, 20, 19, 19]
7.063[18, 20, 25, 21, 18, 22, 20, 19]
7.084[17, 19, 23, 19, 19, 24, 21, 18]
7.107[16, 19, 22, 19, 18, 22, 20, 19]
7.123[19, 19, 22, 19, 20, 23, 20, 21]
7.144[19, 17, 19, 17, 21, 24, 19, 20]
7.167[18, 17, 18, 17, 22, 23, 18, 19]
7.184[18, 17, 18, 17, 22, 22, 20, 19]
7.204[20, 17, 19, 15, 22, 22, 18, 18]
7.227[19, 18, 20, 17, 21, 20, 17, 16]
7.244[18, 17, 21, 18, 20, 19, 19, 18]
7.264[21, 18, 21, 18, 19, 19, 19, 19]
7.287[21, 19, 21, 20, 19, 18, 19, 18]
7.303[19, 19, 19, 22, 19, 19, 20, 19]
7.324[19, 21, 20, 20, 19, 18, 20, 20]
7.347[19, 23, 18, 20, 20, 18, 20, 19]
7.369[19, 23, 19, 19, 19, 18, 21, 19]
7.392[19, 23, 20, 20, 20, 18, 20, 18]
7.407[22, 22, 20, 18, 20, 20, 19, 18]
7.423[21, 21, 20, 20, 21, 20, 19, 17]
7.444[20, 19, 20, 19, 20, 21, 17, 17]
7.474[19, 19, 21, 19, 20, 20, 15, 17]
7.483[21, 19, 20, 18, 19, 20, 18, 18]
7.505[19, 21, 20, 19, 18, 18, 18, 17]
7.527[19, 22, 18, 19, 18, 17, 18, 18]
7.543[21, 22, 17, 20, 19, 18, 19, 17]
7.565[20, 22, 17, 22, 19, 19, 20, 17]
7.587[17, 22, 19, 23, 21, 19, 19, 17]
7.603[18, 21, 19, 22, 21, 19, 18, 19]
7.625[18, 20, 21, 21, 21, 20, 18, 20]
7.656[18, 20, 22, 21, 22, 18, 17, 20]
7.663[19, 21, 22, 18, 20, 16, 15, 19]
7.684[20, 21, 20, 21, 19, 16, 16, 18]
7.707[19, 20, 20, 20, 18, 17, 16, 16]
7.729[19, 21, 21, 19, 17, 15, 15, 15]
7.752[18, 22, 20, 19, 17, 16, 16, 16]
7.767[18, 20, 19, 20, 18, 18, 17, 17]
7.789[17, 19, 20, 17, 18, 16, 19, 17]
7.804[17, 20, 22, 18, 19, 19, 18, 19]
7.828[19, 20, 20, 18, 19, 21, 18, 20]
7.849[20, 18, 21, 17, 18, 20, 19, 18]
7.864[21, 20, 21, 17, 19, 20, 20, 18]
7.894[21, 21, 22, 19, 19, 21, 18, 20]
7.909[22, 20, 20, 19, 19, 19, 19, 19]
7.926[20, 20, 19, 18, 20, 18, 21, 19]
7.947[20, 21, 19, 20, 21, 19, 22, 19]
7.969[19, 21, 18, 20, 21, 21, 20, 20]
7.985[18, 21, 17, 19, 21, 21, 21, 19]
8.007[16, 21, 17, 18, 22, 21, 21, 19]
8.031[18, 20, 17, 18, 20, 20, 19, 18]
8.044[18, 19, 17, 17, 22, 20, 18, 19]
8.067[20, 19, 20, 16, 20, 18, 18, 19]
8.089[21, 19, 21, 19, 21, 18, 17, 18]
8.104[21, 21, 20, 17, 21, 18, 17, 18]
8.135[21, 22, 22, 22, 23, 18, 18, 18]
8.149[20, 22, 21, 22, 24, 19, 18, 19]
8.164[19, 24, 19, 22, 23, 20, 18, 19]
8.187[19, 24, 20, 20, 22, 20, 18, 20]
8.209[20, 23, 19, 22, 21, 21, 18, 20]
8.224[21, 23, 19, 19, 19, 21, 19, 21]
8.247[20, 22, 21, 19, 17, 19, 19, 20]
8.27[22, 19, 21, 18, 18, 18, 19, 20]
8.285[22, 19, 21, 19, 19, 18, 19, 19]
8.308[19, 19, 23, 20, 21, 17, 19, 18]
8.329[19, 18, 22, 18, 21, 16, 17, 17]
8.344[19, 19, 22, 19, 22, 18, 17, 18]
8.367[18, 21, 21, 19, 22, 19, 18, 16]
8.389[17, 21, 21, 20, 22, 19, 18, 17]
8.405[20, 22, 20, 18, 21, 19, 18, 17]
8.435[21, 23, 21, 18, 20, 19, 20, 18]
8.449[21, 23, 19, 18, 19, 18, 20, 18]
8.465[20, 23, 20, 19, 19, 17, 19, 18]
8.487[21, 23, 21, 19, 20, 17, 18, 16]
8.518[19, 22, 20, 20, 19, 16, 17, 18]
8.525[18, 21, 20, 21, 21, 17, 15, 17]
8.547[18, 21, 20, 20, 20, 17, 16, 15]
8.569[16, 21, 21, 18, 20, 17, 16, 15]
8.586[17, 20, 20, 18, 20, 17, 16, 17]
8.607[17, 20, 20, 17, 20, 18, 16, 17]
8.629[17, 18, 19, 17, 18, 20, 18, 17]
8.645[18, 17, 18, 18, 20, 19, 19, 19]
8.667[19, 17, 18, 18, 20, 18, 18, 19]
8.689[19, 18, 20, 19, 18, 20, 18, 20]
8.712[19, 19, 22, 18, 20, 19, 21, 19]
8.727[19, 19, 23, 19, 21, 16, 21, 19]
8.749[19, 19, 23, 17, 21, 17, 20, 18]
8.772[18, 19, 23, 18, 20, 18, 20, 18]
8.787[17, 19, 21, 19, 21, 16, 20, 16]
8.809[20, 19, 22, 18, 18, 17, 20, 19]
8.832[19, 20, 22, 16, 19, 18, 19, 19]
8.847[21, 19, 22, 18, 19, 20, 20, 20]
8.885[21, 19, 22, 17, 21, 20, 19, 20]
8.892[21, 18, 22, 16, 21, 20, 20, 19]
8.907[19, 18, 21, 17, 20, 20, 19, 19]
8.929[20, 18, 20, 18, 19, 20, 18, 19]
8.952[19, 18, 21, 18, 17, 17, 18, 19]
8.967[19, 21, 22, 18, 16, 15, 18, 19]
8.989[17, 21, 21, 18, 19, 15, 16, 20]
9.012[19, 22, 22, 20, 20, 17, 15, 18]
9.027[17, 21, 21, 19, 21, 16, 16, 18]
9.049[17, 21, 19, 18, 21, 15, 17, 17]
9.072[16, 19, 16, 18, 20, 19, 17, 17]
9.087[18, 19, 17, 18, 18, 19, 17, 17]
9.11[18, 20, 15, 20, 17, 18, 19, 18]
9.141[17, 20, 16, 19, 17, 19, 19, 19]
9.147[18, 21, 18, 19, 20, 22, 19, 18]
9.169[18, 20, 18, 21, 22, 20, 19, 20]
9.192[17, 19, 17, 21, 21, 21, 22, 20]
9.207[17, 19, 17, 20, 22, 20, 22, 18]
9.229[17, 19, 20, 22, 20, 21, 22, 18]
9.252[19, 21, 18, 21, 17, 19, 22, 17]
9.267[20, 20, 19, 21, 17, 19, 22, 17]
9.289[20, 20, 21, 21, 18, 18, 20, 18]
9.312[20, 21, 21, 20, 17, 18, 18, 18]
9.327[21, 22, 18, 20, 20, 18, 19, 18]
9.349[18, 21, 19, 20, 21, 16, 19, 21]
9.372[18, 22, 20, 21, 20, 17, 20, 20]
9.387[17, 22, 20, 22, 20, 19, 21, 23]
9.409[18, 21, 19, 22, 19, 18, 21, 22]
9.432[19, 19, 21, 21, 18, 17, 23, 23]
9.447[18, 19, 19, 19, 17, 19, 21, 21]
9.469[17, 18, 19, 18, 17, 18, 21, 21]
9.492[20, 18, 19, 17, 19, 17, 21, 17]
9.507[17, 19, 21, 18, 22, 18, 20, 18]
9.529[17, 18, 21, 18, 21, 19, 18, 19]
9.552[20, 20, 21, 19, 22, 19, 19, 19]
9.567[20, 19, 20, 21, 24, 18, 18, 18]
9.589[20, 18, 20, 19, 23, 19, 17, 20]
9.612[23, 19, 21, 21, 21, 19, 18, 20]
9.635[21, 23, 21, 20, 21, 19, 18, 19]
9.649[20, 22, 22, 21, 20, 19, 17, 19]
9.672[20, 21, 22, 19, 19, 19, 16, 21]
9.696[20, 24, 22, 20, 18, 20, 16, 19]
9.709[19, 22, 21, 19, 19, 19, 16, 20]
9.732[20, 19, 20, 21, 20, 19, 17, 21]
9.755[19, 19, 19, 20, 19, 20, 17, 21]
9.769[20, 20, 19, 22, 18, 20, 17, 18]
9.8[20, 19, 18, 22, 20, 19, 20, 19]
9.815[19, 19, 18, 21, 18, 20, 22, 18]
9.829[19, 19, 21, 19, 19, 20, 21, 17]
9.853[20, 20, 20, 20, 21, 19, 22, 18]
9.875[17, 21, 21, 20, 22, 20, 24, 19]
9.889[18, 21, 24, 20, 21, 19, 22, 19]
9.913[19, 22, 24, 24, 37, 32, 22, 20]
9.935[21, 22, 24, 26, 62, 37, 26, 20]
9.95[21, 21, 24, 37, 65, 45, 25, 20]
9.972[27, 26, 35, 69, 108, 72, 36, 23]
9.996[35, 31, 45, 101, 130, 109, 51, 33]
10.009[37, 37, 52, 134, 143, 157, 62, 35]
10.04[49, 45, 57, 138, 139, 170, 77, 96]
10.055[60, 53, 65, 150, 145, 267, 137, 110]
10.069[90, 67, 69, 155, 154, 373, 186, 169]
10.092[104, 73, 71, 147, 184, 550, 202, 201]
10.115[111, 74, 67, 121, 187, 561, 241, 224]
10.129[145, 100, 83, 137, 237, 636, 309, 262]
10.152[175, 108, 85, 137, 278, 656, 357, 321]
10.176[187, 112, 93, 145, 339, 713, 440, 385]
10.189[231, 123, 98, 149, 341, 667, 581, 571]
10.213[264, 135, 104, 151, 382, 806, 635, 609]
10.236[274, 133, 116, 198, 413, 792, 660, 639]
10.257[287, 147, 129, 227, 421, 838, 667, 671]
10.273[283, 145, 127, 230, 410, 823, 685, 658]
10.295[277, 152, 129, 229, 406, 785, 582, 549]
10.309[256, 149, 132, 231, 369, 726, 534, 539]
10.332[263, 149, 118, 200, 398, 825, 543, 561]
10.355[266, 146, 111, 170, 407, 861, 590, 545]
10.369[267, 146, 107, 149, 377, 831, 515, 574]
10.393[242, 133, 101, 148, 379, 850, 558, 582]
10.431[245, 132, 96, 143, 391, 799, 672, 590]
10.432[213, 117, 87, 117, 301, 689, 662, 558]
10.452[172, 104, 79, 114, 278, 666, 656, 528]
10.482[163, 106, 84, 134, 302, 652, 674, 467]
10.49[157, 107, 88, 133, 317, 632, 639, 414]
10.513[139, 99, 81, 136, 314, 610, 554, 374]
10.535[138, 108, 90, 140, 316, 608, 518, 323]
10.558[136, 104, 89, 134, 307, 539, 529, 345]
10.572[130, 94, 83, 116, 276, 511, 509, 348]
10.595[128, 87, 76, 108, 237, 526, 502, 364]
10.617[131, 100, 85, 118, 259, 537, 483, 373]
10.64[125, 90, 76, 116, 261, 513, 507, 385]
10.655[120, 88, 70, 113, 268, 422, 502, 346]
10.678[123, 92, 71, 113, 270, 452, 542, 416]
10.7[124, 92, 70, 115, 268, 388, 546, 413]
10.715[116, 84, 73, 114, 246, 353, 543, 412]
10.745[112, 85, 79, 124, 255, 330, 558, 442]
10.754[117, 86, 87, 131, 240, 360, 501, 449]
10.775[106, 77, 84, 127, 224, 309, 460, 389]
10.805[94, 75, 86, 133, 237, 315, 490, 385]
10.812[105, 71, 78, 123, 226, 344, 464, 384]
10.835[110, 70, 72, 108, 208, 350, 499, 352]
10.858[117, 71, 68, 101, 179, 318, 527, 373]
10.873[118, 73, 67, 103, 175, 305, 523, 362]
10.895[124, 73, 62, 99, 170, 316, 523, 351]
10.917[115, 69, 61, 99, 171, 277, 533, 335]
10.933[108, 73, 63, 99, 173, 244, 470, 313]
10.955[98, 74, 64, 94, 171, 239, 408, 273]
10.977[103, 75, 63, 86, 170, 244, 439, 305]
10.992[100, 72, 61, 80, 153, 238, 426, 292]
11.022[120, 74, 66, 87, 152, 286, 462, 307]
11.037[124, 69, 65, 84, 155, 298, 442, 305]
11.06[120, 67, 64, 86, 158, 328, 518, 311]
11.082[120, 76, 75, 92, 168, 353, 495, 283]
11.097[121, 79, 78, 93, 166, 357, 469, 278]
11.112[107, 80, 76, 86, 164, 340, 446, 309]
11.135[107, 84, 77, 90, 160, 353, 467, 322]
11.157[105, 82, 77, 90, 163, 346, 401, 326]
11.172[98, 74, 69, 89, 156, 323, 379, 323]
11.195[93, 73, 67, 87, 160, 301, 392, 328]
11.217[83, 73, 67, 81, 159, 367, 415, 277]
11.232[83, 74, 65, 77, 140, 347, 370, 267]
11.255[85, 72, 62, 80, 133, 326, 355, 262]
11.278[84, 69, 59, 80, 158, 368, 393, 254]
11.293[91, 73, 63, 85, 159, 374, 430, 285]
11.315[97, 67, 61, 89, 151, 282, 426, 305]
11.337[91, 64, 63, 91, 155, 289, 440, 290]
11.352[85, 59, 62, 85, 154, 290, 428, 275]
11.375[82, 61, 62, 82, 138, 236, 406, 278]
11.397[79, 57, 58, 78, 133, 228, 398, 271]
11.421[84, 68, 60, 73, 128, 248, 368, 297]
11.435[84, 65, 55, 72, 130, 236, 386, 310]
11.458[86, 68, 52, 68, 136, 281, 415, 315]
11.472[93, 69, 51, 69, 127, 280, 411, 317]
11.495[94, 71, 51, 69, 129, 289, 373, 275]
11.518[81, 58, 44, 66, 124, 287, 346, 207]
11.541[87, 58, 45, 69, 145, 326, 353, 195]
11.555[80, 53, 45, 69, 140, 323, 350, 174]
11.577[78, 55, 47, 66, 139, 328, 344, 158]
11.6[71, 51, 46, 70, 145, 333, 352, 175]
11.615[77, 73, 69, 90, 156, 326, 337, 164]
11.637[74, 78, 70, 85, 135, 298, 303, 165]
11.66[79, 80, 73, 86, 141, 267, 293, 201]
11.682[78, 77, 71, 84, 139, 243, 302, 244]
11.697[81, 77, 70, 82, 150, 220, 291, 253]
11.72[79, 60, 51, 72, 167, 238, 295, 260]
11.742[76, 53, 48, 74, 169, 264, 303, 253]
11.757[79, 51, 47, 72, 167, 263, 282, 246]
11.787[85, 53, 48, 73, 169, 270, 269, 229]
11.796[92, 57, 56, 79, 161, 295, 258, 251]
11.817[113, 60, 55, 76, 148, 292, 294, 306]
11.839[119, 63, 58, 78, 148, 272, 290, 362]
11.856[120, 68, 62, 81, 145, 281, 297, 365]
11.877[116, 67, 64, 87, 144, 322, 319, 385]
11.899[117, 69, 60, 79, 145, 339, 357, 378]
11.916[101, 65, 58, 76, 127, 342, 342, 349]
11.937[95, 65, 59, 74, 128, 374, 355, 309]
11.961[91, 60, 54, 71, 141, 376, 337, 293]
11.982[94, 63, 54, 73, 168, 374, 336, 285]
11.997[94, 60, 54, 74, 161, 358, 305, 296]
12.019[91, 62, 61, 77, 165, 357, 329, 310]
12.036[90, 61, 58, 74, 161, 350, 384, 302]
12.064[106, 67, 60, 77, 163, 362, 448, 333]
12.088[108, 67, 63, 76, 170, 375, 519, 325]
12.096[98, 64, 60, 75, 199, 393, 537, 335]
12.133[124, 71, 60, 85, 246, 597, 537, 417]
12.139[144, 78, 64, 98, 285, 626, 491, 448]
12.156[138, 75, 65, 100, 309, 680, 481, 447]
12.177[136, 75, 63, 98, 314, 681, 410, 454]
12.199[140, 89, 77, 111, 327, 684, 387, 461]
12.216[116, 83, 72, 102, 307, 518, 381, 367]
12.238[98, 78, 71, 96, 276, 490, 404, 352]
12.261[101, 79, 73, 101, 269, 442, 417, 342]
12.275[99, 85, 79, 107, 242, 458, 444, 355]
12.304[101, 79, 74, 99, 208, 448, 509, 324]
12.319[99, 80, 73, 100, 200, 449, 490, 330]
12.343[91, 78, 72, 102, 207, 441, 514, 321]
12.357[95, 81, 71, 94, 172, 401, 480, 306]
12.379[103, 76, 64, 96, 184, 349, 443, 258]
12.396[110, 76, 64, 92, 191, 352, 393, 271]
12.417[118, 80, 65, 92, 182, 337, 413, 259]
12.439[121, 82, 67, 92, 195, 368, 438, 265]
12.463[125, 89, 74, 93, 210, 383, 461, 292]
12.478[127, 101, 79, 89, 217, 423, 493, 285]
12.499[120, 101, 79, 93, 213, 461, 523, 318]
12.53[115, 96, 79, 94, 225, 479, 534, 358]
12.537[115, 93, 75, 89, 210, 437, 500, 366]
12.559[111, 83, 68, 93, 209, 418, 499, 386]
12.582[97, 64, 58, 87, 197, 359, 481, 388]
12.597[95, 53, 51, 83, 193, 278, 443, 377]
12.621[102, 59, 49, 83, 183, 277, 438, 370]
12.644[99, 64, 57, 86, 173, 268, 398, 392]
12.657[93, 65, 59, 87, 169, 262, 360, 365]
12.687[110, 73, 61, 87, 166, 299, 347, 387]
12.702[107, 77, 63, 89, 161, 324, 426, 361]
12.724[105, 75, 65, 88, 155, 318, 402, 336]
12.755[120, 77, 61, 91, 191, 374, 449, 391]
12.762[118, 74, 56, 82, 179, 420, 462, 395]
12.777[122, 80, 63, 88, 191, 419, 469, 381]
12.799[123, 82, 67, 85, 190, 403, 383, 410]
12.83[120, 90, 73, 87, 192, 393, 393, 417]
12.838[117, 95, 80, 92, 168, 369, 335, 320]
12.867[128, 103, 85, 102, 191, 341, 350, 370]
12.881[119, 104, 84, 101, 182, 342, 398, 360]
12.897[116, 101, 84, 102, 176, 341, 415, 328]
12.921[120, 104, 83, 102, 182, 337, 438, 318]
12.943[117, 99, 80, 97, 177, 346, 467, 308]
12.957[107, 93, 74, 90, 171, 342, 454, 266]
12.979[106, 89, 80, 102, 186, 375, 417, 271]
13.01[103, 88, 76, 101, 190, 363, 404, 256]
13.024[102, 80, 71, 101, 185, 375, 378, 264]
13.039[97, 76, 69, 101, 203, 342, 355, 271]
13.062[96, 80, 77, 105, 190, 338, 368, 283]
13.077[92, 71, 67, 94, 206, 300, 358, 283]
13.099[95, 68, 64, 93, 213, 307, 358, 282]
13.13[95, 63, 62, 90, 214, 309, 358, 282]
13.144[105, 79, 76, 100, 214, 345, 367, 299]
13.159[99, 72, 67, 94, 223, 341, 325, 260]
13.182[103, 69, 64, 88, 188, 338, 374, 290]
13.198[104, 73, 69, 98, 195, 330, 370, 291]
13.219[103, 78, 75, 102, 195, 322, 396, 309]
13.242[82, 61, 59, 90, 183, 283, 400, 281]
13.257[88, 67, 67, 98, 197, 363, 440, 280]
13.279[87, 72, 71, 102, 198, 366, 387, 255]
13.303[88, 76, 72, 99, 188, 374, 398, 274]
13.317[93, 76, 74, 104, 191, 356, 392, 253]
13.339[98, 80, 76, 106, 179, 350, 416, 275]
13.362[102, 82, 74, 99, 143, 283, 389, 257]
13.377[98, 86, 77, 100, 150, 271, 391, 239]
13.399[92, 84, 76, 102, 156, 278, 388, 257]
13.422[106, 89, 77, 98, 179, 348, 398, 270]
13.444[103, 84, 73, 95, 189, 351, 345, 253]
13.459[108, 85, 73, 98, 196, 398, 371, 275]
13.481[108, 78, 66, 92, 206, 411, 361, 289]
13.504[110, 79, 68, 85, 194, 403, 367, 261]
13.519[94, 68, 57, 75, 159, 366, 353, 232]
13.541[113, 71, 61, 85, 155, 377, 374, 277]
13.564[100, 61, 54, 75, 143, 303, 336, 258]
13.581[103, 65, 57, 83, 123, 267, 332, 261]
13.602[107, 60, 50, 87, 144, 279, 303, 244]
13.624[106, 66, 59, 103, 185, 301, 302, 247]
13.648[97, 62, 58, 96, 185, 287, 355, 193]
13.662[99, 69, 64, 101, 188, 296, 361, 221]
13.684[93, 65, 62, 94, 184, 308, 357, 247]
13.699[88, 63, 60, 86, 166, 284, 376, 251]
13.722[85, 58, 54, 65, 112, 238, 358, 249]
13.753[72, 57, 50, 58, 102, 229, 266, 256]
13.759[77, 53, 46, 57, 94, 212, 287, 245]
13.782[82, 60, 56, 67, 118, 248, 342, 248]
13.804[80, 60, 57, 67, 115, 254, 325, 247]
13.819[85, 63, 57, 69, 130, 271, 320, 246]
13.842[90, 64, 57, 69, 127, 275, 356, 232]
13.864[85, 64, 58, 69, 131, 286, 328, 223]
13.879[87, 62, 57, 70, 127, 245, 280, 214]
13.902[97, 70, 62, 79, 134, 262, 277, 224]
13.933[100, 75, 68, 90, 140, 255, 297, 234]
13.939[98, 74, 70, 91, 139, 253, 265, 236]
13.962[96, 72, 65, 87, 145, 246, 301, 240]
13.984[93, 71, 59, 82, 149, 254, 323, 216]
14.007[95, 66, 55, 77, 145, 242, 350, 212]
14.022[86, 61, 46, 65, 132, 227, 319, 200]
14.044[83, 59, 42, 66, 134, 218, 322, 200]
14.059[84, 60, 44, 68, 125, 208, 291, 209]
14.082[78, 53, 42, 65, 114, 201, 292, 199]
14.105[73, 54, 52, 75, 155, 235, 335, 259]
14.119[74, 48, 50, 74, 157, 275, 362, 262]
14.142[80, 54, 54, 76, 156, 278, 374, 273]
14.164[81, 53, 55, 78, 154, 268, 371, 258]
14.181[85, 59, 60, 84, 153, 266, 403, 255]
14.202[108, 61, 53, 78, 118, 261, 366, 252]
14.225[109, 64, 55, 76, 112, 218, 356, 247]
14.239[108, 64, 55, 75, 113, 228, 343, 240]
14.261[110, 65, 54, 74, 112, 252, 336, 250]
14.284[115, 64, 54, 74, 112, 259, 380, 296]
14.307[96, 64, 54, 76, 115, 230, 377, 253]
14.322[100, 65, 55, 82, 130, 250, 398, 264]
14.344[96, 64, 53, 79, 130, 261, 402, 251]
14.368[92, 61, 53, 76, 127, 247, 427, 233]
14.382[83, 64, 51, 68, 109, 240, 361, 160]
14.413[78, 60, 52, 65, 95, 246, 374, 209]
14.428[67, 57, 50, 59, 78, 235, 340, 218]
14.441[66, 54, 48, 55, 72, 207, 329, 223]
14.464[63, 51, 44, 54, 71, 192, 302, 225]
14.495[61, 44, 41, 47, 69, 164, 267, 224]
14.502[57, 44, 36, 43, 66, 160, 216, 166]
14.524[58, 47, 41, 50, 87, 164, 287, 203]
14.547[61, 51, 45, 60, 108, 171, 298, 224]
14.562[62, 56, 51, 66, 112, 184, 317, 226]
14.584[65, 61, 54, 74, 121, 197, 350, 232]
14.608[66, 63, 56, 76, 124, 185, 387, 263]
14.622[69, 69, 61, 86, 115, 160, 334, 232]
14.644[69, 73, 63, 90, 105, 155, 348, 217]
14.667[71, 70, 61, 91, 112, 176, 379, 239]
14.69[72, 67, 60, 89, 110, 203, 363, 265]
14.704[75, 70, 66, 97, 127, 240, 343, 275]
14.727[76, 63, 59, 85, 125, 249, 346, 280]
14.742[77, 58, 55, 77, 126, 263, 345, 286]
14.764[80, 61, 56, 76, 128, 253, 290, 277]
14.788[80, 61, 54, 73, 123, 233, 290, 255]
14.802[73, 54, 45, 59, 105, 191, 297, 210]
14.824[67, 56, 45, 57, 94, 176, 304, 186]
14.847[64, 54, 47, 59, 93, 217, 279, 192]
14.87[58, 49, 42, 57, 86, 217, 345, 178]
14.885[63, 49, 47, 67, 99, 224, 402, 206]
14.907[77, 55, 53, 71, 108, 257, 374, 228]
14.921[93, 52, 51, 73, 116, 282, 400, 247]
14.944[98, 51, 51, 73, 118, 263, 445, 255]
14.967[102, 63, 57, 75, 115, 262, 399, 255]
14.99[99, 64, 55, 69, 113, 274, 384, 225]
15.004[92, 61, 51, 68, 110, 252, 409, 200]
15.035[75, 62, 54, 69, 108, 244, 442, 189]
15.041[69, 64, 53, 66, 100, 215, 402, 175]
15.072[70, 55, 46, 60, 98, 238, 489, 183]
15.087[67, 54, 46, 60, 95, 218, 454, 188]
15.102[65, 51, 48, 63, 95, 237, 441, 194]
15.125[77, 58, 50, 68, 112, 245, 438, 279]
15.148[75, 55, 49, 69, 115, 250, 429, 272]
15.162[72, 58, 54, 72, 124, 249, 322, 279]
15.185[79, 59, 55, 75, 129, 253, 310, 319]
15.207[82, 62, 55, 76, 129, 237, 324, 333]
15.222[83, 62, 56, 71, 115, 217, 289, 285]
15.245[91, 65, 59, 75, 113, 210, 308, 312]
15.267[98, 63, 57, 73, 105, 171, 319, 316]
15.29[94, 63, 57, 69, 91, 165, 336, 270]
15.305[94, 58, 53, 60, 82, 179, 360, 266]
15.327[94, 56, 49, 63, 84, 197, 374, 261]
15.35[88, 56, 48, 61, 80, 218, 371, 220]
15.365[87, 58, 49, 64, 86, 228, 376, 207]
15.387[90, 60, 45, 61, 87, 224, 374, 212]
15.41[92, 63, 49, 66, 101, 230, 364, 229]
15.425[96, 69, 60, 74, 109, 232, 396, 263]
15.447[96, 73, 61, 73, 116, 231, 422, 273]
15.47[88, 70, 58, 70, 111, 245, 411, 268]
15.485[83, 66, 58, 71, 112, 245, 405, 278]
15.507[79, 65, 57, 74, 122, 237, 390, 283]
15.53[70, 58, 45, 65, 115, 216, 313, 267]
15.545[67, 52, 45, 63, 112, 206, 291, 273]
15.567[72, 53, 46, 66, 109, 215, 358, 275]
15.59[75, 58, 51, 66, 111, 248, 354, 265]
15.605[78, 59, 49, 60, 97, 283, 440, 255]
15.627[73, 54, 48, 59, 96, 306, 439, 217]
15.65[72, 54, 46, 58, 96, 311, 425, 209]
15.665[69, 51, 46, 55, 99, 311, 416, 218]
15.688[68, 49, 44, 59, 101, 286, 424, 229]
15.71[69, 50, 47, 59, 98, 272, 345, 212]
15.725[77, 53, 49, 61, 99, 249, 360, 240]
15.747[82, 60, 54, 71, 117, 252, 411, 248]
15.77[78, 60, 53, 73, 118, 230, 364, 238]
15.785[80, 58, 52, 72, 120, 243, 362, 245]
15.808[78, 61, 52, 71, 129, 211, 336, 253]
15.83[79, 61, 53, 69, 127, 233, 365, 253]
15.845[75, 56, 47, 57, 105, 227, 330, 231]
15.867[81, 60, 48, 55, 100, 228, 342, 242]
15.89[81, 63, 53, 54, 100, 213, 361, 229]
15.904[81, 58, 48, 53, 86, 248, 415, 210]
15.927[74, 54, 44, 49, 82, 239, 383, 165]
15.95[72, 57, 47, 51, 81, 234, 372, 174]
15.964[70, 56, 50, 59, 86, 226, 390, 177]
15.988[68, 53, 48, 58, 83, 234, 363, 185]
16.01[65, 57, 50, 58, 80, 189, 305, 206]
16.024[73, 64, 57, 66, 90, 165, 316, 226]
16.048[72, 59, 55, 67, 100, 174, 301, 238]
16.077[76, 61, 54, 63, 109, 193, 274, 229]
16.084[78, 63, 55, 61, 105, 225, 321, 218]
16.115[81, 66, 57, 68, 110, 231, 321, 188]
16.13[72, 58, 49, 59, 100, 241, 276, 173]
16.144[73, 60, 49, 55, 98, 252, 280, 160]
16.167[75, 62, 50, 54, 88, 267, 326, 155]
16.19[77, 68, 54, 62, 98, 251, 310, 156]
16.204[83, 66, 51, 54, 96, 250, 322, 158]
16.227[84, 68, 55, 59, 106, 255, 335, 183]
16.25[87, 72, 59, 66, 104, 239, 390, 178]
16.273[85, 71, 61, 74, 113, 234, 387, 214]
16.288[81, 62, 57, 69, 106, 215, 372, 223]
16.31[69, 62, 59, 75, 113, 214, 416, 227]
16.332[66, 61, 57, 72, 103, 204, 428, 199]
16.347[68, 58, 54, 68, 109, 213, 381, 213]
16.37[61, 52, 50, 60, 105, 189, 337, 179]
16.393[65, 57, 50, 60, 108, 219, 384, 201]
16.408[68, 55, 45, 53, 118, 266, 327, 205]
16.43[75, 56, 47, 57, 122, 268, 312, 232]
16.452[73, 57, 46, 59, 112, 257, 323, 231]
16.467[74, 58, 45, 56, 108, 260, 334, 223]
16.497[73, 59, 50, 64, 110, 241, 310, 189]
16.512[75, 62, 51, 65, 92, 202, 342, 180]
16.527[82, 65, 49, 61, 91, 190, 357, 157]
16.55[78, 60, 50, 64, 104, 215, 359, 171]
16.572[91, 66, 54, 69, 114, 221, 355, 214]
16.587[94, 66, 52, 66, 111, 210, 328, 241]
16.61[96, 72, 59, 75, 131, 244, 322, 249]
16.633[95, 73, 60, 84, 142, 259, 300, 251]
16.647[100, 79, 61, 82, 142, 258, 318, 241]
16.67[90, 77, 64, 88, 145, 278, 336, 235]
16.692[95, 77, 62, 89, 151, 304, 362, 211]
16.708[94, 69, 59, 84, 146, 283, 375, 232]
16.737[91, 67, 63, 89, 151, 287, 418, 259]
16.752[88, 63, 60, 86, 148, 273, 442, 248]
16.769[90, 63, 56, 83, 145, 243, 457, 229]
16.791[83, 62, 55, 77, 137, 233, 440, 247]
16.812[77, 59, 53, 77, 127, 225, 474, 229]
16.828[82, 63, 52, 67, 108, 208, 450, 252]
16.851[82, 61, 52, 69, 108, 196, 425, 266]
16.879[75, 56, 51, 62, 97, 226, 408, 256]
16.888[82, 58, 51, 65, 109, 252, 411, 263]
16.911[93, 65, 54, 61, 105, 264, 337, 266]
16.932[103, 63, 50, 59, 104, 268, 323, 305]
16.948[107, 69, 53, 65, 113, 277, 320, 328]
16.969[115, 73, 52, 64, 111, 259, 334, 367]
16.992[113, 70, 55, 66, 100, 235, 329, 365]
17.008[104, 63, 51, 68, 100, 225, 396, 365]
17.037[87, 63, 53, 70, 105, 219, 425, 292]
17.052[83, 58, 49, 63, 93, 259, 418, 261]
17.068[85, 65, 53, 66, 98, 277, 445, 239]
17.089[80, 63, 51, 69, 107, 266, 442, 230]
17.111[91, 75, 60, 75, 120, 278, 421, 233]
17.128[91, 77, 60, 72, 122, 302, 405, 244]
17.157[93, 80, 67, 78, 124, 276, 407, 277]
17.171[85, 69, 61, 75, 121, 250, 340, 253]
17.194[92, 75, 66, 75, 120, 280, 419, 264]
17.209[85, 68, 58, 68, 106, 270, 399, 260]
17.231[86, 60, 54, 67, 103, 257, 382, 265]
17.255[88, 59, 50, 64, 119, 319, 448, 372]
17.269[91, 62, 54, 74, 140, 343, 471, 376]
17.291[87, 60, 50, 69, 136, 312, 399, 362]
17.314[111, 62, 52, 70, 134, 307, 403, 428]
17.329[113, 70, 58, 71, 131, 301, 417, 421]
17.359[112, 67, 56, 69, 115, 223, 351, 307]
17.374[117, 73, 63, 79, 113, 216, 409, 320]
17.397[118, 69, 62, 81, 117, 262, 437, 328]
17.419[97, 68, 63, 81, 122, 261, 427, 246]
17.434[95, 65, 64, 86, 134, 271, 433, 250]
17.449[93, 69, 67, 90, 141, 314, 456, 249]
17.471[86, 65, 60, 76, 121, 298, 406, 232]
17.494[86, 69, 62, 79, 125, 293, 393, 233]
17.509[80, 66, 61, 84, 124, 304, 386, 220]
17.539[83, 63, 58, 81, 110, 294, 408, 247]
17.554[88, 66, 60, 82, 115, 256, 367, 251]
17.569[84, 61, 59, 80, 115, 270, 368, 239]
17.592[78, 58, 58, 76, 102, 230, 387, 230]
17.614[79, 61, 63, 73, 108, 295, 369, 233]
17.629[73, 65, 66, 83, 124, 290, 334, 203]
17.652[63, 62, 64, 77, 108, 273, 359, 184]
17.674[65, 64, 64, 80, 111, 285, 332, 193]
17.689[71, 72, 74, 95, 123, 304, 300, 223]
17.711[79, 73, 70, 95, 120, 222, 304, 218]
17.742[87, 73, 69, 86, 107, 240, 361, 232]
17.749[88, 72, 69, 87, 108, 267, 331, 236]
17.771[93, 73, 72, 90, 107, 243, 353, 246]
17.794[84, 63, 58, 74, 103, 230, 367, 213]
17.809[84, 58, 55, 71, 100, 232, 366, 233]
17.831[76, 53, 48, 68, 123, 229, 292, 224]
17.854[76, 48, 45, 67, 129, 212, 309, 242]
17.87[83, 50, 40, 60, 128, 202, 292, 245]
17.891[90, 49, 39, 55, 117, 202, 310, 271]
17.914[84, 54, 45, 55, 113, 203, 312, 248]
17.929[84, 54, 45, 56, 92, 204, 368, 239]
17.952[79, 54, 47, 56, 87, 208, 389, 225]
17.974[69, 49, 46, 59, 87, 217, 386, 204]
17.989[71, 63, 58, 73, 107, 222, 397, 173]
18.011[78, 61, 53, 73, 114, 215, 419, 218]
18.034[104, 80, 69, 86, 134, 268, 454, 264]
18.049[113, 82, 68, 88, 133, 263, 441, 274]
18.071[118, 82, 70, 88, 139, 261, 456, 310]
18.094[117, 75, 63, 79, 130, 295, 440, 323]
18.109[120, 79, 69, 81, 127, 299, 450, 318]
18.131[100, 65, 58, 71, 111, 234, 374, 287]
18.154[92, 66, 58, 68, 108, 221, 359, 272]
18.176[98, 83, 71, 86, 139, 266, 397, 272]
18.192[98, 81, 70, 86, 139, 237, 409, 273]
18.214[89, 80, 70, 90, 162, 246, 368, 245]
18.237[95, 76, 67, 85, 156, 309, 388, 250]
18.252[96, 74, 68, 89, 158, 329, 417, 270]
18.274[85, 56, 54, 69, 130, 316, 374, 249]
18.297[91, 58, 55, 75, 130, 317, 383, 259]
18.311[89, 52, 48, 67, 101, 317, 414, 251]
18.334[89, 52, 47, 66, 101, 264, 407, 273]
18.356[89, 51, 44, 65, 110, 290, 441, 253]
18.372[90, 49, 41, 62, 103, 277, 431, 245]
18.402[95, 56, 44, 60, 111, 268, 415, 236]
18.417[95, 60, 46, 63, 117, 264, 386, 245]
18.431[90, 59, 44, 62, 119, 264, 366, 217]
18.455[90, 62, 46, 57, 107, 228, 313, 210]
18.477[92, 63, 48, 59, 108, 208, 322, 240]
18.492[81, 54, 43, 57, 99, 208, 309, 221]
18.514[81, 55, 47, 57, 96, 223, 330, 214]
18.537[74, 52, 47, 58, 95, 215, 344, 196]
18.551[78, 51, 47, 59, 91, 219, 381, 211]
18.575[73, 51, 46, 58, 88, 246, 383, 168]
18.596[72, 57, 50, 57, 86, 229, 358, 174]
18.611[74, 52, 47, 62, 86, 210, 374, 185]
18.634[83, 57, 50, 61, 83, 229, 368, 190]
18.657[76, 54, 50, 64, 92, 205, 317, 182]
18.68[79, 57, 54, 77, 118, 182, 348, 175]
18.694[84, 58, 53, 80, 131, 218, 401, 165]
18.717[82, 61, 51, 78, 130, 253, 372, 147]
18.732[83, 63, 56, 92, 159, 241, 394, 148]
18.754[84, 62, 55, 93, 170, 259, 378, 151]
18.785[82, 64, 51, 82, 154, 272, 412, 145]
18.791[77, 60, 48, 79, 141, 257, 369, 181]
18.823[81, 57, 50, 79, 141, 254, 365, 211]
18.837[77, 56, 42, 64, 112, 276, 360, 213]
18.853[77, 56, 42, 62, 95, 292, 389, 213]
18.874[90, 58, 52, 77, 111, 285, 332, 254]
18.896[85, 56, 51, 74, 112, 281, 323, 229]
18.912[84, 56, 50, 73, 120, 264, 405, 220]
18.934[84, 59, 51, 72, 113, 248, 443, 223]
18.956[88, 61, 51, 69, 113, 253, 477, 237]
18.972[73, 58, 44, 60, 118, 252, 504, 248]
18.994[79, 59, 45, 60, 115, 283, 505, 257]
19.025[79, 63, 46, 54, 108, 295, 506, 246]
19.031[82, 56, 45, 53, 106, 308, 468, 264]
19.054[90, 61, 51, 57, 101, 278, 415, 278]
19.092[85, 57, 47, 49, 74, 269, 361, 237]
19.1[83, 57, 51, 51, 77, 246, 357, 244]
19.13[81, 55, 52, 59, 75, 224, 275, 266]
19.137[77, 62, 54, 65, 84, 201, 282, 244]
19.16[64, 57, 50, 65, 95, 210, 295, 221]
19.174[73, 64, 57, 68, 107, 254, 301, 230]
19.197[73, 65, 56, 72, 106, 253, 302, 208]
19.22[71, 62, 52, 66, 99, 256, 298, 182]
19.234[64, 51, 48, 60, 91, 250, 284, 176]
19.257[94, 55, 48, 59, 90, 261, 271, 161]
19.279[94, 51, 42, 59, 84, 233, 317, 189]
19.294[92, 49, 45, 55, 94, 249, 327, 195]
19.317[98, 51, 47, 53, 100, 236, 377, 215]
19.34[105, 58, 50, 53, 101, 237, 377, 219]
19.354[92, 56, 52, 53, 110, 214, 377, 231]
19.377[85, 52, 50, 48, 107, 193, 335, 196]
19.4[93, 54, 48, 49, 107, 200, 381, 229]
19.414[93, 55, 47, 52, 103, 225, 366, 232]
19.437[90, 54, 47, 59, 113, 255, 412, 267]
19.46[75, 48, 40, 56, 93, 260, 404, 253]
19.474[95, 56, 43, 61, 93, 271, 417, 303]
19.497[91, 54, 43, 62, 87, 254, 387, 273]
19.52[83, 50, 42, 59, 92, 240, 357, 254]
19.534[89, 50, 40, 57, 86, 211, 299, 225]
19.557[119, 63, 46, 59, 99, 272, 365, 305]
19.58[108, 56, 45, 54, 100, 261, 357, 258]
19.602[106, 55, 41, 49, 95, 241, 348, 275]
19.617[107, 55, 41, 49, 86, 238, 345, 277]
19.64[97, 50, 40, 57, 81, 247, 334, 265]
19.654[53, 47, 73, 177, 144, 178, 245, 162]
19.685[45, 53, 78, 220, 150, 173, 211, 146]
19.7[43, 54, 83, 240, 157, 166, 174, 103]
19.714[47, 67, 111, 321, 179, 150, 156, 75]
19.737[49, 69, 117, 408, 239, 117, 126, 72]
19.76[59, 82, 142, 498, 288, 111, 122, 64]
19.774[62, 86, 152, 506, 299, 113, 123, 63]
19.796[63, 92, 167, 534, 312, 115, 119, 57]
19.821[61, 93, 166, 529, 323, 108, 87, 51]
19.834[70, 113, 198, 543, 370, 125, 88, 58]
19.857[63, 102, 171, 434, 310, 103, 76, 51]
19.88[60, 98, 163, 415, 298, 97, 66, 51]
19.894[55, 91, 147, 381, 282, 91, 62, 48]
19.916[51, 82, 130, 328, 254, 82, 52, 44]
19.94[32, 48, 64, 168, 81, 40, 30, 29]
19.962[29, 40, 56, 159, 69, 35, 26, 28]
19.976[24, 31, 42, 134, 51, 31, 23, 23]
20.0[23, 26, 31, 90, 35, 25, 19, 22]
20.014[19, 22, 29, 70, 30, 21, 17, 20]
20.037[18, 22, 25, 63, 26, 20, 17, 20]
20.061[17, 23, 23, 55, 24, 22, 21, 19]
20.082[18, 22, 22, 39, 23, 19, 21, 18]
20.096[18, 19, 22, 28, 23, 19, 22, 18]
20.12[18, 22, 20, 25, 22, 20, 24, 15]
20.142[17, 22, 20, 24, 20, 20, 24, 15]
20.156[19, 22, 20, 24, 18, 20, 21, 14]
20.18[18, 21, 21, 23, 18, 22, 24, 16]
20.202[20, 24, 19, 21, 17, 21, 23, 17]
20.216[21, 22, 21, 21, 18, 20, 20, 18]
20.24[20, 21, 22, 21, 20, 20, 22, 17]
20.262[19, 22, 21, 20, 21, 20, 21, 18]
20.276[20, 22, 21, 20, 21, 19, 20, 19]
20.3[17, 21, 21, 18, 21, 20, 21, 19]
20.322[18, 19, 19, 18, 21, 20, 22, 20]
20.345[18, 19, 18, 19, 19, 20, 21, 19]
20.36[23, 21, 20, 27, 23, 22, 22, 20]
20.382[23, 23, 23, 29, 24, 21, 21, 19]
20.397[24, 22, 23, 31, 25, 22, 21, 19]
20.42[25, 22, 25, 32, 27, 22, 20, 20]
20.443[26, 22, 25, 32, 27, 23, 20, 21]
20.456[22, 20, 24, 25, 24, 20, 19, 23]
20.48[21, 18, 23, 23, 23, 19, 21, 23]
20.502[22, 20, 23, 21, 24, 20, 20, 21]
20.517[22, 20, 19, 18, 21, 20, 20, 21]
20.54[21, 19, 20, 18, 20, 21, 20, 23]
20.562[20, 20, 21, 19, 22, 21, 20, 21]
20.576[21, 19, 18, 18, 21, 21, 17, 20]
20.6[19, 18, 19, 17, 21, 18, 17, 22]
20.622[18, 18, 19, 19, 20, 20, 18, 22]
20.637[17, 19, 19, 21, 22, 18, 17, 21]
20.66[18, 18, 17, 21, 20, 18, 18, 21]
20.682[18, 19, 18, 22, 21, 19, 18, 21]
20.696[19, 18, 17, 23, 20, 19, 18, 19]
20.727[18, 18, 18, 23, 23, 20, 18, 18]
20.742[20, 18, 17, 20, 22, 20, 18, 17]
20.757[19, 18, 18, 19, 22, 20, 19, 16]
20.78[19, 16, 18, 21, 23, 21, 20, 17]
20.802[20, 18, 18, 21, 23, 21, 20, 18]
20.816[21, 17, 18, 21, 22, 19, 19, 18]
20.84[19, 18, 18, 20, 23, 19, 19, 19]
20.862[20, 19, 18, 23, 23, 20, 20, 19]
20.877[21, 21, 17, 21, 25, 17, 18, 18]
20.9[19, 20, 19, 21, 26, 17, 18, 18]
20.922[21, 21, 20, 23, 26, 18, 18, 19]
20.937[23, 21, 19, 24, 26, 18, 19, 20]
20.967[22, 20, 21, 23, 27, 18, 18, 20]
20.982[21, 21, 22, 23, 25, 20, 19, 20]
21.005[21, 21, 20, 23, 24, 18, 19, 20]
21.02[18, 20, 20, 22, 23, 19, 19, 22]
21.042[16, 21, 19, 21, 22, 18, 20, 20]
21.072[18, 23, 18, 19, 18, 18, 18, 20]
21.08[17, 22, 19, 19, 19, 18, 19, 19]
21.11[17, 21, 19, 20, 21, 19, 18, 18]
21.132[18, 23, 19, 20, 21, 19, 18, 14]
21.14[19, 21, 20, 20, 21, 18, 17, 13]
21.162[18, 19, 20, 20, 22, 20, 17, 13]
21.185[18, 19, 19, 23, 22, 19, 19, 14]
21.201[20, 19, 18, 20, 22, 20, 19, 15]
21.222[20, 17, 18, 20, 24, 18, 20, 18]
21.245[19, 19, 18, 20, 24, 21, 20, 19]
21.26[20, 20, 16, 20, 24, 19, 22, 19]
21.282[20, 20, 15, 17, 22, 20, 19, 19]
21.305[19, 22, 16, 17, 21, 21, 20, 20]
21.32[19, 23, 16, 15, 17, 22, 19, 18]
21.35[18, 21, 17, 15, 17, 20, 18, 19]
21.365[18, 21, 19, 16, 16, 22, 19, 18]
21.387[19, 22, 22, 17, 16, 21, 20, 17]
21.402[20, 20, 20, 18, 18, 18, 20, 17]
21.425[20, 20, 21, 21, 19, 17, 20, 17]
21.44[20, 20, 20, 21, 19, 20, 20, 17]
21.462[20, 20, 20, 20, 19, 22, 19, 20]
21.485[19, 20, 19, 22, 20, 21, 19, 21]
21.499[19, 20, 19, 23, 21, 23, 18, 22]
21.522[18, 19, 20, 22, 21, 23, 19, 21]
21.545[18, 20, 20, 21, 21, 22, 18, 20]
21.559[18, 19, 20, 22, 23, 20, 18, 17]
21.582[17, 18, 18, 18, 22, 22, 19, 18]
21.605[16, 20, 19, 18, 19, 21, 19, 19]
21.628[18, 19, 19, 20, 19, 20, 19, 18]
21.643[18, 19, 20, 20, 19, 21, 21, 20]
21.664[19, 18, 18, 19, 19, 20, 20, 22]
21.686[21, 18, 19, 20, 21, 19, 19, 21]
21.703[23, 16, 18, 19, 21, 20, 20, 18]
21.725[23, 16, 19, 19, 21, 22, 21, 18]
21.746[22, 16, 17, 19, 22, 20, 20, 17]
21.763[21, 15, 20, 20, 20, 20, 20, 16]
21.784[21, 16, 19, 20, 19, 20, 21, 17]
21.806[18, 17, 21, 20, 20, 19, 21, 17]
21.823[16, 19, 20, 19, 20, 17, 23, 18]
21.844[18, 19, 22, 20, 21, 17, 24, 18]
21.867[18, 21, 21, 20, 22, 17, 24, 19]
21.883[17, 20, 22, 19, 22, 17, 23, 20]
21.906[17, 20, 20, 19, 21, 18, 23, 20]
21.926[19, 17, 20, 18, 21, 19, 19, 20]
21.943[18, 17, 20, 18, 21, 18, 24, 22]
21.971[18, 17, 18, 19, 20, 19, 26, 25]
21.986[18, 16, 21, 20, 21, 20, 27, 25]
22.011[18, 18, 22, 21, 19, 20, 28, 25]
22.024[17, 18, 21, 24, 20, 19, 28, 25]
22.046[18, 19, 22, 22, 18, 21, 24, 23]
22.063[18, 21, 22, 23, 20, 22, 23, 19]
22.084[18, 22, 19, 22, 19, 21, 21, 17]
22.106[17, 20, 20, 20, 20, 20, 21, 19]
22.123[17, 21, 20, 17, 21, 20, 20, 21]
22.144[17, 20, 18, 19, 21, 19, 21, 23]
22.166[16, 19, 17, 19, 18, 17, 19, 23]
22.183[18, 19, 18, 20, 21, 18, 19, 24]
22.211[18, 19, 17, 21, 21, 19, 18, 23]
22.226[17, 19, 18, 23, 19, 19, 19, 20]
22.243[18, 21, 19, 22, 21, 20, 19, 18]
22.264[19, 21, 20, 21, 20, 20, 19, 17]
22.288[18, 22, 19, 19, 18, 19, 20, 19]
22.301[20, 22, 21, 20, 18, 18, 22, 19]
22.324[21, 22, 19, 18, 18, 19, 22, 19]
22.346[20, 20, 18, 19, 20, 19, 20, 18]
22.361[19, 19, 20, 18, 21, 21, 21, 20]
22.384[19, 18, 21, 20, 22, 21, 20, 19]
22.406[17, 18, 21, 20, 21, 22, 18, 19]
22.422[17, 18, 22, 20, 21, 20, 18, 19]
22.445[18, 18, 22, 20, 19, 20, 19, 21]
22.466[18, 19, 20, 21, 19, 17, 18, 20]
22.482[19, 19, 21, 21, 20, 17, 18, 19]
22.504[20, 21, 20, 21, 20, 14, 21, 19]
22.528[20, 20, 20, 22, 21, 16, 22, 19]
22.543[21, 20, 21, 22, 20, 17, 21, 18]
22.565[21, 19, 21, 23, 21, 16, 21, 19]
22.587[19, 20, 21, 22, 19, 17, 20, 18]
22.603[20, 18, 21, 23, 20, 19, 18, 19]
22.631[21, 18, 23, 22, 19, 17, 20, 41]
22.646[24, 18, 22, 19, 20, 18, 23, 55]
22.661[24, 20, 22, 19, 21, 20, 22, 56]
22.684[25, 19, 22, 18, 22, 20, 23, 59]
22.706[24, 19, 21, 17, 22, 20, 23, 58]
22.739[22, 19, 19, 18, 21, 19, 21, 46]
22.744[18, 18, 18, 19, 19, 19, 19, 31]
22.766[19, 18, 21, 19, 18, 18, 20, 31]
22.781[17, 20, 22, 18, 21, 19, 20, 32]
22.804[19, 21, 22, 19, 21, 19, 21, 34]
22.828[23, 23, 22, 19, 20, 19, 22, 39]
22.843[24, 23, 23, 17, 21, 19, 22, 39]
22.864[22, 22, 21, 19, 21, 19, 21, 36]
22.887[22, 19, 22, 20, 19, 20, 20, 31]
22.909[22, 21, 22, 20, 19, 19, 19, 30]
22.924[20, 19, 20, 19, 19, 19, 16, 37]
22.948[26, 21, 21, 19, 19, 20, 21, 68]
22.969[27, 21, 21, 18, 18, 19, 25, 80]
22.984[28, 22, 18, 18, 17, 18, 26, 84]
23.014[29, 21, 19, 17, 18, 18, 29, 98]
23.029[28, 22, 18, 18, 18, 19, 31, 98]
23.044[23, 23, 17, 18, 18, 18, 28, 82]
23.066[23, 24, 18, 19, 17, 17, 26, 73]
23.089[21, 24, 19, 20, 17, 20, 25, 70]
23.104[20, 23, 19, 20, 17, 19, 21, 51]
23.126[22, 22, 20, 20, 18, 19, 19, 53]
23.149[21, 20, 20, 21, 18, 20, 20, 61]
23.164[27, 21, 20, 21, 20, 20, 29, 79]
23.188[30, 22, 21, 19, 20, 18, 30, 83]
23.209[29, 21, 20, 23, 20, 20, 31, 81]
23.224[26, 22, 20, 23, 19, 18, 31, 74]
23.246[27, 21, 21, 23, 19, 19, 33, 67]
23.27[21, 18, 20, 22, 20, 20, 24, 40]
23.291[19, 19, 19, 23, 20, 20, 24, 35]
23.306[24, 21, 19, 21, 20, 21, 24, 45]
23.329[26, 20, 18, 19, 20, 22, 23, 45]
23.344[26, 20, 18, 21, 19, 23, 20, 43]
23.366[26, 20, 20, 22, 19, 21, 22, 43]
23.397[26, 19, 19, 20, 19, 22, 22, 39]
23.404[22, 18, 20, 18, 19, 22, 20, 25]
23.427[20, 20, 21, 21, 20, 22, 21, 34]
23.449[20, 20, 21, 20, 21, 21, 23, 38]
23.464[19, 21, 21, 19, 19, 21, 20, 44]
23.488[20, 20, 21, 21, 21, 23, 21, 48]
23.509[19, 21, 19, 23, 22, 21, 21, 49]
23.524[20, 21, 18, 22, 20, 21, 19, 44]
23.546[21, 21, 18, 22, 20, 21, 20, 42]
23.569[21, 22, 17, 22, 21, 21, 22, 34]
23.584[21, 23, 20, 20, 19, 19, 22, 29]
23.608[20, 22, 21, 20, 17, 18, 21, 27]
23.629[20, 22, 21, 20, 21, 18, 22, 30]
23.644[19, 24, 21, 20, 21, 17, 22, 28]
23.666[19, 24, 23, 20, 19, 18, 20, 30]
23.689[18, 24, 21, 21, 21, 19, 19, 35]
23.704[20, 24, 20, 23, 20, 18, 20, 35]
23.726[18, 23, 22, 21, 18, 20, 20, 31]
23.749[17, 22, 21, 21, 19, 19, 19, 32]
23.765[17, 22, 22, 20, 20, 19, 20, 31]
23.786[18, 22, 21, 21, 19, 20, 20, 23]
23.809[18, 22, 24, 19, 21, 21, 21, 22]
23.831[22, 24, 22, 18, 21, 20, 22, 31]
23.846[23, 22, 24, 18, 22, 20, 22, 29]
23.869[24, 23, 22, 20, 23, 21, 20, 30]
23.891[24, 23, 22, 19, 23, 19, 19, 30]
23.915[24, 24, 21, 19, 21, 19, 20, 31]
23.929[21, 25, 21, 21, 21, 19, 18, 24]
23.952[22, 26, 21, 21, 21, 19, 19, 24]
23.966[20, 25, 22, 21, 19, 19, 22, 22]
23.989[19, 26, 22, 22, 20, 21, 23, 21]
24.019[21, 25, 23, 20, 19, 20, 22, 26]
24.026[18, 23, 22, 18, 20, 20, 22, 24]
24.049[17, 21, 20, 20, 20, 20, 21, 24]
24.072[17, 21, 22, 20, 20, 20, 19, 27]
24.086[18, 20, 22, 18, 22, 19, 20, 28]
24.109[17, 21, 19, 19, 22, 20, 21, 24]
24.132[18, 21, 21, 20, 22, 23, 22, 24]
24.146[18, 21, 22, 21, 21, 22, 23, 25]
24.169[19, 22, 21, 20, 22, 23, 21, 24]
24.192[20, 23, 22, 20, 21, 22, 20, 25]
24.206[19, 20, 24, 20, 22, 22, 19, 22]
24.237[20, 22, 24, 20, 23, 19, 17, 24]
24.252[23, 21, 24, 19, 23, 18, 18, 24]
24.267[23, 21, 23, 20, 23, 18, 20, 23]
24.289[21, 20, 22, 20, 22, 19, 19, 23]
24.312[24, 20, 20, 20, 23, 19, 20, 31]
24.326[23, 19, 19, 19, 21, 18, 20, 31]
24.349[21, 20, 18, 17, 20, 19, 19, 29]
24.372[21, 20, 18, 17, 23, 18, 22, 29]
24.386[22, 20, 18, 17, 23, 19, 21, 32]
24.409[20, 20, 20, 20, 21, 18, 21, 26]
24.44[20, 20, 19, 20, 21, 17, 20, 28]
24.447[19, 19, 19, 20, 23, 18, 21, 29]
24.469[20, 19, 19, 19, 22, 18, 19, 31]
24.492[18, 18, 19, 21, 23, 19, 18, 29]
24.507[18, 19, 18, 18, 24, 20, 19, 30]
24.537[18, 21, 20, 18, 23, 20, 20, 29]
24.552[19, 21, 20, 19, 23, 21, 20, 29]
24.575[17, 23, 21, 19, 20, 22, 20, 26]
24.589[20, 23, 21, 18, 20, 22, 21, 30]
24.612[22, 23, 22, 19, 20, 22, 22, 29]
24.626[22, 25, 22, 19, 21, 22, 21, 29]
24.649[22, 26, 22, 22, 21, 20, 20, 29]
24.68[23, 24, 22, 24, 22, 20, 20, 29]
24.686[19, 24, 24, 25, 21, 18, 19, 24]
24.709[18, 24, 22, 25, 21, 17, 18, 23]
24.732[18, 21, 22, 25, 21, 19, 19, 24]
24.748[20, 21, 23, 21, 21, 19, 20, 27]
24.769[20, 21, 22, 19, 20, 19, 20, 27]
24.792[20, 22, 20, 17, 21, 20, 20, 28]
24.815[20, 21, 20, 16, 21, 21, 19, 30]
24.829[21, 21, 18, 15, 21, 18, 20, 29]
24.852[18, 20, 18, 17, 20, 18, 19, 26]
24.875[18, 19, 19, 17, 20, 18, 19, 24]
24.889[19, 19, 20, 19, 20, 19, 18, 23]
24.912[20, 17, 20, 20, 18, 20, 18, 19]
24.935[19, 18, 20, 19, 20, 21, 17, 25]
24.957[20, 16, 21, 20, 22, 21, 19, 25]
24.972[19, 17, 20, 23, 23, 21, 19, 27]
24.995[19, 17, 19, 21, 24, 19, 21, 26]
25.009[18, 19, 19, 21, 24, 20, 20, 25]
25.032[20, 19, 20, 22, 22, 19, 20, 18]
25.055[20, 21, 20, 19, 23, 19, 19, 17]
25.069[21, 21, 21, 17, 21, 20, 19, 15]
25.092[21, 22, 21, 18, 21, 21, 23, 17]
25.115[23, 21, 21, 19, 22, 18, 24, 30]
25.129[21, 22, 21, 19, 21, 17, 23, 32]
25.152[21, 22, 19, 19, 20, 16, 23, 33]
25.174[21, 21, 18, 20, 20, 15, 23, 34]
25.189[20, 20, 21, 19, 18, 15, 18, 35]
25.212[17, 20, 22, 19, 19, 16, 19, 25]
25.234[17, 18, 22, 18, 20, 16, 21, 22]
25.249[17, 18, 23, 22, 19, 19, 21, 21]
25.272[16, 20, 23, 21, 20, 19, 21, 21]
25.294[17, 21, 20, 23, 22, 19, 21, 22]
25.309[16, 21, 20, 22, 21, 19, 22, 28]
25.332[17, 22, 19, 22, 21, 19, 22, 29]
25.362[19, 22, 20, 19, 22, 17, 22, 28]
25.369[19, 20, 20, 20, 22, 17, 22, 28]
25.393[20, 20, 22, 18, 20, 16, 22, 26]
25.415[21, 20, 22, 21, 20, 17, 21, 21]
25.429[21, 19, 21, 20, 21, 18, 19, 22]
25.452[20, 18, 19, 20, 21, 18, 20, 23]
25.476[22, 20, 20, 21, 20, 17, 19, 22]
25.489[22, 19, 18, 21, 22, 20, 20, 25]
25.512[22, 18, 19, 19, 22, 18, 19, 25]
25.534[22, 18, 20, 19, 22, 18, 21, 24]
25.549[20, 19, 20, 20, 20, 17, 21, 26]
25.579[19, 20, 21, 20, 20, 19, 21, 27]
25.595[18, 20, 20, 22, 19, 17, 21, 23]
25.609[18, 21, 19, 22, 19, 17, 20, 24]
25.64[18, 20, 21, 23, 18, 18, 22, 28]
25.654[20, 21, 21, 24, 20, 22, 20, 29]
25.669[21, 19, 20, 22, 20, 20, 21, 28]
25.692[21, 19, 20, 21, 20, 20, 20, 28]
25.715[21, 20, 21, 19, 20, 22, 19, 28]
25.737[21, 21, 21, 21, 20, 20, 19, 23]
25.752[21, 21, 21, 18, 21, 20, 22, 21]
25.775[21, 20, 21, 19, 20, 21, 21, 21]
25.797[22, 20, 22, 19, 22, 22, 21, 20]
25.812[21, 20, 20, 19, 21, 20, 21, 20]
25.835[21, 18, 18, 17, 21, 21, 20, 20]
25.857[20, 18, 18, 19, 22, 18, 17, 19]
25.872[20, 19, 16, 19, 23, 18, 18, 18]
25.894[18, 20, 17, 19, 22, 17, 17, 21]
25.917[19, 19, 18, 19, 22, 18, 20, 26]
25.932[18, 20, 19, 19, 22, 18, 20, 27]
25.954[18, 20, 20, 18, 20, 19, 20, 26]
25.977[18, 20, 21, 20, 19, 20, 20, 26]
25.992[19, 19, 20, 20, 20, 20, 21, 26]
26.015[19, 19, 20, 22, 19, 20, 18, 19]
26.037[18, 18, 19, 22, 20, 20, 17, 18]
26.052[17, 17, 19, 22, 20, 18, 18, 21]
26.082[17, 18, 18, 21, 20, 18, 17, 21]
26.097[17, 19, 17, 20, 19, 18, 17, 20]
26.112[18, 20, 19, 20, 18, 18, 17, 20]
26.134[19, 20, 19, 21, 17, 18, 18, 21]
26.157[19, 23, 19, 20, 18, 20, 18, 20]
26.172[19, 21, 18, 22, 18, 19, 18, 21]
26.195[19, 21, 20, 21, 17, 18, 20, 20]
26.217[18, 20, 19, 20, 20, 19, 21, 21]
26.24[17, 20, 17, 21, 19, 19, 21, 21]
26.254[20, 19, 17, 21, 21, 20, 21, 21]
26.277[21, 19, 19, 18, 22, 19, 21, 20]
26.291[20, 19, 18, 18, 23, 20, 21, 21]
26.314[20, 18, 17, 19, 23, 20, 20, 22]
26.345[23, 20, 18, 17, 24, 20, 20, 22]
26.351[20, 20, 19, 18, 23, 18, 20, 19]
26.374[20, 19, 18, 18, 22, 21, 19, 19]
26.398[21, 20, 18, 18, 21, 20, 18, 20]
26.411[21, 20, 19, 17, 21, 21, 17, 20]
26.434[19, 18, 19, 18, 22, 21, 18, 19]
26.457[22, 18, 20, 18, 21, 21, 18, 20]
26.471[21, 20, 20, 20, 20, 20, 19, 21]
26.495[22, 21, 18, 20, 20, 19, 20, 20]
26.517[22, 22, 19, 20, 19, 19, 21, 19]
26.531[22, 22, 18, 20, 18, 20, 20, 19]
26.555[21, 21, 16, 20, 19, 19, 18, 23]
26.576[21, 19, 17, 20, 19, 19, 18, 20]
26.599[19, 18, 19, 20, 18, 20, 19, 21]
26.623[17, 18, 21, 20, 19, 21, 18, 20]
26.637[17, 18, 20, 22, 20, 20, 18, 22]
26.659[15, 17, 20, 20, 19, 19, 19, 18]
26.69[15, 17, 20, 19, 20, 19, 20, 20]
26.697[18, 19, 20, 20, 20, 18, 18, 21]
26.719[19, 19, 20, 21, 18, 20, 18, 21]
26.735[21, 18, 21, 19, 17, 21, 18, 24]
26.757[21, 19, 21, 20, 20, 21, 17, 25]
26.779[22, 20, 22, 22, 18, 21, 19, 24]
26.795[19, 18, 24, 23, 19, 22, 19, 24]
26.817[19, 19, 24, 20, 21, 17, 19, 25]
26.839[18, 19, 24, 22, 22, 17, 19, 21]
26.855[19, 18, 23, 21, 21, 20, 20, 20]
26.876[18, 17, 23, 20, 22, 19, 17, 21]
26.899[20, 19, 21, 17, 22, 17, 19, 20]
26.921[19, 19, 20, 18, 21, 18, 20, 19]
26.936[20, 19, 20, 19, 22, 18, 22, 21]
26.966[19, 20, 21, 18, 21, 15, 23, 22]
26.976[19, 22, 20, 20, 23, 17, 23, 23]
26.996[21, 20, 19, 20, 22, 17, 20, 23]
27.019[21, 19, 21, 19, 22, 16, 20, 23]
27.035[19, 19, 20, 18, 21, 16, 20, 21]
27.056[20, 21, 19, 17, 22, 17, 20, 21]
27.079[21, 20, 20, 19, 20, 17, 20, 20]
27.095[19, 21, 19, 20, 21, 19, 22, 19]
27.116[19, 22, 18, 20, 20, 18, 23, 20]
27.139[19, 23, 19, 20, 18, 20, 23, 19]
27.155[18, 23, 18, 23, 17, 19, 21, 19]
27.177[18, 21, 18, 20, 21, 20, 21, 18]
27.199[18, 20, 19, 21, 20, 20, 20, 16]
27.215[19, 19, 21, 20, 20, 21, 19, 18]
27.244[21, 20, 21, 21, 21, 19, 18, 17]
27.259[20, 20, 21, 19, 22, 22, 18, 17]
27.281[19, 21, 20, 20, 18, 20, 18, 17]
27.296[20, 21, 21, 20, 18, 19, 18, 17]
27.319[20, 23, 18, 21, 17, 18, 17, 16]
27.335[18, 21, 17, 21, 17, 19, 17, 18]
27.356[19, 22, 18, 20, 18, 16, 16, 17]
27.379[21, 22, 18, 21, 19, 18, 18, 23]
27.403[21, 22, 18, 21, 20, 18, 18, 22]
27.418[22, 19, 19, 21, 22, 18, 19, 22]
27.439[23, 20, 21, 21, 23, 20, 18, 21]
27.455[23, 18, 20, 20, 23, 20, 20, 23]
27.476[21, 18, 20, 20, 23, 20, 19, 18]
27.499[19, 17, 20, 19, 24, 20, 17, 19]
27.515[17, 17, 21, 20, 22, 20, 17, 20]
27.537[17, 16, 21, 19, 20, 17, 17, 18]
27.56[19, 18, 21, 19, 20, 18, 17, 17]
27.575[20, 18, 20, 19, 20, 16, 18, 17]
27.596[20, 18, 20, 19, 19, 17, 20, 19]
27.619[21, 19, 21, 17, 23, 17, 21, 19]
27.642[20, 19, 20, 16, 25, 18, 21, 19]
27.657[20, 19, 21, 18, 26, 18, 21, 20]
27.687[19, 19, 20, 18, 24, 18, 22, 20]
27.701[20, 18, 20, 18, 24, 17, 22, 19]
27.717[20, 18, 20, 18, 21, 18, 22, 18]
27.739[19, 20, 21, 20, 21, 18, 22, 22]
27.769[16, 19, 22, 21, 19, 18, 24, 20]
27.776[18, 20, 23, 19, 21, 19, 23, 21]
27.8[18, 22, 24, 19, 20, 20, 23, 20]
27.821[18, 22, 22, 19, 21, 20, 21, 21]
27.838[19, 21, 19, 19, 21, 20, 22, 17]
27.859[19, 21, 17, 17, 21, 20, 19, 18]
27.882[17, 21, 17, 18, 19, 20, 18, 17]
27.904[18, 21, 17, 19, 21, 20, 18, 17]
27.919[18, 21, 18, 19, 20, 18, 19, 18]
27.941[18, 20, 20, 18, 19, 19, 17, 17]
27.956[19, 21, 20, 18, 20, 20, 17, 18]
27.98[23, 21, 20, 19, 19, 22, 19, 17]
28.01[22, 19, 19, 18, 17, 21, 20, 18]
28.017[21, 19, 19, 18, 18, 22, 20, 18]
28.038[22, 18, 20, 18, 19, 20, 20, 18]
28.061[23, 18, 21, 19, 19, 22, 20, 17]
28.078[20, 18, 20, 20, 22, 21, 19, 19]
28.099[20, 19, 20, 20, 23, 21, 18, 20]
28.121[20, 18, 20, 19, 21, 20, 19, 18]
28.136[18, 21, 20, 20, 21, 21, 20, 18]
28.16[18, 20, 18, 20, 20, 17, 19, 20]
28.182[19, 22, 19, 19, 17, 16, 20, 19]
28.197[17, 20, 19, 19, 18, 18, 19, 19]
28.221[20, 22, 19, 20, 18, 18, 17, 19]
28.241[20, 19, 19, 19, 17, 17, 18, 19]
28.256[19, 21, 19, 20, 18, 18, 20, 18]
28.287[18, 20, 20, 20, 19, 18, 21, 18]
28.301[20, 21, 21, 20, 20, 18, 21, 18]
28.324[18, 21, 20, 20, 20, 18, 21, 19]
28.339[18, 22, 19, 20, 20, 18, 20, 21]
28.361[17, 19, 17, 21, 20, 19, 19, 21]
28.376[21, 23, 19, 21, 20, 18, 17, 22]
28.399[20, 23, 20, 20, 18, 19, 17, 22]
28.421[22, 24, 20, 20, 18, 19, 17, 23]
28.437[22, 25, 21, 22, 18, 18, 18, 23]
28.459[23, 25, 23, 20, 19, 16, 16, 21]
28.481[20, 23, 22, 19, 18, 20, 18, 21]
28.497[20, 22, 20, 19, 18, 19, 19, 22]
28.519[19, 20, 21, 22, 17, 18, 18, 19]
28.541[19, 21, 22, 20, 17, 21, 18, 20]
28.564[17, 19, 22, 20, 17, 23, 20, 22]
28.579[18, 19, 22, 20, 19, 21, 20, 22]
28.601[18, 19, 21, 20, 19, 21, 22, 21]
28.632[17, 18, 21, 19, 21, 21, 23, 23]
28.639[17, 18, 20, 20, 21, 20, 24, 22]
28.661[17, 18, 22, 21, 21, 18, 26, 20]
28.684[18, 18, 21, 21, 22, 17, 29, 21]
28.699[18, 20, 22, 19, 23, 18, 28, 21]
28.721[18, 19, 21, 20, 23, 18, 28, 18]
28.744[17, 20, 20, 19, 23, 19, 28, 18]
28.759[19, 21, 17, 19, 24, 19, 24, 19]
28.781[18, 21, 19, 20, 22, 21, 20, 20]
28.804[19, 20, 18, 20, 22, 22, 17, 18]
28.819[20, 21, 18, 20, 21, 22, 16, 19]
28.841[21, 22, 22, 20, 21, 21, 15, 18]
28.864[20, 21, 22, 20, 19, 23, 19, 23]
28.879[20, 21, 22, 19, 18, 21, 20, 21]
28.901[20, 23, 23, 21, 18, 21, 20, 23]
28.949[19, 22, 22, 19, 18, 21, 20, 25]
28.95[20, 22, 20, 19, 17, 20, 19, 26]
28.962[20, 23, 20, 20, 18, 19, 16, 22]
28.993[20, 23, 19, 20, 18, 20, 16, 23]
28.999[20, 23, 18, 19, 18, 17, 17, 21]
29.021[19, 23, 20, 20, 17, 17, 18, 20]
29.044[17, 25, 19, 20, 19, 19, 21, 19]
29.059[17, 23, 20, 19, 19, 18, 21, 19]
29.081[17, 23, 20, 21, 21, 19, 21, 18]
29.104[16, 21, 20, 20, 20, 20, 20, 18]
29.12[16, 21, 17, 18, 21, 20, 20, 17]
29.141[17, 19, 20, 21, 19, 20, 18, 17]
29.164[17, 20, 19, 20, 21, 21, 16, 16]
29.187[17, 19, 21, 18, 19, 19, 16, 16]
29.201[19, 21, 22, 19, 22, 20, 16, 19]
29.224[20, 21, 23, 19, 20, 18, 15, 19]
29.239[21, 23, 22, 19, 22, 18, 15, 20]
29.261[21, 21, 22, 20, 19, 18, 18, 21]
29.284[23, 22, 22, 22, 21, 18, 19, 22]
29.299[23, 20, 20, 23, 19, 18, 18, 19]
29.321[25, 21, 20, 23, 19, 21, 20, 20]
29.344[24, 19, 18, 23, 18, 21, 19, 21]
29.359[24, 20, 21, 23, 21, 20, 16, 20]
29.381[21, 19, 18, 22, 20, 19, 16, 21]
29.405[21, 19, 22, 22, 22, 20, 17, 21]
29.419[18, 19, 22, 22, 23, 17, 17, 20]
29.441[20, 21, 23, 20, 23, 19, 16, 20]
29.464[21, 21, 22, 21, 22, 21, 20, 20]
29.479[20, 23, 23, 19, 21, 22, 19, 19]
29.501[21, 23, 20, 19, 18, 22, 19, 19]
29.524[21, 24, 21, 21, 20, 23, 17, 20]
29.548[20, 24, 23, 24, 23, 22, 20, 19]
29.57[19, 24, 21, 24, 23, 22, 17, 20]
29.585[20, 23, 22, 34, 33, 27, 18, 21]
29.607[19, 24, 24, 35, 34, 28, 18, 20]
29.621[19, 22, 24, 38, 36, 36, 23, 21]
29.645[23, 24, 27, 43, 43, 64, 25, 26]
29.667[25, 25, 31, 46, 51, 68, 30, 27]
29.681[29, 27, 33, 61, 56, 76, 38, 50]
29.705[42, 32, 39, 73, 68, 121, 72, 95]
29.735[43, 36, 48, 81, 84, 164, 96, 103]
29.741[54, 46, 58, 112, 94, 172, 141, 134]
29.765[84, 68, 84, 193, 145, 262, 173, 229]
29.787[99, 72, 85, 206, 154, 351, 175, 239]
29.801[115, 81, 93, 222, 194, 372, 189, 278]
29.825[136, 87, 93, 225, 227, 417, 239, 313]
29.847[142, 84, 93, 232, 256, 502, 291, 320]
29.861[143, 84, 81, 189, 303, 530, 317, 277]
29.885[149, 92, 87, 182, 314, 515, 353, 297]
29.907[163, 102, 100, 190, 367, 563, 378, 305]
29.921[169, 106, 104, 195, 399, 614, 414, 354]
29.944[178, 120, 109, 184, 403, 616, 407, 359]
29.967[191, 117, 104, 172, 378, 626, 523, 427]
29.981[224, 126, 109, 176, 413, 657, 549, 463]
30.005[221, 122, 93, 156, 386, 659, 579, 435]
30.043[221, 123, 93, 148, 352, 628, 563, 395]
30.049[215, 114, 90, 155, 405, 761, 607, 419]
30.065[196, 117, 103, 162, 405, 811, 505, 364]
30.087[163, 113, 103, 172, 442, 914, 576, 315]
30.101[171, 117, 108, 174, 476, 900, 637, 373]
30.124[174, 118, 112, 183, 494, 892, 702, 510]
30.147[184, 123, 113, 184, 488, 812, 682, 522]
30.161[194, 120, 103, 174, 493, 732, 701, 522]
30.185[212, 142, 109, 160, 443, 627, 759, 548]
30.207[209, 145, 118, 164, 402, 662, 700, 546]
30.23[204, 141, 114, 156, 383, 664, 651, 444]
30.244[221, 143, 115, 145, 333, 618, 641, 433]
30.267[223, 150, 125, 167, 310, 650, 674, 443]
30.281[195, 121, 111, 161, 284, 585, 521, 443]
30.305[186, 111, 104, 158, 252, 531, 559, 440]
30.327[205, 126, 108, 168, 287, 603, 538, 463]
30.341[178, 118, 101, 162, 323, 603, 584, 537]
30.364[164, 105, 90, 151, 354, 623, 518, 528]
30.387[167, 103, 90, 150, 364, 626, 519, 511]
30.401[158, 95, 78, 134, 360, 637, 485, 528]
30.424[123, 72, 62, 108, 320, 549, 526, 511]
30.447[148, 80, 67, 107, 264, 496, 524, 496]
30.469[167, 101, 83, 111, 237, 511, 575, 497]
30.484[182, 110, 86, 110, 236, 500, 585, 537]
30.507[185, 115, 86, 112, 232, 477, 591, 499]
30.529[201, 116, 88, 114, 231, 451, 585, 499]
30.545[187, 112, 87, 113, 245, 467, 541, 457]
30.574[172, 91, 66, 91, 223, 353, 502, 462]
30.589[148, 90, 78, 119, 231, 361, 501, 402]
30.604[149, 91, 80, 119, 230, 356, 496, 408]
30.627[121, 86, 82, 120, 224, 373, 459, 367]
30.649[108, 86, 85, 129, 224, 383, 428, 324]
30.664[108, 84, 87, 133, 219, 367, 442, 312]
30.687[128, 91, 85, 119, 198, 353, 426, 321]
30.709[137, 87, 82, 116, 198, 328, 366, 329]
30.725[136, 91, 82, 115, 192, 306, 396, 326]
30.747[135, 87, 76, 103, 162, 271, 414, 307]
30.77[140, 97, 85, 111, 173, 286, 375, 295]
30.784[127, 81, 73, 103, 177, 285, 409, 306]
30.807[110, 78, 71, 97, 181, 335, 464, 298]
30.829[115, 85, 78, 102, 218, 351, 412, 303]
30.844[123, 86, 76, 97, 219, 359, 445, 338]
30.867[126, 78, 64, 81, 206, 381, 467, 346]
30.889[124, 78, 60, 72, 194, 377, 420, 348]
30.905[134, 83, 62, 77, 189, 348, 433, 369]
30.927[123, 70, 54, 72, 142, 334, 437, 369]
30.949[110, 64, 52, 75, 161, 320, 440, 327]
30.964[105, 72, 61, 83, 184, 298, 457, 324]
30.987[103, 71, 62, 87, 205, 292, 482, 293]
31.009[100, 75, 71, 102, 222, 289, 477, 292]
31.024[107, 82, 72, 105, 230, 289, 502, 291]
31.047[111, 88, 75, 107, 223, 303, 487, 318]
31.069[103, 79, 69, 106, 205, 286, 466, 330]
31.084[113, 81, 72, 104, 187, 276, 487, 338]
31.107[99, 73, 66, 89, 155, 282, 490, 315]
31.129[94, 69, 64, 86, 154, 306, 483, 317]
31.144[91, 65, 61, 84, 158, 288, 477, 301]
31.167[87, 65, 62, 81, 159, 285, 472, 286]
31.189[76, 62, 57, 81, 155, 310, 421, 277]
31.204[84, 62, 58, 98, 183, 307, 339, 259]
31.228[93, 63, 58, 97, 179, 282, 373, 310]
31.249[91, 59, 55, 97, 168, 299, 341, 310]
31.264[90, 57, 53, 98, 172, 325, 346, 322]
31.287[100, 65, 57, 99, 175, 310, 374, 344]
31.309[101, 71, 62, 94, 193, 367, 409, 345]
31.323[100, 79, 72, 111, 214, 386, 368, 296]
31.347[99, 81, 73, 113, 220, 387, 378, 289]
31.369[101, 85, 76, 112, 220, 373, 372, 282]
31.384[94, 83, 74, 110, 216, 386, 367, 251]
31.407[96, 84, 72, 104, 189, 316, 335, 262]
31.429[91, 73, 60, 82, 169, 314, 349, 281]
31.452[97, 75, 64, 83, 171, 294, 355, 279]
31.468[93, 72, 61, 83, 168, 277, 334, 269]
31.489[94, 69, 61, 81, 172, 287, 360, 289]
31.512[86, 59, 56, 83, 182, 333, 427, 278]
31.528[84, 69, 63, 90, 177, 321, 409, 250]
31.55[81, 72, 63, 87, 167, 336, 401, 254]
31.571[85, 75, 66, 90, 167, 350, 406, 261]
31.588[78, 77, 67, 94, 167, 324, 397, 269]
31.609[77, 76, 65, 86, 149, 293, 367, 248]
31.631[75, 72, 62, 90, 164, 287, 396, 247]
31.647[84, 73, 60, 92, 172, 285, 417, 247]
31.668[101, 80, 65, 97, 175, 288, 411, 238]
31.691[102, 77, 63, 99, 175, 268, 373, 242]
31.708[106, 80, 66, 101, 183, 256, 351, 290]
31.729[106, 77, 62, 92, 179, 273, 367, 313]
31.758[102, 78, 61, 90, 180, 253, 352, 304]
31.768[89, 72, 57, 79, 181, 304, 413, 305]
31.79[88, 73, 61, 81, 188, 351, 432, 274]
31.811[85, 73, 62, 84, 183, 372, 509, 243]
31.828[85, 68, 56, 81, 175, 374, 495, 239]
31.849[89, 64, 60, 83, 168, 396, 581, 285]
31.871[85, 55, 54, 81, 157, 347, 555, 301]
31.895[84, 60, 52, 70, 140, 358, 563, 306]
31.909[83, 59, 53, 69, 138, 368, 511, 303]
31.931[85, 62, 60, 77, 146, 367, 531, 281]
31.962[83, 62, 59, 76, 137, 353, 446, 259]
31.969[89, 73, 65, 83, 155, 408, 464, 231]
31.999[94, 72, 62, 81, 149, 368, 454, 242]
32.008[91, 71, 61, 82, 152, 338, 461, 225]
32.029[95, 70, 58, 78, 150, 331, 421, 247]
32.051[85, 66, 56, 75, 155, 326, 420, 233]
32.068[91, 61, 52, 68, 136, 264, 408, 269]
32.09[92, 58, 54, 76, 147, 307, 410, 255]
32.111[102, 60, 50, 67, 130, 312, 377, 282]
32.128[98, 59, 51, 73, 149, 329, 422, 312]
32.149[102, 66, 56, 76, 145, 314, 420, 314]
32.18[91, 67, 58, 80, 158, 339, 427, 286]
32.188[88, 65, 56, 78, 161, 301, 444, 321]
32.209[79, 64, 57, 82, 169, 305, 476, 318]
32.231[88, 71, 62, 85, 151, 294, 452, 289]
32.248[85, 66, 61, 87, 159, 335, 443, 287]
32.269[92, 64, 58, 82, 149, 315, 454, 338]
32.291[88, 63, 57, 79, 143, 331, 439, 309]
32.308[93, 64, 60, 81, 140, 326, 393, 312]
32.329[80, 63, 58, 76, 136, 302, 368, 295]
32.351[85, 63, 58, 73, 124, 265, 379, 309]
32.374[79, 61, 58, 73, 134, 275, 388, 256]
32.389[88, 65, 58, 75, 137, 272, 421, 288]
32.411[89, 68, 60, 81, 144, 276, 438, 267]
32.434[100, 71, 60, 85, 151, 316, 482, 294]
32.449[102, 71, 58, 87, 159, 341, 503, 318]
32.471[100, 77, 63, 90, 152, 323, 520, 330]
32.494[94, 77, 68, 93, 149, 322, 495, 371]
32.509[89, 77, 64, 85, 142, 317, 532, 366]
32.539[84, 73, 62, 82, 136, 297, 502, 349]
32.554[74, 72, 60, 77, 133, 264, 461, 309]
32.569[76, 67, 56, 75, 129, 260, 406, 309]
32.591[85, 78, 57, 69, 122, 256, 397, 240]
32.614[87, 74, 60, 74, 123, 241, 354, 273]
32.631[86, 72, 58, 70, 119, 232, 338, 289]
32.651[87, 74, 60, 76, 116, 233, 332, 301]
32.674[86, 72, 59, 76, 113, 228, 308, 288]
32.689[75, 60, 53, 75, 112, 200, 311, 269]
32.711[80, 68, 58, 78, 115, 208, 279, 279]
32.734[77, 67, 59, 79, 110, 192, 304, 253]
32.749[75, 65, 56, 75, 120, 200, 319, 251]
32.771[73, 63, 54, 74, 122, 238, 358, 260]
32.794[75, 61, 54, 76, 150, 271, 374, 254]
32.809[66, 52, 48, 70, 145, 264, 361, 206]
32.833[64, 51, 46, 66, 152, 295, 344, 220]
32.854[73, 54, 49, 67, 138, 313, 388, 218]
32.869[77, 59, 52, 66, 138, 287, 404, 242]
32.891[81, 64, 59, 68, 117, 283, 373, 248]
32.914[82, 63, 57, 63, 115, 286, 400, 254]
32.929[84, 68, 64, 67, 122, 260, 437, 261]
32.951[84, 65, 62, 62, 126, 281, 436, 270]
32.974[83, 67, 62, 63, 124, 284, 397, 229]
32.989[79, 62, 53, 58, 117, 261, 402, 224]
33.011[81, 62, 53, 58, 112, 304, 394, 241]
33.034[81, 61, 49, 58, 99, 312, 371, 228]
33.049[73, 61, 49, 61, 99, 274, 304, 195]
33.071[70, 55, 48, 58, 113, 277, 306, 208]
33.094[75, 65, 56, 66, 118, 297, 298, 240]
33.116[67, 64, 57, 67, 126, 262, 304, 219]
33.131[72, 67, 64, 73, 132, 273, 277, 211]
33.154[73, 68, 63, 72, 127, 270, 296, 209]
33.169[71, 67, 62, 76, 127, 256, 312, 195]
33.192[61, 60, 59, 73, 121, 283, 345, 160]
33.214[69, 61, 58, 74, 120, 263, 338, 179]
33.236[70, 56, 49, 75, 129, 237, 326, 190]
33.251[70, 54, 50, 77, 134, 244, 322, 197]
33.274[78, 63, 53, 75, 130, 261, 302, 199]
33.296[82, 61, 50, 70, 129, 213, 295, 191]
33.312[81, 62, 54, 71, 123, 216, 318, 179]
33.342[89, 67, 52, 60, 97, 210, 340, 191]
33.356[90, 68, 51, 56, 98, 243, 342, 185]
33.371[90, 69, 52, 60, 86, 258, 381, 194]
33.394[100, 76, 54, 63, 96, 257, 373, 196]
33.416[108, 80, 54, 63, 99, 271, 359, 192]
33.431[100, 73, 53, 62, 103, 275, 348, 196]
33.454[109, 78, 56, 64, 108, 261, 359, 207]
33.476[110, 74, 55, 61, 114, 247, 310, 223]
33.491[107, 74, 52, 55, 106, 246, 321, 229]
33.514[103, 78, 56, 60, 129, 240, 339, 241]
33.536[110, 82, 57, 59, 133, 244, 374, 251]
33.552[105, 78, 56, 59, 134, 251, 391, 285]
33.574[105, 83, 59, 67, 138, 248, 415, 281]
33.596[102, 80, 59, 69, 139, 277, 421, 285]
33.611[98, 71, 52, 63, 122, 276, 413, 291]
33.634[96, 68, 52, 65, 122, 300, 374, 274]
33.664[93, 67, 53, 65, 114, 272, 387, 230]
33.671[89, 60, 49, 59, 114, 269, 357, 217]
33.694[92, 59, 49, 59, 117, 256, 338, 206]
33.716[88, 60, 50, 64, 129, 273, 372, 194]
33.739[93, 68, 55, 67, 131, 242, 413, 177]
33.754[92, 67, 52, 66, 133, 260, 381, 168]
33.777[94, 66, 49, 63, 129, 265, 413, 176]
33.791[92, 60, 48, 68, 137, 288, 404, 174]
33.814[95, 64, 52, 66, 124, 272, 390, 155]
33.836[91, 55, 47, 63, 124, 299, 350, 201]
33.859[94, 61, 48, 64, 121, 285, 352, 202]
33.874[99, 71, 53, 64, 117, 277, 314, 250]
33.896[113, 79, 56, 57, 106, 259, 315, 257]
33.911[112, 79, 54, 57, 101, 258, 286, 266]
33.942[102, 76, 52, 53, 98, 260, 314, 246]
33.956[108, 73, 51, 55, 106, 281, 304, 276]
33.971[110, 75, 54, 59, 118, 284, 297, 226]
33.994[95, 71, 57, 76, 147, 293, 375, 235]
34.016[92, 70, 57, 78, 172, 301, 392, 260]
34.031[94, 72, 59, 86, 188, 287, 379, 257]
34.054[92, 73, 62, 90, 192, 278, 401, 244]
34.076[74, 59, 55, 90, 185, 272, 406, 242]
34.091[76, 66, 59, 81, 164, 250, 379, 242]
34.114[77, 69, 64, 88, 154, 274, 370, 212]
34.136[81, 70, 63, 85, 140, 282, 377, 233]
34.151[75, 69, 62, 85, 145, 281, 353, 216]
34.182[83, 77, 69, 86, 145, 316, 406, 228]
34.196[88, 74, 61, 82, 139, 320, 397, 220]
34.212[90, 70, 57, 71, 129, 306, 381, 214]
34.243[84, 68, 56, 67, 116, 286, 388, 180]
34.256[83, 66, 53, 61, 105, 293, 402, 192]
34.28[77, 63, 50, 68, 184, 256, 362, 177]
34.294[69, 54, 48, 67, 195, 245, 314, 191]
34.317[75, 63, 57, 74, 227, 278, 305, 190]
34.339[74, 63, 59, 77, 261, 317, 289, 200]
34.354[91, 78, 67, 87, 275, 341, 361, 230]
34.376[92, 74, 62, 81, 232, 338, 346, 245]
34.4[92, 74, 63, 89, 238, 333, 361, 229]
34.414[88, 72, 57, 85, 213, 303, 365, 233]
34.436[89, 72, 58, 87, 174, 268, 359, 226]
34.459[76, 61, 50, 79, 156, 229, 270, 192]
34.474[84, 68, 54, 77, 167, 248, 307, 181]
34.496[84, 70, 55, 70, 190, 277, 346, 180]
34.52[105, 79, 58, 79, 184, 274, 395, 177]
34.534[102, 77, 55, 74, 182, 260, 385, 175]
34.556[98, 74, 54, 72, 179, 278, 367, 206]
34.58[103, 79, 51, 69, 167, 268, 339, 206]
34.594[105, 84, 58, 73, 116, 236, 329, 207]
34.616[78, 71, 52, 65, 116, 238, 323, 224]
34.639[89, 78, 59, 70, 120, 306, 343, 227]
34.654[96, 78, 62, 77, 119, 287, 357, 192]
34.676[90, 68, 62, 78, 123, 284, 347, 186]
34.699[91, 66, 60, 78, 143, 296, 368, 198]
34.714[92, 63, 56, 74, 151, 303, 382, 185]
34.736[93, 61, 51, 68, 149, 248, 396, 216]
34.759[99, 66, 55, 62, 144, 248, 414, 250]
34.774[93, 65, 54, 60, 137, 254, 449, 266]
34.797[88, 66, 54, 60, 127, 257, 406, 262]
34.82[88, 66, 57, 60, 108, 275, 388, 284]
34.834[83, 63, 56, 62, 119, 284, 381, 285]
34.857[65, 54, 50, 62, 118, 297, 374, 269]
34.88[66, 54, 50, 64, 125, 307, 387, 269]
34.894[76, 47, 42, 59, 132, 321, 395, 285]
34.917[75, 50, 38, 60, 139, 313, 384, 254]
34.939[76, 54, 42, 61, 132, 323, 365, 232]
34.954[89, 58, 40, 60, 147, 319, 363, 230]
34.977[87, 56, 39, 60, 148, 315, 334, 216]
34.999[82, 56, 43, 63, 138, 292, 343, 187]
35.014[82, 55, 44, 61, 125, 273, 317, 193]
35.037[81, 49, 40, 56, 117, 251, 376, 236]
35.059[79, 46, 42, 54, 93, 226, 372, 230]
35.074[83, 48, 41, 52, 81, 211, 376, 235]
35.096[79, 47, 41, 43, 80, 212, 380, 241]
35.119[81, 50, 42, 44, 81, 198, 367, 249]
35.134[74, 49, 42, 49, 101, 191, 299, 199]
35.157[63, 50, 39, 48, 101, 200, 303, 204]
35.179[62, 51, 42, 59, 120, 207, 332, 185]
35.202[60, 49, 41, 66, 120, 203, 333, 184]
35.224[58, 49, 43, 65, 120, 204, 351, 168]
35.239[62, 50, 47, 69, 115, 222, 378, 173]
35.262[64, 49, 47, 70, 122, 304, 407, 160]
35.277[62, 49, 45, 60, 99, 291, 356, 166]
35.299[69, 50, 44, 52, 93, 287, 342, 206]
35.322[67, 47, 43, 57, 111, 288, 330, 202]
35.337[68, 47, 39, 50, 105, 294, 338, 209]
35.359[74, 48, 42, 54, 105, 212, 339, 228]
35.382[79, 50, 42, 55, 109, 223, 346, 260]
35.397[75, 50, 42, 55, 108, 217, 339, 227]
35.42[73, 51, 43, 51, 94, 264, 369, 248]
35.442[72, 50, 42, 54, 92, 239, 359, 255]
35.457[71, 59, 50, 59, 96, 276, 345, 244]
35.48[69, 54, 52, 60, 101, 273, 390, 216]
35.502[73, 60, 56, 63, 106, 284, 383, 221]
35.517[91, 61, 54, 65, 121, 254, 498, 305]
35.539[91, 62, 54, 63, 121, 259, 503, 309]
35.562[93, 52, 45, 54, 109, 224, 494, 315]
35.577[91, 51, 40, 54, 111, 232, 463, 328]
35.6[85, 45, 34, 49, 110, 217, 515, 319]
35.622[69, 41, 33, 46, 100, 197, 394, 223]
35.637[72, 42, 33, 45, 97, 188, 364, 196]
35.66[63, 46, 34, 47, 101, 168, 357, 210]
35.682[59, 48, 38, 47, 91, 181, 354, 182]
35.697[65, 47, 37, 50, 88, 188, 314, 192]
35.719[74, 54, 40, 50, 84, 184, 309, 199]
35.742[78, 53, 42, 50, 86, 174, 325, 230]
35.756[85, 51, 41, 52, 90, 169, 317, 242]
35.779[94, 52, 40, 53, 99, 208, 322, 258]
35.802[92, 52, 39, 51, 98, 224, 322, 251]
35.816[81, 44, 40, 52, 94, 233, 328, 246]
35.847[83, 45, 41, 54, 101, 245, 371, 299]
35.862[81, 52, 45, 55, 95, 253, 364, 271]
35.877[76, 49, 43, 53, 89, 219, 414, 261]
35.899[75, 51, 47, 55, 99, 206, 405, 260]
35.922[87, 54, 44, 78, 115, 210, 402, 292]
35.936[81, 56, 43, 78, 111, 214, 377, 224]
35.959[77, 47, 39, 76, 110, 204, 413, 222]
35.982[88, 57, 44, 79, 107, 197, 350, 256]
35.996[88, 56, 45, 78, 99, 196, 349, 268]
36.019[86, 54, 44, 54, 81, 200, 374, 239]
36.042[85, 54, 45, 54, 85, 180, 339, 243]
36.056[85, 56, 46, 57, 89, 181, 313, 251]
36.079[78, 47, 43, 55, 91, 224, 338, 238]
36.102[83, 52, 43, 56, 88, 245, 339, 234]
36.132[80, 52, 45, 60, 91, 244, 340, 240]
36.139[78, 52, 45, 59, 86, 250, 378, 243]
36.162[77, 49, 44, 57, 90, 299, 362, 231]
36.185[78, 50, 42, 52, 90, 275, 338, 216]
36.199[81, 55, 47, 65, 101, 256, 348, 227]
36.222[85, 62, 50, 68, 100, 246, 350, 236]
36.245[83, 58, 48, 73, 122, 297, 332, 226]
36.26[85, 59, 50, 77, 126, 277, 399, 249]
36.282[81, 62, 54, 81, 131, 268, 430, 246]
36.304[70, 56, 47, 70, 122, 270, 431, 222]
36.319[66, 50, 43, 64, 123, 263, 394, 216]
36.342[71, 53, 42, 59, 104, 200, 398, 216]
36.364[72, 53, 40, 53, 96, 176, 354, 201]
36.379[71, 47, 34, 52, 90, 174, 325, 201]
36.402[74, 47, 37, 54, 93, 160, 310, 226]
36.425[76, 52, 42, 58, 95, 198, 366, 218]
36.439[73, 50, 45, 61, 101, 213, 353, 242]
36.462[71, 51, 46, 62, 98, 246, 336, 233]
36.484[74, 54, 46, 60, 95, 258, 366, 258]
36.508[73, 56, 47, 65, 95, 259, 363, 242]
36.523[71, 54, 44, 66, 102, 242, 312, 241]
36.544[69, 54, 44, 68, 98, 223, 307, 211]
36.56[77, 55, 48, 70, 100, 189, 306, 233]
36.581[82, 63, 56, 77, 116, 175, 288, 205]
36.611[80, 65, 61, 76, 121, 189, 308, 216]
36.62[87, 63, 61, 74, 115, 175, 299, 215]
36.641[90, 65, 63, 78, 123, 178, 317, 211]
36.664[81, 65, 63, 77, 125, 154, 323, 180]
36.68[76, 55, 55, 70, 108, 141, 319, 176]
36.701[93, 64, 55, 71, 110, 181, 341, 214]
36.724[84, 61, 53, 68, 107, 187, 360, 216]
36.74[80, 60, 49, 55, 93, 201, 331, 217]
36.761[83, 61, 48, 58, 93, 224, 351, 219]
36.785[84, 63, 49, 62, 98, 226, 341, 223]
36.8[76, 58, 41, 55, 88, 180, 299, 181]
36.821[84, 62, 48, 58, 91, 212, 277, 216]
36.844[85, 61, 48, 59, 92, 205, 302, 238]
36.86[82, 57, 49, 58, 85, 186, 263, 238]
36.889[87, 64, 50, 54, 83, 176, 317, 238]
36.903[76, 56, 50, 57, 83, 177, 317, 245]
36.92[65, 51, 46, 55, 83, 156, 319, 208]
36.941[66, 52, 48, 60, 85, 156, 325, 212]
36.964[63, 58, 49, 58, 93, 182, 338, 213]
36.98[52, 46, 49, 61, 91, 180, 300, 203]
37.001[56, 48, 48, 61, 98, 188, 280, 182]
37.024[60, 52, 48, 60, 107, 212, 308, 173]
37.04[63, 54, 46, 57, 105, 209, 302, 158]
37.062[68, 51, 46, 65, 103, 205, 333, 166]
37.084[67, 52, 45, 69, 113, 218, 318, 167]
37.106[66, 51, 45, 71, 116, 251, 339, 174]
37.121[61, 48, 43, 70, 104, 219, 343, 182]
37.143[69, 49, 49, 76, 113, 244, 371, 174]
37.167[68, 49, 47, 70, 114, 243, 335, 162]
37.181[72, 51, 46, 63, 110, 240, 336, 158]
37.204[76, 54, 48, 62, 101, 207, 324, 180]
37.234[81, 57, 50, 63, 102, 211, 341, 187]
37.241[73, 52, 44, 54, 97, 210, 318, 222]
37.272[83, 57, 47, 57, 96, 219, 389, 270]
37.286[81, 52, 47, 59, 99, 243, 407, 285]
37.301[77, 51, 44, 54, 100, 239, 441, 284]
37.324[73, 48, 44, 54, 98, 238, 429, 273]
37.346[75, 53, 48, 56, 98, 244, 475, 257]
37.361[75, 49, 44, 56, 105, 256, 432, 246]
37.383[74, 51, 44, 53, 97, 229, 430, 228]
37.406[78, 48, 42, 58, 105, 234, 401, 245]
37.421[80, 50, 43, 61, 111, 232, 398, 262]
37.446[81, 46, 38, 59, 114, 226, 324, 256]
37.466[75, 46, 36, 56, 103, 198, 297, 236]
37.482[79, 51, 39, 58, 100, 199, 366, 252]
37.504[81, 54, 42, 55, 89, 230, 362, 233]
37.526[78, 51, 42, 54, 82, 252, 340, 213]
37.541[80, 54, 43, 53, 78, 237, 352, 207]
37.564[73, 53, 44, 61, 79, 237, 365, 182]
37.586[71, 51, 43, 61, 87, 255, 285, 179]
37.601[67, 52, 43, 62, 88, 232, 341, 155]
37.624[74, 55, 45, 63, 86, 203, 348, 197]
37.646[68, 50, 44, 63, 90, 201, 338, 192]
37.661[86, 64, 52, 69, 109, 242, 390, 195]
37.684[86, 64, 52, 67, 108, 238, 435, 195]
37.706[91, 66, 55, 72, 114, 251, 455, 201]
37.722[93, 64, 51, 68, 115, 257, 458, 194]
37.744[91, 67, 52, 66, 109, 291, 488, 197]
37.766[80, 57, 48, 58, 94, 258, 452, 208]
37.781[78, 57, 47, 58, 89, 248, 405, 221]
37.804[74, 52, 44, 54, 96, 239, 345, 229]
37.826[67, 54, 45, 55, 96, 234, 329, 209]
37.841[74, 57, 45, 59, 104, 197, 295, 211]
37.864[70, 52, 39, 53, 101, 189, 312, 222]
37.894[73, 53, 40, 58, 110, 202, 320, 216]
37.901[68, 53, 40, 56, 99, 175, 288, 211]
37.931[66, 50, 39, 56, 108, 232, 290, 217]
37.946[63, 49, 42, 54, 99, 244, 275, 212]
37.961[68, 49, 44, 56, 105, 253, 254, 199]
37.983[70, 50, 45, 55, 97, 244, 264, 215]
38.006[76, 52, 47, 58, 99, 248, 266, 221]
38.037[78, 55, 47, 58, 93, 226, 306, 224]
38.044[74, 54, 44, 56, 93, 197, 347, 218]
38.068[70, 55, 43, 51, 81, 189, 352, 223]
38.089[66, 56, 45, 54, 89, 190, 321, 179]
38.103[63, 53, 41, 50, 84, 212, 346, 183]
38.126[69, 53, 42, 48, 80, 216, 321, 194]
38.149[72, 53, 44, 51, 87, 222, 268, 242]
38.171[73, 54, 46, 56, 94, 256, 275, 230]
38.186[72, 50, 42, 50, 87, 251, 326, 242]
38.209[70, 50, 42, 51, 92, 242, 306, 230]
38.224[61, 47, 42, 55, 101, 214, 299, 207]
38.246[61, 46, 42, 55, 98, 218, 304, 160]
38.277[61, 42, 40, 52, 91, 167, 280, 157]
38.283[59, 42, 41, 56, 93, 221, 228, 158]
38.306[60, 40, 41, 53, 90, 221, 244, 182]
38.337[62, 41, 40, 50, 84, 218, 233, 198]
38.344[65, 46, 48, 60, 103, 248, 317, 209]
38.366[58, 44, 47, 59, 111, 264, 325, 208]
38.388[59, 45, 46, 62, 114, 227, 340, 212]
38.405[59, 45, 47, 63, 113, 218, 329, 192]
38.426[63, 46, 49, 66, 111, 244, 392, 185]
38.449[57, 40, 40, 61, 105, 217, 367, 168]
38.464[61, 43, 39, 60, 103, 236, 422, 179]
38.486[61, 43, 40, 54, 97, 243, 478, 189]
38.509[62, 46, 41, 57, 100, 256, 498, 186]
38.524[60, 47, 41, 56, 102, 256, 468, 208]
38.554[60, 46, 41, 50, 93, 260, 449, 207]
38.569[61, 45, 40, 48, 87, 227, 389, 196]
38.584[60, 43, 39, 46, 85, 219, 313, 194]
38.606[73, 49, 46, 57, 85, 221, 295, 201]
38.629[66, 46, 45, 57, 81, 224, 268, 164]
38.645[67, 48, 46, 61, 100, 220, 261, 190]
38.666[68, 52, 49, 62, 99, 215, 274, 196]
38.689[73, 55, 51, 63, 105, 215, 296, 175]
38.704[60, 50, 44, 52, 99, 200, 295, 167]
38.726[69, 56, 49, 55, 106, 190, 303, 202]
38.749[76, 58, 49, 51, 88, 240, 293, 190]
38.763[76, 56, 48, 54, 92, 277, 319, 184]
38.786[74, 53, 45, 54, 94, 283, 275, 183]
38.809[75, 54, 47, 61, 103, 285, 280, 179]
38.832[75, 53, 46, 65, 118, 289, 332, 177]
38.855[68, 48, 46, 69, 130, 273, 378, 174]
38.869[66, 47, 46, 71, 130, 256, 357, 178]
38.884[71, 52, 47, 68, 124, 259, 408, 214]
38.906[69, 47, 43, 66, 130, 265, 449, 238]
38.929[71, 46, 40, 63, 123, 254, 423, 223]
38.943[73, 52, 39, 60, 110, 230, 407, 225]
38.966[73, 52, 42, 61, 115, 241, 426, 223]
38.989[72, 49, 44, 65, 115, 244, 439, 211]
39.012[72, 50, 44, 63, 108, 239, 423, 196]
39.026[72, 49, 42, 57, 99, 236, 411, 200]
39.049[66, 42, 42, 56, 96, 232, 406, 186]
39.072[69, 44, 41, 52, 95, 211, 393, 182]
39.086[62, 43, 37, 48, 99, 217, 334, 154]
39.109[67, 45, 39, 46, 100, 224, 301, 143]
39.132[59, 43, 39, 46, 94, 232, 314, 112]
39.146[61, 46, 41, 55, 110, 250, 291, 108]
39.177[65, 48, 41, 62, 123, 330, 289, 130]
39.192[65, 53, 49, 79, 163, 355, 299, 137]
39.214[68, 57, 52, 83, 177, 375, 287, 160]
39.229[67, 58, 54, 84, 178, 369, 271, 173]
39.252[69, 61, 56, 81, 170, 358, 261, 177]
39.266[65, 63, 56, 75, 160, 314, 269, 173]
39.289[69, 60, 54, 58, 123, 285, 269, 177]
39.312[62, 56, 51, 57, 97, 264, 292, 165]
39.326[65, 55, 48, 55, 98, 255, 361, 189]
39.349[66, 57, 49, 55, 100, 253, 375, 186]
39.372[66, 54, 49, 60, 105, 244, 357, 191]
39.386[62, 51, 47, 63, 113, 244, 368, 197]
39.409[67, 58, 54, 70, 124, 240, 365, 201]
39.432[66, 58, 54, 68, 131, 267, 338, 176]
39.446[72, 50, 49, 66, 126, 261, 330, 189]
39.469[72, 50, 47, 62, 116, 245, 335, 182]
39.492[73, 51, 49, 70, 106, 239, 341, 182]
39.506[74, 39, 41, 95, 108, 220, 327, 175]
39.529[77, 51, 76, 174, 154, 192, 309, 175]
39.552[76, 65, 107, 251, 247, 193, 297, 160]
39.566[87, 93, 167, 383, 341, 174, 273, 154]
39.589[87, 99, 177, 472, 373, 146, 216, 128]
39.612[90, 124, 222, 608, 438, 155, 190, 104]
39.626[88, 126, 227, 620, 437, 142, 116, 89]
39.649[88, 137, 239, 672, 424, 142, 111, 82]
39.672[76, 122, 207, 621, 358, 120, 102, 65]
39.686[72, 120, 202, 576, 333, 112, 91, 60]
39.708[59, 94, 153, 448, 240, 88, 71, 53]
39.732[51, 84, 133, 440, 221, 79, 61, 45]
39.746[34, 50, 79, 316, 152, 47, 34, 31]
39.769[27, 38, 61, 290, 139, 43, 30, 27]
39.792[24, 27, 46, 247, 104, 35, 24, 23]
39.806[23, 25, 41, 202, 86, 29, 21, 25]
39.829[21, 23, 32, 110, 53, 27, 21, 23]
39.852[22, 22, 31, 75, 34, 25, 18, 21]
39.874[22, 23, 29, 70, 32, 24, 19, 23]
39.889[21, 21, 26, 68, 31, 23, 20, 23]
39.912[22, 19, 24, 56, 32, 23, 21, 21]
39.942[21, 20, 22, 56, 33, 20, 21, 22]
39.948[20, 20, 20, 57, 32, 19, 21, 21]
39.973[18, 19, 21, 48, 29, 18, 19, 19]
39.995[18, 20, 20, 45, 28, 19, 19, 19]
40.009[16, 21, 20, 44, 25, 20, 19, 18]
40.032[15, 20, 19, 33, 21, 21, 19, 17]
40.054[17, 20, 20, 25, 20, 21, 19, 18]
40.069[17, 20, 19, 23, 20, 21, 21, 19]
40.092[16, 19, 20, 23, 20, 19, 20, 20]
40.114[17, 19, 20, 23, 20, 19, 20, 21]
40.129[16, 19, 20, 22, 20, 16, 20, 21]
40.152[17, 21, 18, 22, 22, 16, 20, 20]
40.174[18, 22, 18, 20, 21, 16, 18, 25]
40.189[20, 22, 20, 17, 22, 18, 20, 29]
40.219[20, 21, 18, 17, 22, 18, 20, 28]
40.235[22, 21, 20, 17, 23, 20, 20, 28]
40.249[19, 18, 21, 18, 23, 21, 19, 29]
40.272[20, 18, 21, 18, 21, 20, 20, 26]
40.294[18, 18, 20, 19, 24, 20, 18, 20]
40.309[19, 19, 22, 20, 24, 20, 16, 21]
40.332[19, 18, 22, 19, 23, 19, 15, 21]
40.354[21, 19, 20, 17, 24, 19, 16, 21]
40.369[20, 18, 21, 19, 25, 19, 16, 21]
40.392[19, 17, 20, 20, 21, 19, 16, 22]
40.414[19, 16, 20, 21, 21, 20, 17, 21]
40.428[17, 18, 21, 22, 21, 21, 19, 22]
40.452[19, 18, 21, 21, 19, 22, 18, 22]
40.474[19, 21, 20, 22, 17, 23, 19, 21]
40.497[20, 21, 21, 22, 18, 22, 21, 21]
40.512[21, 22, 22, 20, 19, 22, 20, 20]
40.534[23, 21, 21, 21, 17, 22, 21, 19]
40.549[21, 21, 22, 23, 18, 22, 21, 17]
40.572[21, 19, 22, 21, 19, 20, 21, 18]
40.594[21, 20, 23, 21, 20, 20, 20, 16]
40.609[21, 20, 21, 21, 18, 17, 22, 17]
40.632[20, 21, 24, 21, 19, 16, 22, 18]
40.654[19, 20, 24, 20, 17, 16, 22, 18]
40.669[21, 21, 25, 23, 18, 16, 22, 17]
40.692[21, 20, 25, 22, 16, 16, 21, 19]
40.714[20, 19, 25, 22, 17, 17, 18, 19]
40.729[19, 21, 22, 21, 18, 19, 19, 18]
40.752[20, 21, 22, 21, 19, 19, 20, 18]
40.774[17, 21, 21, 18, 20, 20, 22, 20]
40.789[17, 20, 22, 18, 21, 19, 21, 19]
40.812[16, 19, 24, 18, 21, 20, 21, 20]
40.834[15, 19, 24, 18, 21, 18, 21, 20]
40.849[16, 20, 23, 19, 20, 17, 20, 20]
40.879[18, 19, 22, 22, 21, 18, 19, 19]
40.894[17, 20, 20, 22, 22, 21, 19, 21]
40.917[18, 22, 18, 22, 20, 21, 19, 20]
40.932[18, 21, 18, 26, 21, 21, 17, 18]
40.954[17, 20, 20, 24, 21, 25, 18, 20]
40.977[15, 20, 21, 22, 20, 23, 19, 20]
40.992[17, 21, 21, 23, 19, 21, 19, 18]
41.014[16, 21, 21, 22, 21, 21, 21, 19]
41.037[18, 21, 21, 17, 20, 22, 22, 20]
41.052[18, 22, 21, 18, 18, 19, 22, 19]
41.074[18, 22, 20, 19, 18, 20, 21, 18]
41.097[19, 21, 22, 20, 18, 20, 21, 20]
41.112[19, 19, 22, 20, 17, 20, 21, 19]
41.135[18, 18, 20, 21, 17, 18, 19, 19]
41.157[19, 15, 20, 20, 19, 18, 19, 19]
41.172[22, 19, 19, 21, 19, 18, 19, 20]
41.195[22, 19, 19, 20, 19, 18, 19, 19]
41.217[21, 19, 20, 19, 21, 21, 20, 18]
41.232[21, 20, 19, 21, 22, 20, 21, 18]
41.254[21, 21, 21, 23, 21, 20, 22, 19]
41.277[20, 19, 20, 21, 22, 20, 23, 17]
41.292[18, 19, 20, 20, 21, 19, 24, 16]
41.315[19, 21, 18, 19, 18, 17, 24, 20]
41.337[21, 19, 20, 19, 17, 18, 22, 22]
41.351[21, 18, 18, 17, 17, 19, 21, 21]
41.374[20, 16, 18, 19, 17, 18, 21, 21]
41.397[20, 17, 19, 19, 16, 18, 20, 21]
41.411[20, 18, 21, 22, 17, 19, 20, 18]
41.434[18, 19, 20, 20, 18, 18, 19, 17]
41.464[16, 21, 20, 20, 18, 16, 19, 17]
41.478[17, 21, 20, 18, 20, 17, 22, 18]
41.501[17, 21, 20, 22, 22, 18, 20, 20]
41.516[18, 20, 19, 21, 21, 17, 20, 22]
41.539[17, 19, 20, 22, 21, 18, 21, 21]
41.555[20, 18, 22, 22, 21, 19, 23, 24]
41.576[19, 18, 22, 24, 19, 18, 20, 23]
41.599[20, 21, 22, 21, 21, 19, 20, 23]
41.615[19, 20, 21, 20, 21, 18, 21, 23]
41.636[20, 20, 19, 20, 22, 20, 20, 24]
41.653[18, 22, 18, 21, 23, 20, 19, 21]
41.675[19, 24, 18, 19, 25, 21, 21, 24]
41.697[18, 22, 19, 19, 22, 20, 21, 22]
41.712[19, 22, 20, 19, 23, 21, 21, 22]
41.735[20, 23, 21, 19, 23, 20, 21, 21]
41.756[19, 22, 21, 16, 22, 20, 20, 20]
41.78[20, 20, 22, 18, 20, 19, 20, 18]
41.795[19, 21, 21, 20, 21, 22, 19, 18]
41.816[17, 19, 23, 21, 22, 21, 19, 18]
41.839[17, 19, 22, 22, 20, 21, 17, 20]
41.855[17, 17, 23, 22, 20, 20, 18, 19]
41.876[16, 19, 23, 20, 21, 22, 16, 19]
41.898[17, 20, 22, 19, 18, 19, 17, 20]
41.915[19, 19, 21, 18, 18, 19, 18, 21]
41.936[19, 20, 22, 18, 17, 20, 20, 21]
41.958[19, 22, 21, 19, 18, 20, 21, 21]
41.973[19, 22, 19, 20, 17, 20, 22, 22]
41.996[19, 20, 20, 20, 21, 22, 21, 20]
42.018[17, 21, 20, 18, 21, 22, 23, 19]
42.035[18, 20, 20, 19, 22, 21, 22, 17]
42.056[18, 21, 20, 19, 22, 20, 21, 16]
42.079[19, 20, 22, 20, 21, 19, 21, 16]
42.094[20, 21, 22, 20, 19, 16, 20, 16]
42.124[20, 19, 20, 22, 19, 18, 18, 17]
42.138[21, 20, 19, 22, 19, 19, 19, 18]
42.153[19, 20, 20, 22, 18, 18, 17, 19]
42.176[19, 19, 19, 22, 19, 21, 17, 19]
42.2[19, 18, 18, 22, 17, 20, 18, 19]
42.213[19, 20, 18, 21, 18, 19, 18, 18]
42.236[20, 19, 18, 21, 19, 17, 19, 18]
42.258[22, 18, 18, 22, 18, 19, 19, 19]
42.273[21, 18, 18, 21, 18, 16, 20, 18]
42.304[22, 19, 18, 21, 19, 16, 20, 19]
42.319[23, 18, 17, 22, 19, 17, 22, 20]
42.335[22, 18, 19, 21, 18, 17, 21, 18]
42.357[21, 18, 18, 21, 18, 17, 22, 19]
42.378[21, 17, 19, 21, 18, 17, 21, 20]
42.393[20, 18, 20, 20, 19, 19, 20, 18]
42.416[20, 17, 21, 18, 18, 19, 17, 20]
42.438[21, 17, 20, 19, 20, 19, 18, 45]
42.454[27, 18, 20, 19, 21, 21, 22, 84]
42.476[27, 18, 22, 21, 22, 20, 21, 87]
42.498[28, 19, 21, 22, 21, 19, 22, 89]
42.513[28, 19, 21, 22, 23, 18, 23, 90]
42.536[26, 19, 24, 21, 25, 18, 22, 81]
42.559[21, 19, 23, 19, 24, 16, 16, 44]
42.573[21, 20, 21, 19, 24, 17, 17, 43]
42.596[21, 18, 20, 20, 26, 16, 17, 47]
42.619[20, 19, 21, 20, 24, 18, 18, 47]
42.634[21, 19, 16, 19, 22, 19, 22, 49]
42.656[20, 21, 18, 20, 22, 18, 22, 43]
42.678[21, 19, 18, 21, 21, 19, 21, 40]
42.693[20, 21, 17, 20, 22, 20, 20, 33]
42.718[22, 22, 17, 19, 21, 19, 21, 34]
42.74[21, 21, 17, 22, 22, 19, 19, 28]
42.753[22, 19, 18, 24, 23, 19, 18, 30]
42.776[24, 19, 20, 22, 23, 19, 18, 30]
42.798[23, 20, 21, 22, 21, 18, 20, 25]
42.821[21, 20, 20, 23, 22, 19, 16, 23]
42.836[20, 20, 21, 24, 20, 18, 17, 25]
42.858[19, 22, 21, 22, 20, 20, 18, 23]
42.881[18, 22, 21, 23, 20, 19, 19, 20]
42.896[18, 21, 19, 23, 20, 21, 20, 23]
42.918[18, 19, 21, 25, 19, 20, 21, 23]
42.941[19, 20, 22, 22, 20, 20, 19, 20]
42.956[20, 17, 21, 22, 19, 20, 20, 20]
42.978[21, 19, 19, 22, 20, 20, 22, 24]
43.001[20, 19, 20, 21, 19, 20, 20, 21]
43.016[21, 21, 17, 19, 20, 19, 20, 21]
43.039[20, 23, 15, 21, 20, 18, 19, 23]
43.061[19, 24, 18, 21, 20, 17, 18, 23]
43.076[17, 23, 19, 20, 21, 18, 16, 19]
43.1[16, 22, 19, 22, 20, 17, 17, 18]
43.121[15, 22, 23, 21, 20, 18, 18, 21]
43.142[15, 21, 23, 20, 22, 19, 18, 20]
43.158[15, 20, 21, 19, 22, 20, 17, 20]
43.181[14, 20, 21, 20, 20, 18, 19, 22]
43.196[15, 20, 22, 19, 21, 17, 21, 25]
43.219[17, 18, 21, 20, 22, 16, 21, 24]
43.245[18, 19, 22, 21, 19, 14, 21, 27]
43.258[18, 18, 21, 20, 19, 16, 20, 27]
43.278[19, 19, 21, 18, 20, 17, 19, 25]
43.301[19, 18, 20, 19, 21, 18, 17, 22]
43.316[18, 18, 20, 17, 21, 20, 18, 24]
43.338[18, 17, 20, 17, 22, 20, 17, 21]
43.361[18, 18, 22, 18, 22, 19, 20, 23]
43.377[19, 18, 21, 18, 21, 19, 20, 24]
43.398[18, 20, 22, 20, 20, 18, 21, 25]
43.421[18, 20, 22, 21, 20, 17, 19, 23]
43.436[17, 23, 22, 22, 21, 16, 20, 21]
43.459[18, 22, 21, 21, 21, 16, 18, 19]
43.481[18, 22, 21, 22, 21, 16, 16, 22]
43.496[20, 22, 21, 21, 20, 15, 18, 21]
43.518[20, 23, 23, 21, 20, 16, 18, 19]
43.549[23, 21, 22, 19, 19, 17, 18, 20]
43.556[23, 22, 20, 20, 19, 19, 19, 20]
43.579[23, 22, 21, 18, 18, 18, 19, 19]
43.601[21, 22, 20, 18, 19, 20, 18, 20]
43.616[22, 22, 18, 18, 18, 20, 19, 19]
43.638[19, 22, 20, 19, 17, 19, 19, 21]
43.661[20, 22, 20, 21, 17, 19, 20, 21]
43.676[19, 21, 19, 20, 19, 21, 20, 20]
43.698[21, 22, 21, 22, 17, 20, 21, 20]
43.721[20, 21, 21, 21, 19, 21, 21, 21]
43.744[20, 20, 21, 19, 22, 21, 22, 23]
43.758[18, 21, 20, 18, 22, 20, 21, 21]
43.781[20, 22, 20, 19, 20, 21, 22, 21]
43.804[17, 20, 18, 17, 21, 22, 20, 21]
43.827[17, 20, 19, 18, 19, 19, 20, 19]
43.841[17, 18, 19, 19, 18, 20, 19, 16]
43.864[18, 19, 21, 18, 17, 21, 20, 21]
43.878[17, 18, 21, 19, 20, 21, 21, 21]
43.901[18, 18, 22, 17, 21, 20, 20, 20]
43.932[19, 18, 22, 18, 21, 20, 19, 23]
43.938[20, 21, 20, 18, 20, 21, 19, 23]
43.961[21, 21, 21, 20, 23, 18, 18, 19]
43.984[23, 22, 21, 20, 21, 18, 17, 19]
43.998[22, 24, 21, 21, 20, 19, 16, 20]
44.021[21, 23, 20, 21, 20, 21, 17, 17]
44.045[22, 22, 20, 21, 20, 22, 17, 18]
44.066[21, 21, 19, 19, 17, 22, 17, 18]
44.081[18, 20, 19, 17, 17, 23, 18, 19]
44.105[19, 17, 18, 18, 17, 23, 18, 19]
44.119[21, 19, 20, 17, 17, 21, 19, 19]
44.141[19, 18, 21, 16, 19, 19, 19, 18]
44.164[20, 18, 21, 19, 20, 20, 18, 20]
44.178[21, 19, 23, 20, 23, 18, 17, 24]
44.201[22, 19, 23, 20, 23, 20, 18, 24]
44.225[20, 19, 21, 21, 22, 20, 17, 25]
44.238[21, 20, 21, 23, 22, 21, 17, 26]
44.261[20, 20, 23, 21, 20, 21, 17, 25]
44.284[21, 20, 21, 20, 17, 21, 18, 20]
44.298[21, 21, 20, 18, 18, 19, 17, 20]
44.321[21, 21, 20, 18, 18, 18, 19, 18]
44.351[19, 21, 20, 16, 17, 18, 18, 17]
44.358[20, 21, 18, 17, 20, 19, 19, 17]
44.381[20, 21, 18, 18, 22, 17, 19, 21]
44.405[20, 22, 19, 19, 21, 20, 19, 22]
44.418[19, 21, 20, 22, 21, 20, 18, 22]
44.441[21, 21, 21, 22, 21, 19, 19, 22]
44.464[21, 22, 22, 22, 18, 18, 19, 22]
44.478[20, 22, 23, 23, 18, 18, 18, 21]
44.501[18, 21, 21, 23, 19, 16, 19, 19]
44.524[18, 22, 22, 21, 20, 18, 19, 20]
44.538[16, 20, 20, 22, 21, 19, 17, 22]
44.562[15, 19, 20, 21, 22, 20, 19, 21]
44.584[15, 20, 22, 19, 20, 19, 21, 20]
44.599[16, 20, 22, 20, 20, 18, 18, 21]
44.637[18, 20, 20, 19, 21, 17, 17, 21]
44.644[19, 20, 20, 18, 20, 17, 19, 20]
44.667[20, 21, 20, 19, 20, 15, 19, 21]
44.681[21, 19, 19, 20, 21, 17, 17, 20]
44.704[21, 21, 20, 19, 21, 19, 17, 20]
44.727[21, 21, 20, 18, 19, 19, 18, 19]
44.741[21, 21, 25, 19, 20, 19, 17, 18]
44.764[19, 22, 24, 20, 21, 19, 17, 19]
44.787[18, 24, 23, 20, 20, 17, 19, 19]
44.801[20, 23, 23, 21, 18, 18, 19, 20]
44.824[19, 23, 24, 21, 18, 19, 21, 22]
44.847[19, 25, 19, 22, 18, 18, 19, 23]
44.861[21, 23, 22, 21, 18, 18, 19, 22]
44.884[22, 23, 22, 20, 17, 20, 21, 23]
44.907[20, 22, 23, 18, 20, 20, 22, 22]
44.921[22, 22, 24, 21, 21, 20, 21, 21]
44.944[21, 21, 22, 21, 20, 21, 22, 20]
44.967[21, 21, 20, 19, 21, 22, 23, 18]
44.981[20, 22, 20, 20, 21, 21, 21, 18]
45.004[21, 23, 19, 20, 20, 21, 21, 18]
45.027[19, 23, 18, 17, 20, 21, 22, 17]
45.041[19, 22, 21, 18, 21, 20, 20, 18]
45.065[17, 21, 20, 19, 20, 19, 20, 18]
45.086[17, 20, 20, 18, 21, 20, 20, 18]
45.109[17, 18, 19, 19, 22, 19, 20, 18]
45.124[18, 17, 19, 19, 22, 19, 19, 20]
45.147[18, 17, 19, 18, 22, 20, 19, 19]
45.161[18, 18, 20, 19, 21, 23, 20, 19]
45.184[18, 18, 21, 19, 21, 21, 19, 19]
45.214[19, 20, 24, 19, 20, 21, 19, 19]
45.221[17, 18, 24, 22, 19, 21, 20, 17]
45.244[18, 20, 22, 23, 19, 20, 20, 19]
45.267[18, 20, 22, 23, 20, 18, 21, 19]
45.281[17, 20, 21, 22, 20, 19, 21, 20]
45.305[17, 20, 19, 23, 19, 19, 20, 19]
45.326[18, 21, 21, 21, 19, 20, 19, 20]
45.341[19, 19, 21, 19, 21, 20, 19, 20]
45.364[20, 19, 20, 21, 20, 19, 17, 20]
45.387[20, 19, 19, 21, 20, 19, 17, 19]
45.401[22, 19, 19, 19, 21, 18, 19, 19]
45.424[21, 19, 16, 20, 23, 18, 19, 18]
45.454[23, 19, 18, 21, 23, 18, 18, 17]
45.461[21, 19, 19, 19, 22, 19, 19, 16]
45.492[20, 21, 21, 18, 22, 18, 18, 17]
45.507[20, 20, 20, 19, 22, 18, 18, 16]
45.521[21, 20, 21, 17, 22, 17, 18, 18]
45.544[19, 20, 22, 18, 20, 16, 18, 18]
45.566[20, 20, 21, 18, 21, 16, 18, 18]
45.581[21, 19, 21, 17, 22, 16, 18, 16]
45.604[21, 19, 20, 19, 22, 18, 18, 17]
45.627[20, 22, 20, 20, 22, 16, 19, 18]
45.649[20, 24, 17, 21, 21, 17, 19, 18]
45.664[18, 25, 18, 21, 21, 17, 19, 18]
45.686[18, 24, 19, 22, 20, 18, 20, 19]
45.709[17, 25, 19, 22, 20, 18, 20, 20]
45.724[16, 22, 20, 21, 19, 19, 19, 18]
45.754[15, 20, 21, 20, 21, 19, 20, 18]
45.769[18, 20, 22, 20, 20, 20, 19, 19]
45.784[17, 20, 20, 19, 21, 19, 21, 19]
45.807[17, 19, 19, 17, 21, 18, 20, 17]
45.837[19, 19, 19, 18, 22, 17, 21, 17]
45.844[18, 20, 20, 17, 22, 18, 21, 18]
45.874[16, 20, 18, 18, 20, 19, 23, 19]
45.889[18, 21, 19, 19, 21, 18, 21, 18]
45.904[18, 20, 19, 20, 20, 18, 21, 19]
45.926[18, 21, 20, 21, 22, 18, 20, 18]
45.949[18, 21, 21, 21, 21, 19, 19, 18]
45.964[17, 20, 21, 20, 23, 18, 18, 19]
45.987[16, 19, 22, 20, 23, 19, 19, 19]
46.009[16, 19, 21, 19, 25, 18, 19, 18]
46.025[17, 17, 21, 19, 23, 21, 19, 18]
46.047[18, 17, 18, 18, 23, 20, 20, 20]
46.069[19, 18, 21, 16, 22, 20, 20, 20]
46.084[19, 17, 20, 17, 22, 21, 19, 20]
46.107[19, 17, 20, 17, 21, 22, 19, 20]
46.129[20, 19, 20, 15, 22, 21, 21, 19]
46.152[19, 18, 21, 17, 22, 20, 23, 18]
46.167[20, 19, 20, 19, 22, 20, 22, 18]
46.189[21, 20, 19, 19, 21, 18, 23, 22]
46.203[22, 20, 21, 20, 21, 17, 23, 22]
46.227[20, 21, 22, 23, 19, 16, 23, 22]
46.257[21, 21, 21, 22, 20, 17, 22, 21]
46.263[19, 23, 19, 20, 22, 17, 23, 21]
46.287[19, 22, 18, 22, 22, 18, 22, 17]
46.309[18, 22, 16, 23, 21, 18, 21, 17]
46.323[17, 23, 15, 22, 23, 17, 20, 18]
46.347[18, 23, 17, 22, 22, 16, 19, 20]
46.369[18, 21, 18, 23, 21, 15, 19, 18]
46.383[17, 21, 19, 24, 21, 14, 19, 18]
46.407[18, 21, 19, 22, 21, 17, 19, 20]
46.436[19, 19, 18, 20, 20, 19, 19, 20]
46.451[18, 19, 18, 19, 21, 19, 19, 21]
46.467[19, 20, 17, 18, 21, 19, 20, 22]
46.488[19, 22, 18, 17, 20, 21, 19, 23]
46.511[19, 23, 20, 18, 21, 18, 19, 21]
46.527[20, 23, 22, 19, 21, 18, 20, 20]
46.548[20, 22, 23, 19, 20, 21, 20, 18]
46.571[20, 21, 24, 21, 19, 20, 18, 18]
46.587[20, 19, 24, 20, 20, 20, 21, 19]
46.608[20, 19, 23, 19, 19, 20, 20, 20]
46.631[19, 20, 22, 21, 18, 20, 20, 19]
46.647[19, 21, 22, 21, 16, 20, 22, 19]
46.676[19, 20, 19, 20, 19, 20, 22, 17]
46.691[19, 21, 20, 20, 19, 20, 22, 15]
46.707[21, 20, 22, 20, 20, 21, 24, 18]
46.728[19, 20, 21, 19, 21, 19, 24, 17]
46.751[19, 19, 20, 19, 22, 17, 22, 19]
46.767[19, 19, 22, 23, 22, 19, 22, 20]
46.788[22, 18, 20, 26, 21, 20, 22, 19]
46.811[20, 20, 20, 26, 22, 20, 21, 18]
46.835[19, 20, 20, 26, 22, 22, 18, 18]
46.848[19, 20, 20, 27, 22, 23, 19, 17]
46.871[19, 19, 19, 23, 21, 21, 20, 17]
46.887[17, 20, 19, 21, 21, 20, 18, 18]
46.909[19, 17, 20, 21, 22, 19, 18, 17]
46.931[20, 17, 21, 22, 21, 18, 19, 17]
46.947[20, 18, 21, 19, 20, 18, 18, 16]
46.969[20, 18, 21, 19, 19, 20, 16, 17]
46.991[19, 19, 22, 19, 18, 20, 15, 17]
47.007[17, 19, 21, 19, 18, 21, 18, 18]
47.028[17, 20, 21, 19, 18, 20, 17, 18]
47.051[21, 20, 21, 24, 19, 20, 17, 18]
47.067[20, 20, 22, 25, 19, 19, 19, 17]
47.088[20, 20, 23, 25, 20, 18, 20, 16]
47.111[22, 19, 20, 23, 19, 18, 17, 18]
47.127[22, 19, 21, 23, 20, 19, 17, 18]
47.156[20, 19, 22, 18, 21, 21, 19, 18]
47.172[20, 19, 21, 16, 20, 20, 17, 18]
47.187[21, 17, 20, 15, 20, 22, 18, 19]
47.209[19, 19, 22, 17, 23, 22, 20, 18]
47.231[20, 19, 21, 17, 22, 22, 20, 17]
47.247[20, 18, 20, 18, 22, 19, 20, 18]
47.268[19, 17, 22, 18, 22, 20, 20, 17]
47.291[19, 19, 21, 20, 23, 19, 18, 16]
47.307[19, 18, 23, 20, 20, 20, 19, 16]
47.33[19, 17, 23, 19, 20, 20, 17, 17]
47.351[19, 18, 21, 18, 20, 22, 16, 16]
47.366[20, 21, 22, 17, 20, 22, 18, 18]
47.39[20, 21, 22, 19, 20, 21, 18, 22]
47.411[20, 21, 19, 22, 23, 20, 17, 21]
47.433[21, 21, 19, 23, 23, 19, 18, 22]
47.449[20, 22, 19, 27, 24, 20, 19, 22]
47.471[18, 19, 17, 29, 24, 19, 17, 21]
47.486[20, 20, 17, 27, 24, 18, 17, 18]
47.51[20, 19, 17, 25, 22, 19, 19, 19]
47.531[19, 20, 20, 24, 21, 19, 19, 20]
47.553[19, 21, 20, 23, 21, 18, 19, 21]
47.576[20, 22, 21, 23, 22, 18, 21, 24]
47.591[19, 21, 22, 23, 22, 18, 21, 23]
47.613[20, 22, 22, 23, 21, 17, 19, 22]
47.628[18, 22, 22, 23, 25, 17, 21, 22]
47.651[21, 19, 24, 34, 26, 17, 21, 22]
47.681[20, 19, 24, 59, 27, 18, 19, 21]
47.688[19, 20, 25, 70, 43, 27, 19, 22]
47.711[18, 21, 25, 70, 46, 27, 20, 22]
47.733[19, 21, 24, 72, 46, 28, 19, 22]
47.748[16, 22, 23, 72, 49, 29, 17, 20]
47.779[16, 24, 27, 58, 67, 32, 18, 19]
47.794[17, 28, 30, 49, 68, 31, 19, 19]
47.808[20, 30, 32, 52, 68, 33, 21, 20]
47.831[20, 30, 32, 55, 68, 33, 21, 20]
47.853[20, 30, 31, 55, 68, 32, 21, 20]
47.868[22, 29, 29, 53, 50, 29, 21, 21]
47.891[22, 26, 26, 73, 36, 24, 20, 21]
47.913[20, 22, 26, 75, 33, 22, 19, 22]
47.928[23, 23, 26, 74, 32, 20, 18, 23]
47.951[23, 22, 26, 72, 27, 21, 18, 23]
47.973[22, 21, 25, 72, 26, 23, 18, 23]
47.988[21, 20, 24, 48, 25, 22, 16, 23]
48.011[21, 21, 22, 43, 23, 23, 16, 20]
48.033[18, 22, 24, 40, 25, 23, 17, 20]
48.048[18, 21, 25, 38, 25, 23, 18, 22]
48.071[18, 20, 26, 34, 23, 21, 17, 23]
48.093[19, 19, 25, 36, 24, 20, 18, 21]
48.108[18, 19, 24, 35, 26, 19, 17, 22]
48.131[19, 19, 23, 38, 24, 20, 18, 22]
48.153[20, 20, 21, 38, 27, 20, 17, 19]
48.169[20, 23, 21, 40, 30, 22, 18, 16]
48.191[19, 23, 23, 42, 32, 22, 18, 17]
48.213[19, 23, 23, 45, 30, 22, 19, 16]
48.228[20, 21, 22, 42, 30, 22, 20, 18]
48.251[20, 21, 23, 41, 28, 20, 21, 18]
48.273[18, 20, 22, 39, 27, 20, 21, 18]
48.289[18, 21, 20, 36, 24, 19, 20, 18]
48.311[20, 21, 21, 30, 23, 20, 20, 19]
48.333[18, 21, 21, 27, 23, 20, 18, 18]
48.348[18, 22, 21, 27, 22, 20, 19, 20]
48.371[21, 22, 21, 27, 22, 19, 18, 21]
48.393[20, 21, 24, 25, 21, 19, 20, 20]
48.408[19, 20, 22, 25, 21, 20, 20, 18]
48.44[20, 20, 22, 25, 21, 18, 20, 19]
48.453[21, 21, 22, 24, 20, 18, 18, 17]
48.476[19, 20, 21, 23, 19, 18, 18, 19]
48.491[20, 21, 19, 19, 20, 18, 17, 19]
48.521[20, 21, 19, 21, 20, 17, 16, 20]
48.545[19, 21, 20, 19, 20, 19, 18, 19]
48.551[20, 19, 19, 20, 20, 19, 19, 21]
48.573[19, 19, 19, 27, 23, 20, 20, 18]
48.596[19, 20, 20, 36, 23, 22, 19, 19]
48.611[20, 20, 21, 38, 24, 23, 20, 21]
48.633[20, 21, 21, 40, 24, 21, 20, 20]
48.656[20, 21, 22, 43, 24, 22, 20, 19]
48.679[20, 22, 21, 42, 22, 22, 19, 21]
48.693[21, 23, 24, 36, 20, 21, 18, 19]
48.716[20, 22, 24, 35, 20, 21, 18, 18]
48.732[21, 23, 22, 34, 20, 21, 16, 18]
48.753[20, 23, 23, 31, 21, 20, 16, 19]
48.776[19, 23, 23, 28, 20, 19, 21, 21]
48.799[20, 22, 20, 27, 21, 20, 22, 20]
48.829[19, 22, 20, 24, 21, 20, 21, 20]
48.836[19, 21, 22, 24, 21, 21, 22, 21]
48.852[19, 20, 21, 21, 20, 22, 23, 21]
48.873[20, 21, 22, 21, 21, 21, 18, 16]
48.896[18, 19, 24, 19, 20, 19, 19, 19]
48.911[19, 19, 24, 21, 19, 18, 21, 19]
48.933[18, 19, 23, 17, 21, 17, 20, 19]
48.964[19, 20, 23, 19, 20, 17, 20, 20]
48.971[21, 19, 22, 20, 18, 17, 21, 22]
48.993[21, 19, 21, 23, 18, 18, 21, 19]
49.016[21, 19, 22, 23, 19, 17, 20, 18]
49.031[24, 17, 21, 22, 16, 18, 20, 18]
49.062[23, 19, 19, 23, 17, 20, 19, 16]
49.076[20, 20, 19, 22, 20, 20, 19, 16]
49.108[21, 20, 17, 21, 21, 18, 17, 17]
49.113[21, 21, 16, 21, 21, 18, 17, 19]
49.136[17, 20, 17, 20, 22, 19, 18, 19]
49.151[16, 20, 19, 21, 22, 17, 17, 19]
49.173[19, 20, 20, 22, 20, 17, 17, 18]
49.197[21, 22, 21, 19, 19, 17, 18, 17]
49.211[21, 22, 20, 19, 18, 20, 17, 18]
49.233[22, 24, 19, 20, 20, 18, 18, 18]
49.256[23, 23, 18, 18, 20, 18, 19, 18]
49.279[20, 23, 18, 17, 20, 19, 20, 18]
49.293[19, 22, 19, 19, 20, 19, 20, 18]
49.317[18, 21, 19, 19, 20, 18, 19, 17]
49.331[20, 21, 20, 21, 19, 19, 17, 18]
49.361[19, 21, 21, 21, 19, 19, 18, 18]
49.377[19, 20, 21, 22, 21, 20, 16, 17]
49.399[19, 20, 18, 21, 20, 20, 17, 18]
49.413[19, 23, 21, 22, 21, 20, 18, 19]
49.444[17, 22, 20, 21, 21, 18, 19, 18]
49.459[19, 24, 19, 25, 22, 18, 18, 17]
49.481[18, 24, 21, 23, 20, 18, 19, 19]
49.497[18, 24, 23, 23, 19, 17, 21, 17]
49.519[18, 24, 22, 22, 21, 16, 21, 17]
49.533[18, 25, 22, 22, 21, 17, 20, 18]
49.557[17, 26, 22, 19, 20, 16, 20, 19]
49.587[19, 25, 21, 18, 20, 15, 21, 20]
49.593[20, 26, 20, 20, 21, 14, 18, 20]
49.617[20, 26, 20, 21, 20, 16, 17, 21]
49.639[20, 24, 20, 20, 21, 17, 17, 21]
49.654[21, 22, 19, 20, 20, 17, 17, 20]
49.677[21, 23, 20, 21, 21, 16, 16, 19]
49.699[20, 21, 19, 19, 21, 19, 19, 19]
49.721[20, 19, 20, 18, 22, 17, 20, 18]
49.736[22, 21, 20, 19, 22, 15, 20, 20]
49.759[21, 18, 22, 18, 22, 15, 20, 19]
49.774[21, 21, 21, 18, 22, 17, 20, 19]
49.797[20, 20, 20, 18, 22, 16, 17, 19]
49.819[19, 21, 21, 21, 21, 18, 19, 18]
49.834[17, 21, 22, 20, 18, 19, 17, 19]
49.857[18, 22, 19, 20, 18, 19, 17, 19]
49.88[17, 18, 23, 20, 18, 19, 21, 19]
49.893[17, 17, 24, 23, 17, 18, 24, 20]
49.917[19, 18, 23, 20, 17, 17, 23, 20]
49.939[19, 18, 22, 22, 20, 17, 23, 20]
49.953[17, 20, 23, 22, 21, 18, 23, 20]
49.977[18, 21, 20, 23, 21, 16, 21, 21]
49.999[20, 21, 20, 21, 22, 19, 17, 20]
50.013[21, 19, 19, 21, 23, 17, 18, 19]
50.037[20, 21, 20, 19, 20, 18, 18, 18]
50.059[21, 20, 22, 20, 19, 18, 18, 17]
50.073[21, 20, 21, 20, 21, 18, 18, 20]
50.097[20, 23, 22, 19, 21, 16, 20, 20]
50.119[18, 24, 20, 19, 19, 17, 19, 21]
50.141[19, 23, 20, 20, 22, 17, 19, 21]
50.157[20, 22, 17, 21, 22, 18, 19, 20]
50.179[17, 21, 19, 20, 21, 17, 18, 18]
50.201[17, 20, 20, 20, 20, 18, 18, 18]
50.217[18, 19, 20, 23, 22, 19, 19, 18]
50.255[17, 17, 21, 21, 20, 19, 20, 18]
50.257[16, 19, 23, 22, 21, 18, 21, 20]
50.276[17, 19, 23, 23, 20, 19, 20, 19]
50.299[17, 18, 22, 23, 22, 18, 20, 19]
50.314[18, 18, 22, 23, 21, 19, 19, 20]
50.337[19, 18, 21, 22, 19, 19, 20, 18]
50.36[19, 16, 20, 21, 19, 19, 18, 17]
50.381[19, 18, 18, 21, 21, 19, 18, 18]
50.397