[16, 16, 19, 19, 17, 18, 20, 18]
0.656[16, 15, 18, 21, 16, 18, 20, 19]
0.679[16, 16, 19, 21, 16, 17, 19, 19]
0.701[17, 17, 19, 21, 14, 17, 22, 18]
0.717[16, 18, 19, 22, 14, 19, 20, 19]
0.738[17, 17, 20, 21, 17, 18, 20, 20]
0.761[19, 19, 23, 21, 22, 25, 27, 24]
0.776[23, 24, 25, 23, 26, 27, 27, 25]
0.799[24, 26, 26, 23, 27, 26, 26, 26]
0.821[24, 25, 26, 22, 28, 27, 26, 27]
0.836[24, 25, 26, 22, 26, 27, 25, 27]
0.858[23, 24, 22, 20, 23, 22, 19, 22]
0.881[19, 20, 19, 17, 19, 20, 22, 22]
0.896[17, 18, 18, 17, 18, 18, 21, 20]
0.918[16, 19, 17, 18, 17, 17, 21, 18]
0.941[16, 20, 19, 19, 21, 17, 19, 17]
0.956[16, 20, 20, 19, 19, 17, 19, 18]
0.979[16, 19, 20, 19, 18, 16, 18, 18]
1.001[17, 18, 20, 19, 18, 18, 19, 19]
1.016[18, 19, 23, 19, 20, 19, 20, 20]
1.038[19, 19, 24, 19, 17, 19, 21, 20]
1.061[18, 19, 22, 18, 18, 19, 21, 19]
1.076[17, 19, 22, 20, 19, 19, 19, 20]
1.098[17, 19, 23, 21, 22, 18, 18, 21]
1.121[17, 20, 20, 19, 20, 17, 18, 20]
1.144[16, 19, 18, 19, 19, 18, 19, 21]
1.158[18, 19, 17, 20, 20, 17, 20, 21]
1.181[18, 18, 18, 18, 18, 18, 21, 22]
1.204[18, 18, 19, 18, 16, 18, 22, 23]
1.227[17, 18, 19, 21, 17, 20, 21, 22]
1.241[18, 18, 19, 20, 20, 19, 21, 21]
1.264[17, 16, 19, 20, 19, 22, 19, 21]
1.279[17, 18, 18, 20, 21, 23, 20, 21]
1.302[18, 20, 16, 19, 20, 22, 19, 20]
1.324[17, 19, 16, 16, 18, 21, 20, 21]
1.339[17, 19, 16, 18, 18, 21, 20, 21]
1.361[19, 21, 16, 18, 19, 18, 21, 19]
1.384[18, 21, 16, 17, 20, 19, 21, 18]
1.407[18, 18, 17, 18, 20, 20, 22, 19]
1.421[18, 19, 18, 20, 20, 20, 22, 18]
1.444[19, 19, 18, 18, 19, 21, 22, 18]
1.458[18, 17, 18, 19, 19, 20, 23, 19]
1.481[19, 17, 19, 21, 17, 20, 23, 19]
1.504[19, 16, 20, 21, 17, 20, 21, 18]
1.519[19, 17, 21, 21, 19, 19, 22, 17]
1.541[18, 18, 23, 22, 19, 20, 21, 19]
1.564[17, 20, 25, 21, 20, 20, 19, 20]
1.587[17, 20, 24, 21, 20, 19, 18, 20]
1.609[18, 21, 24, 20, 22, 19, 17, 20]
1.625[19, 21, 23, 20, 21, 20, 16, 20]
1.647[19, 21, 21, 20, 23, 18, 18, 19]
1.669[21, 21, 20, 21, 24, 18, 18, 18]
1.684[23, 20, 20, 20, 23, 18, 17, 17]
1.707[22, 20, 20, 20, 21, 18, 18, 19]
1.729[21, 20, 21, 20, 21, 20, 18, 20]
1.744[23, 18, 21, 19, 19, 21, 17, 19]
1.767[23, 17, 20, 17, 16, 21, 17, 19]
1.79[20, 19, 20, 19, 18, 21, 19, 21]
1.804[20, 18, 19, 18, 18, 20, 19, 19]
1.827[20, 18, 17, 18, 18, 18, 20, 18]
1.849[18, 18, 17, 19, 19, 17, 19, 18]
1.864[17, 21, 19, 19, 20, 17, 19, 18]
1.887[18, 19, 20, 18, 19, 18, 20, 19]
1.909[18, 21, 20, 18, 19, 18, 20, 19]
1.925[17, 21, 21, 20, 20, 20, 20, 19]
1.947[16, 23, 22, 21, 19, 21, 21, 19]
1.97[16, 21, 21, 21, 18, 21, 23, 19]
1.984[16, 20, 21, 21, 20, 19, 22, 18]
2.007[17, 20, 20, 21, 22, 20, 23, 17]
2.029[17, 20, 20, 20, 20, 18, 23, 19]
2.044[18, 19, 19, 16, 20, 17, 22, 19]
2.067[17, 18, 19, 15, 19, 16, 21, 19]
2.089[17, 18, 19, 18, 18, 18, 20, 20]
2.104[17, 16, 19, 18, 17, 18, 20, 22]
2.127[17, 18, 19, 20, 21, 17, 19, 21]
2.149[17, 17, 20, 20, 21, 18, 19, 20]
2.163[18, 21, 20, 21, 21, 19, 18, 22]
2.187[18, 21, 19, 20, 22, 20, 18, 20]
2.209[16, 22, 21, 19, 21, 20, 16, 19]
2.223[17, 21, 21, 19, 18, 21, 19, 19]
2.247[17, 20, 20, 19, 18, 19, 19, 21]
2.269[17, 20, 20, 20, 19, 20, 19, 19]
2.284[18, 21, 21, 20, 19, 20, 20, 20]
2.307[18, 20, 21, 21, 20, 19, 21, 21]
2.329[19, 20, 21, 20, 19, 19, 20, 21]
2.352[18, 20, 21, 20, 20, 19, 20, 19]
2.367[20, 18, 20, 20, 20, 19, 19, 19]
2.39[19, 19, 20, 20, 18, 16, 18, 18]
2.412[20, 19, 19, 19, 17, 17, 19, 19]
2.427[20, 20, 20, 21, 18, 15, 18, 20]
2.45[20, 22, 21, 22, 18, 15, 18, 19]
2.463[19, 21, 21, 20, 18, 14, 18, 19]
2.487[19, 19, 22, 19, 20, 17, 18, 20]
2.51[18, 19, 19, 19, 20, 17, 16, 19]
2.532[18, 18, 21, 17, 19, 18, 17, 18]
2.547[17, 19, 20, 17, 19, 19, 16, 21]
2.569[18, 19, 22, 21, 19, 20, 16, 22]
2.592[18, 21, 21, 21, 17, 20, 17, 20]
2.607[19, 21, 21, 21, 20, 20, 18, 21]
2.629[22, 21, 20, 21, 21, 18, 17, 20]
2.652[23, 20, 20, 21, 20, 20, 18, 19]
2.667[23, 20, 21, 19, 20, 21, 17, 18]
2.69[21, 18, 20, 20, 21, 20, 19, 19]
2.712[21, 20, 21, 20, 21, 21, 19, 20]
2.727[17, 19, 20, 20, 22, 22, 18, 20]
2.75[16, 19, 21, 20, 22, 21, 19, 19]
2.772[17, 18, 21, 20, 21, 20, 20, 18]
2.788[17, 19, 21, 20, 22, 19, 19, 20]
2.809[19, 20, 21, 19, 22, 18, 17, 17]
2.831[20, 20, 21, 18, 21, 17, 18, 19]
2.848[22, 20, 21, 18, 21, 17, 18, 20]
2.869[21, 20, 21, 16, 21, 17, 18, 20]
2.891[22, 20, 22, 16, 21, 18, 18, 20]
2.908[24, 17, 23, 17, 19, 18, 19, 21]
2.929[24, 18, 22, 17, 19, 18, 18, 20]
2.953[22, 17, 20, 17, 18, 17, 21, 19]
2.968[23, 15, 19, 18, 19, 17, 20, 20]
2.989[23, 14, 19, 20, 19, 17, 23, 19]
3.011[20, 15, 20, 21, 17, 19, 22, 19]
3.028[18, 14, 22, 23, 18, 20, 22, 21]
3.049[19, 16, 23, 22, 19, 20, 20, 20]
3.071[18, 17, 23, 23, 18, 19, 20, 21]
3.088[19, 18, 23, 22, 19, 20, 17, 21]
3.109[19, 16, 23, 21, 20, 19, 19, 20]
3.131[19, 18, 22, 21, 18, 19, 20, 18]
3.148[19, 18, 22, 23, 20, 19, 21, 17]
3.169[20, 20, 21, 22, 21, 19, 21, 17]
3.192[18, 19, 22, 22, 22, 17, 21, 15]
3.208[18, 21, 21, 22, 20, 16, 19, 16]
3.229[19, 21, 22, 22, 21, 14, 18, 16]
3.251[18, 21, 24, 22, 19, 15, 18, 17]
3.268[18, 21, 25, 22, 18, 15, 19, 16]
3.289[18, 23, 23, 22, 19, 16, 19, 17]
3.311[19, 22, 22, 20, 18, 17, 18, 18]
3.328[18, 21, 20, 21, 19, 17, 17, 20]
3.349[19, 21, 19, 19, 19, 19, 15, 19]
3.371[19, 20, 18, 20, 19, 19, 15, 20]
3.388[18, 19, 19, 20, 19, 19, 17, 20]
3.409[17, 19, 20, 20, 21, 19, 17, 18]
3.431[17, 20, 20, 20, 20, 20, 19, 18]
3.448[19, 20, 20, 20, 20, 20, 20, 18]
3.469[18, 21, 20, 18, 21, 17, 21, 17]
3.491[18, 22, 21, 17, 20, 18, 18, 18]
3.514[19, 23, 20, 19, 20, 18, 20, 19]
3.529[21, 23, 20, 18, 20, 20, 18, 18]
3.551[20, 23, 20, 19, 22, 18, 18, 19]
3.574[20, 23, 19, 20, 21, 19, 19, 19]
3.589[22, 23, 17, 20, 21, 18, 20, 19]
3.611[20, 22, 19, 19, 21, 20, 19, 19]
3.634[20, 21, 20, 21, 21, 19, 20, 18]
3.649[19, 22, 19, 19, 20, 21, 20, 16]
3.671[19, 19, 21, 19, 19, 21, 20, 15]
3.694[18, 20, 21, 18, 20, 21, 19, 17]
3.709[20, 21, 20, 21, 19, 19, 20, 17]
3.731[18, 21, 20, 19, 18, 19, 19, 17]
3.754[19, 21, 21, 20, 18, 18, 19, 18]
3.769[19, 22, 21, 20, 18, 18, 18, 21]
3.791[18, 23, 20, 21, 18, 18, 19, 19]
3.814[19, 23, 21, 19, 19, 17, 19, 19]
3.829[18, 23, 21, 20, 21, 17, 19, 20]
3.851[19, 23, 21, 19, 20, 16, 19, 20]
3.874[18, 23, 20, 21, 21, 16, 19, 18]
3.889[19, 25, 22, 20, 21, 16, 17, 18]
3.911[19, 24, 23, 20, 23, 16, 18, 18]
3.934[20, 24, 22, 19, 22, 15, 19, 17]
3.949[21, 23, 21, 19, 22, 15, 18, 17]
3.971[20, 23, 20, 19, 22, 16, 19, 15]
3.994[19, 21, 19, 18, 22, 19, 21, 18]
4.009[18, 20, 17, 19, 20, 19, 20, 18]
4.031[19, 21, 17, 19, 20, 20, 19, 18]
4.054[18, 20, 20, 19, 20, 20, 19, 17]
4.069[18, 21, 21, 19, 22, 18, 20, 18]
4.091[19, 21, 22, 19, 21, 16, 17, 18]
4.114[18, 22, 22, 20, 21, 18, 17, 17]
4.129[15, 21, 23, 20, 20, 17, 17, 19]
4.151[17, 21, 21, 20, 22, 18, 17, 19]
4.174[17, 21, 20, 20, 19, 18, 16, 20]
4.189[16, 21, 19, 20, 19, 19, 16, 18]
4.211[18, 22, 22, 19, 19, 18, 17, 18]
4.234[19, 21, 20, 19, 19, 17, 17, 17]
4.249[18, 20, 20, 19, 18, 18, 19, 19]
4.272[18, 20, 21, 19, 20, 19, 20, 20]
4.294[18, 19, 23, 18, 20, 20, 20, 21]
4.309[18, 21, 20, 18, 21, 20, 19, 23]
4.331[19, 22, 22, 20, 21, 20, 19, 23]
4.354[18, 22, 25, 19, 22, 19, 19, 22]
4.369[18, 23, 24, 18, 20, 20, 18, 20]
4.393[19, 23, 25, 19, 21, 20, 18, 19]
4.414[19, 22, 26, 18, 20, 20, 19, 16]
4.429[17, 24, 27, 16, 20, 20, 20, 16]
4.451[17, 24, 25, 17, 19, 21, 19, 16]
4.474[17, 22, 26, 15, 19, 19, 19, 19]
4.496[16, 23, 22, 16, 19, 18, 18, 19]
4.511[18, 21, 22, 17, 18, 18, 18, 20]
4.534[19, 19, 21, 17, 19, 17, 16, 19]
4.556[19, 18, 21, 16, 19, 16, 17, 17]
4.572[20, 19, 22, 18, 20, 16, 18, 16]
4.594[19, 19, 22, 19, 20, 16, 19, 17]
4.616[19, 19, 24, 19, 20, 17, 19, 16]
4.631[18, 19, 24, 20, 19, 17, 20, 17]
4.654[19, 19, 25, 20, 19, 18, 20, 18]
4.684[18, 17, 24, 20, 20, 19, 19, 18]
4.692[19, 17, 24, 19, 20, 20, 19, 17]
4.714[19, 18, 23, 18, 21, 20, 19, 16]
4.737[19, 19, 22, 20, 20, 21, 19, 17]
4.751[19, 18, 21, 20, 21, 21, 19, 17]
4.774[20, 19, 20, 19, 20, 20, 18, 17]
4.797[20, 18, 19, 19, 21, 23, 19, 18]
4.811[19, 17, 20, 18, 20, 22, 19, 18]
4.834[19, 17, 20, 19, 21, 22, 18, 18]
4.856[18, 20, 20, 18, 22, 21, 18, 18]
4.871[18, 20, 20, 19, 22, 21, 19, 17]
4.894[19, 20, 20, 20, 23, 18, 18, 17]
4.917[19, 21, 22, 21, 22, 20, 18, 16]
4.931[20, 20, 21, 19, 23, 19, 18, 18]
4.954[20, 21, 20, 18, 21, 17, 19, 18]
4.976[19, 21, 21, 19, 22, 18, 18, 20]
4.991[21, 21, 21, 18, 19, 18, 18, 19]
5.022[21, 22, 19, 16, 19, 18, 18, 20]
5.036[22, 22, 21, 18, 19, 19, 17, 18]
5.052[22, 22, 22, 19, 19, 20, 17, 17]
5.074[21, 22, 21, 19, 20, 20, 17, 17]
5.096[18, 22, 21, 19, 22, 21, 17, 18]
5.111[17, 20, 20, 20, 22, 20, 18, 17]
5.134[17, 21, 19, 18, 21, 21, 19, 16]
5.156[17, 19, 19, 18, 22, 21, 20, 16]
5.172[18, 20, 20, 18, 20, 20, 18, 15]
5.194[19, 20, 20, 18, 18, 18, 19, 14]
5.216[20, 21, 19, 16, 19, 19, 20, 18]
5.231[19, 22, 18, 17, 21, 20, 20, 20]
5.254[19, 22, 21, 30, 21, 19, 20, 21]
5.276[18, 21, 21, 32, 21, 20, 20, 21]
5.3[19, 22, 22, 32, 19, 20, 21, 23]
5.314[18, 21, 24, 34, 19, 19, 20, 20]
5.337[19, 20, 26, 34, 19, 18, 20, 20]
5.352[19, 21, 23, 25, 20, 16, 20, 18]
5.374[19, 21, 22, 22, 19, 17, 20, 18]
5.397[17, 19, 22, 21, 19, 18, 20, 17]
5.42[17, 19, 22, 19, 19, 20, 19, 18]
5.434[18, 19, 20, 18, 19, 21, 20, 18]
5.457[17, 18, 21, 17, 18, 22, 20, 19]
5.48[19, 18, 20, 20, 19, 22, 20, 20]
5.494[18, 18, 19, 21, 18, 22, 21, 19]
5.516[19, 20, 17, 23, 18, 21, 21, 19]
5.54[18, 20, 17, 22, 19, 21, 20, 18]
5.562[21, 21, 17, 23, 19, 21, 20, 18]
5.577[22, 21, 18, 22, 20, 20, 20, 18]
5.6[22, 21, 18, 22, 22, 20, 18, 21]
5.614[21, 19, 21, 20, 20, 19, 18, 20]
5.636[20, 19, 21, 20, 20, 19, 20, 21]
5.66[17, 19, 20, 20, 20, 18, 20, 21]
5.682[15, 18, 20, 19, 19, 17, 20, 20]
5.696[18, 17, 21, 19, 17, 19, 22, 17]
5.72[18, 17, 20, 20, 19, 19, 21, 17]
5.734[18, 20, 21, 20, 18, 17, 20, 16]
5.756[19, 21, 21, 18, 20, 18, 19, 14]
5.78[20, 21, 20, 18, 22, 20, 18, 15]
5.794[18, 21, 20, 18, 22, 20, 17, 18]
5.816[21, 21, 20, 17, 21, 20, 19, 18]
5.84[21, 19, 18, 17, 22, 21, 19, 19]
5.854[21, 20, 18, 18, 20, 21, 19, 21]
5.876[21, 21, 19, 18, 19, 21, 18, 20]
5.899[20, 21, 18, 19, 19, 20, 18, 18]
5.914[17, 23, 20, 19, 21, 20, 16, 17]
5.937[18, 23, 20, 18, 20, 19, 17, 18]
5.96[19, 20, 20, 17, 22, 19, 17, 17]
5.974[16, 19, 21, 18, 21, 21, 18, 17]
5.996[18, 19, 22, 18, 23, 19, 19, 17]
6.02[18, 17, 20, 19, 21, 19, 22, 18]
6.034[17, 18, 19, 20, 24, 22, 21, 16]
6.056[17, 20, 21, 21, 22, 23, 21, 16]
6.08[18, 20, 22, 21, 23, 20, 21, 18]
6.094[18, 20, 23, 21, 21, 22, 20, 18]
6.116[18, 21, 23, 20, 21, 21, 18, 19]
6.14[20, 21, 23, 19, 19, 19, 18, 19]
6.154[21, 20, 23, 18, 21, 18, 18, 18]
6.176[21, 20, 22, 18, 20, 18, 18, 18]
6.2[20, 21, 21, 20, 21, 17, 17, 19]
6.222[20, 20, 22, 20, 21, 16, 19, 18]
6.237[19, 22, 23, 22, 19, 17, 20, 17]
6.26[17, 23, 22, 22, 18, 15, 18, 19]
6.274[17, 23, 22, 22, 19, 18, 18, 19]
6.297[18, 22, 23, 20, 18, 17, 19, 19]
6.32[18, 22, 24, 20, 19, 19, 16, 20]
6.334[17, 20, 23, 21, 19, 21, 15, 20]
6.358[19, 19, 22, 21, 21, 23, 19, 20]
6.38[20, 18, 22, 23, 20, 21, 20, 19]
6.403[20, 18, 19, 22, 22, 21, 21, 20]
6.418[20, 18, 19, 22, 22, 21, 21, 18]
6.44[21, 18, 18, 20, 23, 20, 23, 20]
6.462[21, 19, 18, 19, 22, 19, 21, 19]
6.477[19, 20, 20, 15, 21, 18, 20, 20]
6.5[19, 21, 20, 17, 20, 19, 20, 19]
6.523[20, 21, 20, 17, 19, 19, 21, 19]
6.538[18, 20, 20, 17, 18, 17, 20, 18]
6.559[16, 20, 22, 17, 20, 17, 21, 18]
6.583[16, 19, 20, 17, 21, 17, 22, 17]
6.597[18, 19, 22, 15, 21, 17, 23, 16]
6.619[18, 18, 21, 14, 21, 17, 23, 17]
6.642[17, 21, 21, 17, 22, 19, 21, 16]
6.657[17, 20, 20, 17, 21, 20, 21, 17]
6.68[17, 22, 20, 19, 20, 22, 20, 17]
6.702[16, 20, 18, 20, 19, 21, 19, 17]
6.717[17, 22, 19, 20, 19, 22, 20, 16]
6.74[20, 20, 20, 18, 19, 20, 21, 18]
6.762[20, 21, 20, 19, 18, 20, 19, 18]
6.777[21, 20, 20, 20, 18, 18, 20, 19]
6.8[19, 22, 20, 22, 19, 19, 20, 20]
6.83[18, 20, 19, 22, 20, 19, 19, 20]
6.837[19, 18, 17, 21, 20, 19, 19, 20]
6.86[20, 17, 17, 21, 20, 18, 18, 19]
6.882[19, 17, 20, 18, 19, 19, 19, 20]
6.897[20, 17, 19, 18, 19, 21, 18, 21]
6.92[22, 17, 19, 17, 19, 19, 17, 21]
6.943[19, 18, 21, 18, 18, 20, 18, 20]
6.957[18, 20, 21, 20, 17, 22, 19, 21]
6.98[19, 20, 19, 20, 19, 21, 18, 17]
7.002[19, 19, 20, 19, 18, 19, 18, 17]
7.017[18, 19, 20, 22, 18, 19, 17, 17]
7.04[18, 19, 19, 22, 19, 21, 16, 18]
7.063[19, 18, 19, 19, 21, 19, 16, 19]
7.077[19, 20, 20, 20, 20, 17, 17, 20]
7.101[20, 21, 20, 19, 20, 18, 18, 19]
7.122[19, 23, 19, 19, 22, 17, 19, 20]
7.137[20, 23, 20, 18, 22, 17, 21, 20]
7.16[19, 25, 21, 18, 20, 18, 22, 19]
7.182[19, 24, 19, 16, 20, 19, 23, 20]
7.197[19, 25, 19, 17, 22, 20, 22, 20]
7.22[20, 23, 20, 15, 19, 20, 23, 20]
7.243[21, 22, 19, 17, 18, 19, 22, 20]
7.257[22, 20, 17, 17, 20, 19, 20, 22]
7.28[22, 19, 18, 17, 20, 18, 18, 20]
7.302[20, 18, 19, 17, 19, 17, 19, 20]
7.325[19, 20, 19, 19, 20, 18, 17, 18]
7.34[18, 21, 23, 20, 21, 17, 16, 19]
7.362[17, 21, 22, 20, 20, 19, 16, 18]
7.385[20, 20, 23, 21, 18, 18, 16, 18]
7.4[23, 20, 23, 21, 17, 18, 18, 18]
7.423[23, 19, 24, 20, 18, 17, 19, 19]
7.445[23, 21, 21, 21, 18, 18, 19, 18]
7.46[23, 20, 21, 21, 18, 16, 21, 17]
7.483[22, 20, 22, 19, 20, 18, 21, 18]
7.505[20, 19, 21, 19, 19, 18, 19, 19]
7.52[20, 18, 21, 18, 19, 19, 20, 20]
7.543[19, 16, 20, 16, 19, 19, 20, 21]
7.565[19, 17, 22, 16, 20, 20, 18, 24]
7.58[18, 17, 21, 19, 20, 18, 19, 23]
7.603[20, 18, 21, 18, 21, 19, 18, 23]
7.625[20, 18, 22, 22, 22, 20, 16, 21]
7.64[21, 18, 22, 23, 21, 19, 15, 23]
7.663[21, 20, 20, 23, 19, 19, 17, 21]
7.685[21, 20, 20, 21, 18, 20, 16, 20]
7.7[21, 20, 18, 21, 18, 20, 18, 20]
7.722[21, 22, 18, 19, 18, 20, 20, 21]
7.745[22, 21, 18, 19, 21, 21, 20, 20]
7.761[22, 20, 19, 20, 22, 22, 19, 20]
7.782[22, 20, 18, 20, 20, 21, 19, 19]
7.804[21, 20, 18, 21, 20, 23, 17, 21]
7.827[20, 21, 19, 21, 21, 24, 16, 21]
7.843[18, 20, 16, 20, 20, 23, 16, 20]
7.866[18, 20, 17, 21, 19, 21, 17, 19]
7.881[17, 21, 17, 20, 20, 20, 18, 20]
7.903[17, 21, 17, 19, 20, 19, 19, 18]
7.924[16, 19, 19, 18, 19, 17, 18, 17]
7.941[17, 19, 20, 20, 18, 17, 18, 17]
7.963[17, 20, 21, 19, 19, 18, 18, 18]
7.984[18, 18, 20, 20, 19, 18, 18, 18]
8.001[19, 15, 21, 20, 19, 17, 19, 19]
8.029[18, 17, 19, 21, 19, 18, 18, 19]
8.044[18, 18, 18, 19, 20, 18, 19, 18]
8.061[18, 17, 18, 21, 20, 18, 20, 17]
8.083[18, 19, 19, 22, 19, 19, 20, 18]
8.105[18, 20, 19, 23, 18, 19, 19, 20]
8.121[20, 18, 18, 23, 17, 20, 21, 19]
8.142[20, 18, 18, 24, 16, 19, 22, 19]
8.172[20, 18, 19, 22, 15, 19, 21, 20]
8.181[21, 16, 20, 22, 16, 18, 20, 19]
8.202[22, 18, 20, 22, 17, 18, 19, 16]
8.224[21, 18, 21, 22, 19, 18, 17, 16]
8.247[20, 19, 20, 20, 20, 18, 16, 17]
8.262[22, 19, 18, 20, 21, 18, 17, 16]
8.285[21, 22, 18, 19, 22, 18, 17, 16]
8.307[22, 22, 20, 19, 22, 18, 18, 14]
8.322[21, 22, 19, 19, 21, 18, 18, 18]
8.344[21, 21, 21, 19, 21, 18, 19, 19]
8.367[20, 21, 22, 19, 21, 16, 19, 18]
8.382[21, 20, 22, 21, 21, 18, 19, 18]
8.404[19, 19, 21, 22, 22, 18, 18, 19]
8.427[18, 19, 22, 22, 22, 18, 18, 17]
8.442[20, 21, 24, 21, 22, 20, 16, 15]
8.472[20, 21, 25, 22, 21, 21, 14, 18]
8.487[19, 20, 24, 21, 21, 19, 14, 17]
8.502[21, 20, 22, 21, 20, 18, 17, 18]
8.524[21, 21, 22, 21, 19, 18, 17, 18]
8.547[19, 20, 19, 22, 20, 16, 18, 19]
8.563[20, 21, 21, 21, 20, 16, 18, 18]
8.585[19, 21, 21, 20, 19, 17, 17, 19]
8.607[18, 20, 22, 19, 20, 17, 16, 20]
8.622[19, 21, 23, 21, 19, 18, 16, 21]
8.644[20, 20, 23, 19, 18, 19, 18, 21]
8.675[18, 19, 21, 21, 18, 20, 19, 20]
8.682[19, 19, 23, 20, 19, 20, 20, 21]
8.705[20, 21, 23, 20, 18, 20, 19, 21]
8.727[20, 21, 23, 17, 19, 19, 19, 19]
8.742[18, 20, 22, 18, 19, 17, 16, 19]
8.764[19, 20, 23, 18, 20, 18, 15, 20]
8.787[19, 19, 20, 17, 19, 19, 15, 20]
8.804[18, 18, 20, 17, 21, 20, 15, 20]
8.824[17, 18, 20, 19, 21, 22, 14, 22]
8.847[17, 19, 21, 17, 22, 22, 15, 20]
8.862[15, 19, 20, 18, 22, 22, 16, 19]
8.884[12, 20, 20, 17, 22, 20, 17, 20]
8.907[14, 20, 20, 18, 21, 19, 17, 18]
8.922[15, 19, 18, 18, 22, 18, 17, 17]
8.944[16, 18, 17, 18, 21, 18, 19, 18]
8.967[18, 19, 20, 17, 20, 17, 20, 18]
8.982[20, 19, 21, 19, 22, 18, 20, 16]
9.004[19, 19, 22, 18, 22, 18, 19, 14]
9.027[21, 20, 23, 16, 20, 19, 20, 13]
9.042[22, 20, 23, 17, 19, 19, 21, 15]
9.064[22, 20, 22, 16, 21, 20, 20, 15]
9.087[22, 20, 22, 16, 19, 21, 22, 19]
9.102[22, 20, 20, 15, 20, 21, 23, 21]
9.125[21, 19, 20, 17, 20, 20, 22, 22]
9.147[21, 19, 19, 17, 21, 20, 21, 22]
9.162[19, 19, 18, 19, 19, 19, 19, 23]
9.192[18, 18, 18, 19, 19, 18, 17, 20]
9.207[19, 18, 18, 20, 18, 18, 18, 19]
9.229[17, 18, 19, 19, 18, 18, 18, 19]
9.244[16, 20, 20, 21, 18, 18, 19, 20]
9.267[18, 19, 22, 20, 18, 17, 20, 20]
9.29[18, 20, 21, 21, 19, 17, 18, 20]
9.305[17, 21, 21, 21, 19, 18, 18, 21]
9.327[18, 21, 20, 21, 18, 19, 20, 22]
9.35[17, 19, 20, 19, 19, 19, 19, 20]
9.365[17, 21, 20, 20, 20, 21, 20, 21]
9.387[16, 20, 20, 18, 20, 23, 21, 20]
9.41[17, 22, 21, 19, 20, 23, 21, 19]
9.424[18, 22, 21, 19, 20, 21, 20, 18]
9.447[20, 24, 22, 19, 18, 22, 19, 17]
9.47[20, 22, 20, 19, 18, 21, 19, 14]
9.484[21, 22, 22, 21, 18, 20, 19, 16]
9.507[23, 19, 21, 20, 20, 20, 18, 16]
9.529[22, 20, 21, 22, 21, 20, 18, 15]
9.545[21, 20, 20, 21, 20, 20, 18, 17]
9.567[21, 20, 19, 22, 19, 18, 18, 17]
9.589[20, 20, 17, 20, 20, 20, 21, 16]
9.604[17, 21, 18, 19, 19, 19, 22, 16]
9.627[19, 21, 19, 18, 18, 19, 20, 16]
9.649[20, 19, 20, 18, 20, 21, 22, 14]
9.664[18, 22, 21, 17, 21, 21, 23, 16]
9.687[18, 22, 22, 20, 21, 19, 21, 17]
9.718[18, 23, 22, 20, 21, 19, 19, 19]
9.725[19, 23, 24, 19, 21, 19, 20, 20]
9.747[18, 22, 23, 19, 22, 16, 19, 20]
9.77[17, 19, 22, 20, 21, 17, 18, 20]
9.785[19, 20, 21, 18, 20, 18, 17, 20]
9.807[20, 20, 20, 19, 23, 20, 17, 19]
9.83[19, 21, 18, 20, 23, 20, 17, 17]
9.845[18, 21, 18, 21, 21, 20, 15, 17]
9.867[18, 21, 21, 22, 21, 21, 17, 16]
9.889[17, 21, 20, 20, 20, 20, 18, 15]
9.904[16, 21, 21, 20, 18, 18, 19, 13]
9.927[17, 20, 27, 19, 19, 17, 19, 14]
9.949[61, 50, 228, 63, 35, 32, 25, 34]
9.964[99, 66, 301, 72, 55, 266, 126, 55]
9.987[103, 81, 420, 180, 89, 306, 143, 61]
10.01[115, 127, 426, 192, 97, 337, 198, 72]
10.026[118, 153, 471, 235, 110, 376, 237, 76]
10.047[107, 157, 550, 243, 116, 390, 261, 74]
10.07[86, 159, 567, 268, 177, 510, 365, 75]
10.085[101, 165, 504, 223, 173, 514, 394, 75]
10.107[95, 146, 512, 224, 173, 502, 377, 65]
10.129[102, 130, 547, 240, 172, 496, 374, 67]
10.152[127, 148, 452, 246, 170, 513, 374, 74]
10.167[125, 149, 436, 218, 98, 302, 253, 63]
10.19[121, 141, 477, 219, 86, 263, 201, 66]
10.212[117, 144, 549, 230, 78, 265, 204, 67]
10.227[111, 161, 606, 180, 69, 248, 180, 65]
10.25[110, 137, 598, 183, 64, 250, 172, 63]
10.272[106, 143, 596, 190, 72, 274, 190, 76]
10.287[108, 189, 564, 185, 83, 312, 209, 86]
10.31[111, 181, 503, 209, 87, 310, 199, 85]
10.332[115, 162, 356, 209, 89, 330, 245, 88]
10.347[98, 173, 340, 283, 85, 300, 252, 86]
10.37[100, 188, 390, 325, 90, 279, 243, 78]
10.392[118, 144, 423, 326, 74, 267, 269, 63]
10.407[118, 144, 422, 305, 82, 279, 284, 63]
10.43[116, 178, 479, 337, 83, 243, 247, 59]
10.452[108, 169, 498, 282, 89, 233, 226, 54]
10.467[111, 147, 461, 238, 88, 231, 212, 47]
10.49[81, 168, 433, 233, 89, 214, 186, 57]
10.513[78, 177, 446, 241, 78, 203, 166, 58]
10.527[78, 153, 404, 207, 78, 200, 150, 58]
10.55[74, 154, 385, 208, 72, 188, 143, 55]
10.572[68, 170, 360, 217, 67, 200, 153, 58]
10.587[63, 151, 362, 220, 70, 183, 116, 45]
10.61[76, 137, 321, 205, 71, 176, 134, 45]
10.632[69, 142, 403, 277, 64, 178, 150, 42]
10.647[77, 154, 444, 277, 64, 172, 149, 46]
10.67[73, 134, 458, 273, 57, 153, 151, 42]
10.693[70, 129, 477, 294, 64, 156, 164, 42]
10.707[63, 126, 498, 297, 66, 136, 140, 40]
10.73[65, 113, 407, 225, 74, 190, 173, 42]
10.754[56, 106, 373, 220, 82, 199, 188, 39]
10.767[64, 100, 369, 215, 86, 197, 179, 41]
10.79[63, 97, 350, 198, 84, 187, 167, 38]
10.813[54, 103, 318, 196, 80, 190, 168, 37]
10.827[67, 156, 330, 192, 77, 173, 155, 46]
10.85[70, 146, 345, 175, 72, 187, 182, 51]
10.873[63, 148, 321, 186, 65, 187, 190, 48]
10.887[64, 152, 309, 180, 61, 182, 186, 50]
10.91[67, 167, 328, 170, 64, 186, 193, 51]
10.933[60, 125, 320, 205, 62, 146, 171, 42]
10.947[57, 123, 278, 211, 60, 117, 128, 37]
10.97[57, 120, 298, 203, 66, 130, 134, 41]
10.993[61, 117, 276, 195, 63, 130, 135, 41]
11.008[61, 86, 280, 205, 66, 119, 143, 43]
11.03[56, 65, 272, 166, 64, 140, 146, 47]
11.053[54, 73, 264, 146, 67, 146, 141, 45]
11.067[64, 106, 281, 141, 64, 141, 127, 47]
11.09[65, 105, 307, 144, 68, 136, 119, 47]
11.113[62, 107, 332, 147, 62, 143, 98, 44]
11.135[66, 113, 337, 142, 58, 121, 104, 49]
11.15[66, 119, 347, 140, 57, 121, 106, 50]
11.173[59, 90, 347, 138, 60, 119, 100, 48]
11.195[54, 87, 328, 146, 68, 131, 103, 45]
11.21[54, 86, 289, 143, 69, 129, 105, 46]
11.233[47, 84, 342, 148, 68, 138, 111, 37]
11.255[63, 85, 343, 200, 66, 149, 115, 39]
11.27[62, 94, 312, 205, 65, 145, 120, 38]
11.293[67, 109, 322, 207, 69, 154, 128, 40]
11.316[68, 109, 365, 221, 71, 157, 140, 41]
11.338[73, 112, 355, 230, 75, 144, 121, 46]
11.353[62, 110, 350, 197, 80, 121, 117, 43]
11.376[63, 102, 366, 200, 83, 139, 118, 44]
11.39[58, 91, 391, 203, 68, 117, 107, 42]
11.413[56, 90, 349, 175, 69, 118, 90, 44]
11.435[57, 82, 303, 164, 67, 121, 89, 40]
11.45[55, 67, 332, 149, 63, 124, 88, 40]
11.473[54, 83, 384, 185, 68, 106, 82, 39]
11.496[55, 81, 393, 175, 69, 112, 95, 41]
11.51[66, 83, 389, 189, 65, 110, 95, 44]
11.533[58, 85, 398, 193, 63, 136, 104, 42]
11.555[64, 89, 391, 200, 75, 148, 119, 42]
11.57[61, 91, 336, 173, 67, 148, 121, 41]
11.593[63, 90, 299, 183, 72, 149, 112, 39]
11.615[52, 95, 312, 184, 77, 148, 108, 39]
11.63[55, 94, 341, 187, 83, 122, 99, 41]
11.654[49, 89, 313, 184, 70, 111, 92, 41]
11.675[49, 79, 328, 177, 70, 112, 91, 42]
11.69[48, 79, 345, 165, 69, 113, 95, 44]
11.713[48, 81, 363, 149, 66, 113, 93, 38]
11.735[57, 94, 483, 174, 81, 120, 92, 45]
11.75[56, 110, 505, 172, 83, 154, 96, 44]
11.773[59, 109, 480, 165, 81, 156, 95, 47]
11.795[59, 106, 471, 170, 85, 152, 106, 48]
11.81[57, 99, 458, 186, 88, 158, 106, 46]
11.833[46, 94, 334, 158, 71, 150, 112, 37]
11.855[51, 100, 344, 164, 76, 141, 112, 41]
11.87[50, 101, 365, 168, 78, 144, 117, 36]
11.894[54, 100, 379, 168, 74, 139, 102, 34]
11.916[57, 114, 406, 190, 71, 136, 111, 39]
11.93[55, 113, 423, 185, 72, 150, 106, 37]
11.953[52, 101, 391, 186, 64, 118, 92, 35]
11.975[51, 100, 377, 189, 68, 124, 110, 38]
11.991[57, 100, 362, 183, 60, 142, 114, 39]
12.013[58, 107, 391, 174, 66, 138, 110, 35]
12.036[57, 109, 343, 174, 75, 134, 116, 34]
12.058[58, 102, 374, 168, 81, 158, 145, 35]
12.073[58, 99, 361, 155, 77, 149, 128, 33]
12.095[48, 112, 364, 186, 86, 136, 126, 33]
12.118[56, 91, 289, 172, 82, 141, 134, 43]
12.133[56, 83, 277, 169, 69, 137, 127, 45]
12.155[53, 83, 262, 203, 65, 117, 93, 44]
12.178[52, 81, 312, 226, 70, 110, 88, 43]
12.193[50, 66, 310, 217, 61, 117, 104, 42]
12.216[36, 76, 318, 213, 71, 117, 99, 34]
12.238[39, 79, 360, 219, 73, 112, 105, 32]
12.253[49, 98, 342, 187, 69, 153, 116, 34]
12.275[47, 100, 323, 216, 66, 157, 119, 32]
12.298[48, 116, 307, 202, 67, 153, 104, 31]
12.313[49, 109, 302, 199, 54, 146, 97, 30]
12.335[45, 108, 255, 209, 55, 145, 94, 30]
12.358[33, 91, 263, 220, 65, 95, 84, 30]
12.38[40, 91, 272, 205, 67, 89, 81, 33]
12.395[43, 71, 257, 208, 65, 126, 114, 34]
12.418[52, 93, 253, 206, 70, 122, 110, 35]
12.433[54, 97, 260, 204, 70, 125, 109, 36]
12.456[59, 98, 303, 205, 62, 142, 113, 35]
12.478[55, 95, 263, 163, 54, 143, 126, 36]
12.493[64, 109, 283, 157, 58, 111, 101, 42]
12.515[58, 94, 293, 202, 55, 132, 116, 42]
12.538[56, 92, 282, 189, 55, 145, 138, 43]
12.552[53, 87, 256, 171, 60, 136, 139, 43]
12.575[53, 87, 272, 176, 68, 140, 126, 44]
12.598[42, 70, 284, 177, 66, 152, 127, 37]
12.612[38, 72, 269, 114, 65, 143, 118, 36]
12.635[38, 72, 266, 108, 66, 141, 92, 35]
12.658[34, 77, 260, 152, 63, 133, 83, 32]
12.672[39, 84, 273, 184, 58, 139, 120, 31]
12.695[39, 82, 308, 188, 80, 138, 123, 34]
12.718[54, 91, 382, 223, 80, 134, 122, 39]
12.733[54, 90, 401, 237, 79, 118, 121, 37]
12.755[57, 91, 407, 255, 81, 125, 125, 41]
12.778[56, 88, 406, 237, 80, 109, 93, 40]
12.792[55, 101, 378, 233, 64, 101, 90, 39]
12.816[42, 97, 302, 197, 63, 107, 99, 33]
12.838[54, 98, 285, 206, 64, 120, 100, 37]
12.86[59, 125, 239, 178, 62, 114, 95, 34]
12.876[64, 154, 295, 177, 60, 117, 95, 41]
12.897[66, 163, 325, 186, 67, 149, 115, 45]
12.92[68, 159, 341, 247, 74, 151, 103, 47]
12.936[62, 162, 350, 226, 76, 143, 102, 44]
12.958[57, 140, 376, 208, 77, 146, 104, 46]
12.98[49, 109, 328, 206, 82, 164, 109, 42]
12.996[55, 106, 287, 214, 74, 129, 89, 38]
13.017[56, 103, 274, 162, 65, 117, 95, 39]
13.04[55, 97, 246, 163, 61, 115, 94, 39]
13.056[56, 131, 219, 163, 59, 119, 95, 40]
13.078[57, 131, 222, 157, 60, 102, 102, 37]
13.1[55, 112, 211, 129, 58, 110, 103, 42]
13.116[52, 112, 200, 105, 59, 109, 97, 40]
13.138[52, 110, 202, 99, 60, 108, 93, 39]
13.16[56, 68, 217, 102, 60, 118, 105, 42]
13.184[58, 75, 294, 116, 55, 111, 94, 42]
13.197[54, 74, 292, 122, 55, 97, 84, 38]
13.22[53, 75, 325, 166, 62, 109, 92, 38]
13.236[53, 92, 361, 176, 65, 116, 96, 38]
13.258[45, 103, 347, 184, 70, 113, 88, 32]
13.28[45, 92, 264, 180, 69, 135, 92, 34]
13.296[52, 90, 266, 188, 66, 138, 102, 37]
13.318[54, 90, 252, 175, 64, 134, 97, 37]
13.34[54, 117, 208, 170, 58, 137, 98, 38]
13.357[56, 118, 216, 155, 53, 130, 92, 37]
13.385[53, 133, 217, 151, 52, 110, 92, 36]
13.408[55, 142, 267, 141, 54, 106, 80, 36]
13.417[55, 145, 240, 114, 51, 125, 84, 38]
13.437[59, 123, 257, 156, 55, 138, 116, 43]
13.46[71, 125, 313, 164, 55, 137, 126, 51]
13.476[71, 113, 320, 170, 56, 142, 124, 52]
13.497[62, 109, 278, 170, 62, 148, 124, 49]
13.52[61, 116, 306, 172, 60, 136, 126, 46]
13.536[58, 118, 321, 155, 58, 110, 94, 40]
13.558[47, 109, 276, 155, 56, 114, 80, 34]
13.58[55, 107, 358, 163, 55, 111, 75, 33]
13.597[51, 109, 374, 186, 45, 107, 89, 36]
13.618[52, 124, 355, 213, 47, 103, 83, 38]
13.64[55, 114, 329, 212, 50, 102, 83, 39]
13.662[69, 125, 317, 208, 53, 99, 89, 40]
13.678[68, 163, 249, 197, 51, 96, 93, 40]
13.701[69, 171, 233, 171, 55, 96, 80, 37]
13.715[70, 155, 238, 132, 58, 119, 91, 34]
13.737[75, 155, 321, 104, 51, 133, 99, 36]
13.76[59, 148, 325, 100, 51, 130, 89, 32]
13.775[56, 103, 306, 126, 54, 124, 84, 36]
13.798[74, 123, 303, 149, 51, 131, 99, 42]
13.82[73, 139, 410, 164, 52, 102, 100, 42]
13.835[65, 151, 372, 207, 55, 83, 93, 40]
13.858[67, 150, 400, 220, 57, 83, 92, 39]
13.88[74, 161, 414, 208, 57, 120, 138, 41]
13.895[63, 185, 412, 210, 60, 119, 137, 37]
13.918[69, 173, 294, 197, 53, 123, 132, 39]
13.94[70, 168, 341, 177, 53, 127, 131, 41]
13.963[68, 174, 321, 177, 55, 123, 143, 42]
13.977[68, 168, 300, 180, 53, 101, 107, 38]
14.0[62, 108, 303, 160, 51, 102, 98, 35]
14.022[58, 109, 361, 163, 55, 122, 99, 36]
14.037[58, 114, 304, 164, 55, 118, 101, 33]
14.061[60, 149, 273, 158, 51, 120, 85, 36]
14.083[59, 221, 362, 167, 53, 116, 76, 34]
14.098[61, 230, 408, 176, 52, 117, 83, 40]
14.12[64, 230, 400, 181, 49, 96, 76, 40]
14.143[63, 226, 420, 176, 48, 97, 71, 42]
14.158[64, 204, 437, 174, 50, 99, 78, 39]
14.18[65, 122, 372, 164, 49, 95, 94, 37]
14.203[66, 138, 365, 167, 48, 75, 88, 30]
14.217[62, 135, 349, 164, 52, 74, 87, 27]
14.24[64, 150, 371, 197, 54, 77, 88, 26]
14.263[59, 141, 401, 227, 58, 111, 107, 30]
14.278[52, 138, 431, 246, 61, 118, 110, 32]
14.3[58, 122, 392, 244, 64, 120, 110, 36]
14.323[63, 146, 370, 240, 63, 133, 117, 40]
14.338[62, 131, 351, 207, 63, 138, 124, 42]
14.36[64, 132, 310, 220, 69, 119, 107, 41]
14.382[73, 133, 256, 200, 70, 130, 106, 49]
14.398[68, 120, 284, 196, 68, 135, 112, 50]
14.42[61, 110, 319, 209, 67, 123, 110, 49]
14.442[61, 106, 310, 205, 67, 115, 105, 46]
14.458[62, 106, 310, 152, 53, 115, 98, 47]
14.48[52, 103, 372, 153, 53, 107, 102, 42]
14.511[55, 122, 391, 146, 55, 109, 102, 39]
14.518[59, 105, 365, 123, 53, 116, 101, 39]
14.54[71, 110, 375, 121, 52, 118, 102, 46]
14.562[74, 117, 370, 116, 48, 112, 112, 44]
14.578[71, 121, 375, 203, 51, 100, 99, 40]
14.6[78, 108, 351, 219, 48, 95, 92, 43]
14.622[78, 108, 409, 229, 53, 97, 100, 43]
14.638[71, 118, 394, 233, 58, 105, 104, 37]
14.66[65, 112, 432, 239, 63, 115, 109, 37]
14.683[64, 125, 372, 173, 55, 118, 114, 37]
14.697[52, 117, 363, 220, 73, 119, 113, 34]
14.72[54, 118, 310, 223, 70, 111, 106, 33]
14.743[48, 115, 297, 224, 73, 108, 101, 30]
14.758[47, 116, 228, 219, 72, 97, 88, 33]
14.78[47, 96, 271, 220, 74, 99, 79, 32]
14.803[53, 90, 263, 177, 62, 101, 101, 38]
14.825[46, 99, 301, 172, 68, 102, 100, 37]
14.841[48, 85, 298, 163, 65, 110, 102, 39]
14.863[49, 98, 347, 162, 61, 108, 98, 37]
14.885[48, 102, 365, 168, 56, 100, 98, 35]
14.9[51, 107, 425, 167, 56, 94, 77, 34]
14.923[50, 112, 393, 163, 52, 93, 77, 34]
14.945[49, 112, 406, 168, 50, 82, 81, 35]
14.96[48, 95, 389, 180, 54, 85, 93, 32]
14.983[50, 103, 379, 166, 56, 93, 98, 36]
15.005[55, 103, 334, 171, 56, 93, 96, 34]
15.02[55, 101, 394, 184, 55, 91, 107, 34]
15.043[55, 101, 429, 202, 56, 106, 118, 33]
15.065[57, 121, 417, 187, 56, 114, 116, 37]
15.08[68, 114, 409, 187, 54, 105, 111, 39]
15.103[53, 110, 395, 181, 54, 106, 109, 36]
15.126[58, 114, 342, 165, 49, 111, 107, 36]
15.14[58, 112, 311, 133, 49, 94, 89, 35]
15.163[67, 96, 336, 133, 44, 94, 86, 36]
15.185[55, 92, 308, 125, 54, 101, 83, 31]
15.2[58, 92, 313, 169, 62, 108, 96, 32]
15.222[58, 69, 299, 181, 62, 110, 87, 32]
15.245[73, 78, 255, 183, 62, 118, 86, 37]
15.26[68, 108, 216, 188, 66, 112, 93, 35]
15.283[71, 110, 327, 196, 62, 122, 116, 39]
15.305[70, 130, 329, 136, 52, 120, 118, 37]
15.32[76, 132, 326, 165, 61, 113, 114, 41]
15.351[61, 137, 391, 179, 60, 108, 115, 37]
15.365[59, 115, 419, 177, 63, 119, 105, 34]
15.38[55, 113, 350, 174, 64, 119, 84, 31]
15.402[67, 101, 337, 177, 63, 117, 69, 40]
15.434[54, 100, 351, 130, 60, 116, 67, 34]
15.44[52, 92, 403, 137, 61, 121, 76, 35]
15.462[63, 88, 410, 166, 57, 119, 88, 39]
15.485[64, 110, 408, 204, 52, 113, 85, 39]
15.5[51, 99, 404, 201, 51, 113, 84, 31]
15.523[53, 98, 400, 203, 46, 115, 85, 31]
15.545[56, 91, 281, 186, 43, 115, 102, 32]
15.56[58, 88, 277, 166, 44, 123, 107, 38]
15.583[60, 58, 264, 110, 46, 131, 115, 39]
15.606[59, 66, 380, 119, 50, 132, 122, 40]
15.62[74, 69, 405, 125, 51, 132, 127, 50]
15.643[73, 69, 412, 127, 53, 129, 119, 51]
15.666[64, 73, 376, 122, 53, 110, 104, 44]
15.68[64, 78, 384, 142, 54, 91, 93, 47]
15.703[75, 69, 280, 137, 51, 94, 91, 51]
15.726[61, 63, 245, 145, 51, 108, 91, 43]
15.74[62, 78, 237, 162, 52, 111, 77, 42]
15.762[60, 85, 265, 166, 51, 111, 78, 42]
15.786[66, 83, 272, 151, 54, 110, 86, 43]
15.8[54, 82, 270, 153, 55, 102, 86, 38]
15.823[55, 89, 276, 153, 60, 129, 101, 43]
15.846[51, 77, 280, 136, 61, 133, 110, 45]
15.869[49, 76, 379, 154, 64, 141, 111, 46]
15.883[54, 71, 387, 154, 58, 142, 112, 43]
15.906[58, 79, 403, 150, 61, 147, 107, 43]
15.928[61, 98, 410, 143, 54, 111, 110, 41]
15.942[62, 104, 416, 140, 50, 99, 108, 39]
15.966[67, 96, 314, 119, 44, 87, 106, 41]
15.989[55, 97, 354, 133, 46, 95, 117, 40]
16.003[53, 94, 378, 161, 47, 110, 125, 41]
16.026[52, 70, 355, 159, 46, 113, 109, 39]
16.048[55, 70, 371, 155, 47, 112, 104, 39]
16.063[52, 73, 378, 159, 50, 111, 113, 37]
16.086[51, 80, 322, 144, 48, 104, 102, 38]
16.108[59, 77, 262, 109, 43, 80, 88, 39]
16.123[54, 74, 272, 104, 41, 73, 89, 36]
16.146[50, 60, 249, 116, 44, 77, 98, 35]
16.169[49, 59, 244, 126, 41, 80, 91, 34]
16.183[56, 55, 275, 150, 46, 85, 91, 39]
16.206[45, 54, 296, 156, 47, 95, 99, 35]
16.228[46, 54, 342, 160, 49, 98, 99, 33]
16.243[48, 53, 357, 207, 56, 99, 91, 36]
16.266[59, 48, 369, 193, 55, 106, 92, 39]
16.289[51, 46, 343, 180, 56, 108, 91, 33]
16.303[52, 48, 349, 177, 58, 112, 89, 35]
16.326[57, 48, 348, 200, 56, 109, 84, 38]
16.35[64, 52, 315, 178, 52, 110, 81, 39]
16.363[50, 55, 291, 178, 54, 110, 83, 35]
16.386[51, 49, 292, 175, 50, 103, 78, 34]
16.408[50, 46, 297, 181, 46, 88, 70, 32]
16.423[54, 54, 267, 152, 51, 90, 73, 39]
16.446[44, 53, 263, 132, 47, 131, 89, 35]
16.469[44, 52, 277, 126, 47, 143, 100, 37]
16.483[46, 55, 277, 126, 48, 144, 103, 44]
16.506[60, 55, 269, 117, 47, 147, 105, 52]
16.528[50, 49, 245, 128, 48, 150, 115, 44]
16.543[51, 49, 241, 103, 53, 111, 101, 48]
16.566[53, 48, 254, 103, 53, 90, 96, 47]
16.589[60, 46, 284, 103, 55, 89, 94, 44]
16.603[46, 46, 291, 97, 60, 88, 91, 36]
16.626[47, 43, 303, 81, 56, 76, 74, 37]
16.649[56, 48, 327, 125, 59, 82, 90, 39]
16.663[57, 48, 325, 147, 59, 82, 84, 40]
16.686[50, 47, 305, 160, 58, 91, 86, 37]
16.708[57, 53, 295, 159, 56, 99, 94, 40]
16.723[57, 57, 271, 158, 55, 100, 97, 39]
16.746[51, 53, 265, 149, 46, 93, 81, 33]
16.768[56, 60, 247, 139, 48, 104, 74, 35]
16.791[58, 62, 265, 162, 49, 108, 88, 34]
16.806[54, 55, 244, 167, 45, 107, 93, 35]
16.829[56, 62, 288, 178, 50, 108, 91, 36]
16.851[56, 62, 306, 168, 54, 110, 91, 36]
16.866[48, 58, 305, 163, 53, 103, 89, 33]
16.888[50, 61, 295, 173, 55, 102, 82, 35]
16.911[46, 62, 300, 177, 60, 101, 68, 31]
16.926[50, 55, 279, 173, 60, 104, 63, 32]
16.949[50, 52, 258, 165, 56, 99, 63, 31]
16.971[58, 51, 268, 165, 56, 98, 71, 35]
16.986[52, 52, 257, 121, 52, 96, 64, 36]
17.008[52, 51, 302, 113, 47, 84, 60, 35]
17.031[48, 52, 283, 135, 47, 80, 63, 34]
17.046[56, 55, 261, 140, 48, 102, 67, 39]
17.068[50, 55, 240, 136, 49, 108, 70, 40]
17.091[52, 52, 243, 142, 48, 105, 68, 40]
17.106[54, 57, 212, 151, 48, 108, 68, 40]
17.129[58, 56, 238, 177, 43, 127, 89, 43]
17.151[57, 57, 248, 196, 55, 127, 95, 40]
17.174[54, 63, 336, 230, 58, 123, 88, 36]
17.188[53, 62, 342, 226, 58, 123, 90, 33]
17.211[64, 62, 344, 219, 58, 134, 118, 41]
17.227[57, 62, 329, 193, 66, 131, 116, 38]
17.248[50, 60, 340, 176, 61, 116, 112, 34]
17.271[67, 55, 280, 124, 54, 116, 111, 45]
17.285[68, 52, 285, 126, 54, 121, 129, 48]
17.308[56, 51, 253, 129, 53, 117, 111, 41]
17.331[59, 57, 267, 146, 42, 109, 99, 43]
17.346[60, 59, 296, 161, 37, 111, 96, 43]
17.369[55, 57, 277, 169, 39, 104, 101, 37]
17.391[58, 60, 282, 165, 42, 107, 86, 36]
17.405[58, 62, 289, 156, 43, 107, 84, 35]
17.429[57, 62, 284, 132, 46, 102, 90, 34]
17.451[56, 58, 230, 112, 48, 98, 90, 34]
17.465[59, 66, 228, 103, 50, 106, 91, 37]
17.489[54, 65, 236, 132, 47, 107, 93, 38]
17.519[55, 65, 264, 141, 48, 99, 102, 37]
17.525[56, 60, 259, 132, 51, 118, 125, 42]
17.549[58, 58, 288, 135, 50, 122, 131, 42]
17.571[45, 56, 338, 166, 57, 133, 136, 36]
17.586[51, 56, 326, 148, 60, 137, 131, 38]
17.609[48, 52, 294, 141, 59, 143, 129, 37]
17.631[48, 52, 315, 145, 57, 143, 116, 36]
17.645[49, 58, 332, 162, 56, 143, 112, 36]
17.669[45, 52, 276, 147, 47, 127, 103, 36]
17.691[55, 52, 274, 148, 47, 114, 101, 33]
17.705[57, 58, 330, 149, 46, 157, 118, 36]
17.729[54, 59, 313, 143, 45, 149, 106, 32]
17.751[56, 58, 292, 115, 46, 149, 110, 31]
17.774[57, 60, 301, 137, 49, 164, 121, 35]
17.789[55, 62, 318, 138, 56, 186, 135, 37]
17.812[54, 57, 276, 138, 59, 153, 119, 35]
17.834[55, 55, 261, 136, 57, 158, 133, 34]
17.849[54, 50, 250, 132, 65, 156, 138, 36]
17.87[54, 55, 308, 118, 63, 143, 128, 31]
17.893[56, 56, 282, 115, 64, 124, 115, 36]
17.909[56, 61, 306, 124, 64, 131, 114, 39]
17.93[63, 63, 326, 135, 66, 121, 95, 40]
17.954[60, 67, 368, 155, 65, 122, 79, 42]
17.969[67, 64, 362, 150, 64, 147, 91, 45]
17.99[55, 60, 369, 148, 54, 157, 116, 42]
18.013[58, 58, 376, 141, 53, 151, 122, 42]
18.029[55, 66, 371, 139, 51, 148, 121, 42]
18.05[54, 66, 337, 142, 50, 145, 121, 40]
18.073[56, 68, 312, 142, 52, 134, 135, 43]
18.097[55, 66, 292, 142, 53, 111, 114, 40]
18.11[53, 72, 253, 142, 52, 97, 101, 38]
18.133[50, 62, 235, 136, 54, 101, 101, 38]
18.149[50, 65, 215, 110, 51, 106, 102, 37]
18.17[34, 58, 179, 87, 48, 83, 67, 29]
18.2[50, 62, 195, 89, 49, 84, 83, 32]
18.209[50, 51, 216, 104, 52, 90, 82, 36]
18.231[51, 50, 227, 128, 50, 88, 86, 38]
18.253[54, 46, 242, 150, 50, 101, 91, 39]
18.269[64, 47, 279, 172, 53, 105, 92, 44]
18.291[53, 48, 269, 206, 58, 101, 72, 41]
18.313[54, 50, 265, 212, 56, 101, 70, 38]
18.329[56, 49, 266, 201, 62, 118, 79, 36]
18.351[62, 51, 284, 187, 62, 106, 91, 41]
18.373[54, 51, 259, 172, 57, 104, 88, 35]
18.389[54, 50, 292, 130, 53, 107, 94, 34]
18.41[53, 45, 280, 116, 55, 107, 93, 36]
18.433[61, 52, 298, 114, 50, 93, 89, 38]
18.449[53, 50, 257, 122, 50, 101, 80, 30]
18.47[51, 49, 278, 120, 52, 107, 93, 33]
18.493[49, 47, 281, 133, 48, 108, 86, 34]
18.517[53, 53, 278, 146, 43, 104, 87, 32]
18.531[55, 49, 255, 155, 40, 96, 81, 36]
18.553[56, 51, 274, 155, 39, 105, 86, 37]
18.569[56, 57, 272, 153, 44, 111, 79, 33]
18.591[56, 60, 230, 136, 47, 109, 78, 34]
18.613[66, 54, 242, 113, 49, 108, 77, 38]
18.629[54, 57, 239, 92, 48, 108, 81, 34]
18.651[53, 52, 242, 90, 48, 110, 71, 36]
18.673[55, 47, 202, 90, 41, 102, 74, 38]
18.696[55, 45, 221, 116, 39, 98, 79, 39]
18.711[53, 47, 239, 116, 37, 96, 77, 35]
18.733[53, 44, 319, 128, 38, 101, 72, 33]
18.755[53, 44, 301, 119, 36, 82, 70, 30]
18.771[52, 49, 313, 116, 39, 78, 59, 30]
18.793[53, 68, 423, 162, 43, 79, 53, 28]
18.817[57, 66, 404, 163, 48, 78, 63, 29]
18.831[57, 68, 350, 161, 48, 78, 72, 31]
18.853[57, 70, 353, 160, 47, 81, 79, 32]
18.876[58, 67, 359, 162, 48, 84, 85, 32]
18.891[56, 46, 208, 92, 42, 82, 85, 32]
18.913[40, 48, 207, 91, 43, 80, 77, 31]
18.936[40, 54, 235, 85, 45, 68, 67, 29]
18.95[51, 58, 241, 88, 45, 71, 64, 34]
18.975[51, 59, 276, 94, 46, 73, 57, 34]
18.995[53, 65, 315, 117, 53, 82, 58, 35]
19.01[55, 69, 312, 119, 53, 87, 57, 33]
19.034[70, 64, 291, 115, 54, 111, 82, 39]
19.055[62, 60, 283, 118, 60, 111, 80, 34]
19.07[60, 59, 250, 113, 59, 109, 81, 33]
19.093[60, 57, 201, 120, 57, 105, 80, 33]
19.116[56, 54, 202, 165, 60, 110, 92, 33]
19.13[57, 57, 230, 181, 60, 105, 89, 35]
19.153[58, 55, 229, 183, 54, 95, 87, 34]
19.175[60, 54, 202, 182, 52, 96, 87, 36]
19.191[65, 52, 197, 163, 54, 105, 92, 36]
19.213[65, 52, 189, 115, 50, 108, 87, 36]
19.236[55, 53, 256, 113, 48, 107, 72, 39]
19.251[54, 53, 274, 104, 48, 108, 69, 40]
19.273[55, 55, 285, 108, 61, 109, 77, 40]
19.296[49, 55, 280, 107, 57, 98, 74, 38]
19.31[49, 51, 295, 108, 56, 115, 73, 38]
19.333[49, 46, 210, 82, 60, 123, 104, 32]
19.356[57, 58, 221, 111, 63, 125, 110, 32]
19.371[52, 57, 214, 112, 49, 124, 103, 30]
19.393[52, 60, 252, 117, 52, 128, 103, 31]
19.416[53, 64, 286, 120, 51, 120, 116, 31]
19.431[54, 63, 282, 127, 48, 108, 97, 29]
19.453[48, 55, 287, 115, 46, 103, 89, 29]
19.476[53, 58, 280, 107, 47, 98, 90, 31]
19.49[53, 57, 251, 104, 47, 95, 88, 30]
19.513[54, 51, 191, 100, 47, 74, 65, 31]
19.535[43, 49, 201, 93, 45, 70, 58, 27]
19.55[40, 48, 145, 75, 41, 74, 58, 27]
19.573[34, 40, 145, 69, 43, 75, 56, 25]
19.595[32, 36, 131, 58, 36, 73, 58, 27]
19.618[25, 38, 123, 44, 34, 64, 51, 24]
19.641[24, 37, 83, 34, 35, 48, 38, 23]
19.656[24, 34, 68, 30, 32, 37, 34, 22]
19.679[23, 32, 51, 28, 28, 31, 29, 23]
19.693[21, 28, 40, 26, 28, 23, 22, 21]
19.716[20, 25, 28, 21, 26, 21, 23, 21]
19.738[19, 22, 25, 20, 23, 21, 21, 22]
19.753[19, 22, 25, 20, 22, 21, 20, 23]
19.776[19, 23, 22, 20, 21, 21, 19, 21]
19.798[19, 21, 21, 21, 19, 20, 19, 21]
19.813[18, 19, 21, 19, 18, 20, 18, 22]
19.836[17, 18, 19, 19, 18, 17, 21, 20]
19.858[18, 17, 19, 18, 18, 17, 21, 20]
19.873[18, 18, 21, 20, 18, 17, 22, 19]
19.896[19, 19, 21, 20, 19, 19, 21, 19]
19.919[20, 18, 21, 23, 20, 22, 22, 17]
19.933[19, 22, 20, 25, 20, 23, 19, 17]
19.955[21, 30, 22, 27, 22, 22, 20, 18]
19.978[20, 31, 20, 26, 21, 23, 19, 18]
19.993[21, 38, 26, 25, 22, 22, 20, 20]
20.016[28, 48, 26, 26, 24, 20, 20, 22]
20.038[29, 47, 27, 25, 24, 19, 20, 22]
20.053[28, 45, 26, 25, 24, 20, 19, 19]
20.075[27, 45, 25, 24, 25, 19, 18, 23]
20.098[29, 44, 19, 25, 25, 18, 18, 21]
20.113[23, 39, 19, 22, 22, 19, 16, 20]
20.136[24, 39, 20, 21, 21, 19, 17, 21]
20.159[23, 36, 21, 18, 23, 19, 18, 21]
20.173[25, 40, 21, 20, 23, 20, 21, 20]
20.196[22, 35, 22, 18, 23, 20, 20, 20]
20.218[21, 29, 23, 20, 24, 18, 21, 20]
20.234[20, 29, 22, 22, 23, 19, 20, 19]
20.256[21, 28, 22, 23, 22, 18, 20, 20]
20.278[19, 20, 21, 22, 21, 18, 18, 16]
20.293[19, 19, 22, 22, 20, 18, 19, 18]
20.316[19, 18, 21, 21, 20, 18, 20, 17]
20.338[20, 18, 20, 18, 20, 19, 21, 19]
20.353[19, 22, 21, 16, 21, 19, 20, 17]
20.376[18, 23, 22, 18, 21, 20, 21, 17]
20.398[18, 22, 20, 18, 21, 20, 19, 17]
20.413[17, 22, 20, 20, 21, 20, 19, 18]
20.436[17, 23, 21, 20, 21, 18, 18, 16]
20.458[16, 20, 21, 21, 20, 18, 19, 18]
20.475[20, 20, 20, 20, 22, 18, 18, 19]
20.496[20, 22, 19, 22, 23, 18, 20, 18]
20.518[21, 22, 21, 20, 23, 19, 20, 18]
20.533[22, 22, 19, 21, 25, 19, 21, 18]
20.556[23, 22, 21, 23, 24, 19, 20, 17]
20.579[23, 23, 22, 23, 23, 17, 20, 17]
20.602[23, 21, 23, 20, 23, 19, 20, 17]
20.616[22, 22, 22, 21, 24, 18, 19, 18]
20.638[21, 20, 22, 21, 24, 19, 17, 16]
20.661[21, 20, 21, 17, 23, 20, 17, 17]
20.676[18, 18, 20, 19, 23, 21, 19, 16]
20.698[19, 19, 22, 20, 22, 19, 18, 17]
20.722[18, 19, 24, 21, 21, 20, 18, 16]
20.736[18, 20, 24, 21, 19, 20, 17, 17]
20.758[17, 19, 24, 22, 20, 21, 18, 16]
20.781[17, 21, 23, 20, 19, 21, 17, 18]
20.804[16, 20, 24, 21, 20, 23, 17, 18]
20.818[16, 20, 22, 19, 22, 23, 17, 20]
20.841[17, 21, 21, 18, 22, 22, 17, 21]
20.856[17, 21, 22, 20, 21, 21, 17, 22]
20.878[17, 21, 23, 20, 21, 20, 17, 20]
20.901[18, 21, 21, 19, 21, 18, 16, 21]
20.916[17, 20, 20, 19, 21, 17, 16, 19]
20.938[18, 20, 22, 19, 23, 20, 18, 19]
20.961[20, 19, 21, 16, 22, 19, 17, 20]
20.976[21, 20, 20, 17, 21, 20, 16, 20]
20.998[22, 22, 20, 18, 22, 19, 18, 18]
21.021[23, 22, 23, 20, 22, 20, 17, 20]
21.036[21, 21, 22, 20, 21, 19, 17, 21]
21.058[20, 21, 22, 19, 21, 19, 19, 19]
21.081[20, 21, 23, 18, 21, 19, 19, 19]
21.096[19, 20, 22, 18, 21, 19, 18, 20]
21.119[19, 20, 21, 18, 19, 20, 20, 20]
21.142[20, 21, 21, 18, 19, 19, 19, 20]
21.156[18, 21, 21, 18, 20, 19, 19, 21]
21.179[19, 20, 20, 19, 19, 19, 19, 22]
21.201[18, 19, 20, 19, 19, 22, 19, 20]
21.216[17, 19, 19, 18, 20, 21, 19, 21]
21.239[18, 21, 20, 18, 21, 20, 18, 21]
21.269[18, 21, 21, 18, 21, 22, 17, 20]
21.276[19, 21, 25, 19, 22, 22, 17, 19]
21.299[22, 19, 26, 18, 22, 19, 20, 21]
21.322[22, 19, 26, 19, 21, 19, 20, 18]
21.336[21, 17, 25, 18, 21, 21, 20, 17]
21.359[22, 20, 24, 21, 21, 22, 20, 18]
21.382[20, 20, 21, 19, 20, 21, 20, 19]
21.396[17, 23, 22, 21, 21, 22, 18, 17]
21.419[18, 22, 21, 20, 21, 22, 20, 20]
21.441[19, 26, 23, 22, 20, 21, 21, 19]
21.456[19, 25, 23, 21, 17, 18, 21, 19]
21.479[19, 26, 23, 21, 19, 18, 21, 19]
21.502[19, 24, 22, 20, 19, 18, 22, 21]
21.524[20, 26, 22, 22, 19, 18, 19, 18]
21.539[19, 23, 21, 21, 17, 17, 18, 20]
21.562[19, 21, 21, 19, 20, 17, 17, 19]
21.584[20, 23, 22, 21, 19, 18, 17, 20]
21.599[19, 23, 20, 21, 22, 19, 16, 19]
21.622[18, 22, 21, 20, 21, 20, 16, 21]
21.644[19, 22, 19, 20, 23, 20, 17, 19]
21.659[17, 22, 20, 21, 22, 22, 15, 19]
21.682[17, 19, 18, 20, 21, 21, 17, 20]
21.704[19, 19, 19, 20, 19, 20, 16, 19]
21.719[20, 22, 22, 20, 20, 21, 18, 20]
21.742[20, 24, 22, 20, 21, 23, 17, 22]
21.764[19, 25, 20, 19, 22, 22, 18, 21]
21.779[21, 25, 23, 19, 22, 21, 17, 20]
21.802[18, 25, 23, 20, 21, 21, 18, 22]
21.824[18, 22, 21, 21, 21, 18, 17, 19]
21.839[20, 20, 23, 21, 20, 18, 18, 19]
21.862[20, 18, 23, 21, 20, 18, 19, 18]
21.884[18, 19, 22, 22, 22, 19, 19, 19]
21.899[17, 19, 22, 20, 22, 19, 19, 17]
21.922[17, 20, 21, 19, 22, 20, 18, 17]
21.944[19, 22, 21, 19, 23, 21, 19, 18]
21.959[19, 23, 22, 19, 22, 21, 20, 18]
21.982[22, 24, 53, 22, 21, 20, 20, 18]
22.004[23, 26, 57, 22, 20, 19, 21, 20]
22.019[22, 26, 59, 21, 21, 18, 21, 21]
22.042[22, 25, 80, 23, 22, 19, 20, 20]
22.064[22, 24, 81, 22, 22, 19, 20, 19]
22.078[23, 22, 67, 23, 23, 21, 20, 18]
22.102[22, 23, 66, 25, 25, 22, 18, 18]
22.124[22, 22, 64, 26, 25, 22, 17, 17]
22.139[21, 21, 37, 24, 24, 20, 16, 17]
22.162[23, 22, 36, 24, 22, 20, 17, 18]
22.192[19, 21, 32, 21, 22, 19, 15, 18]
22.199[19, 21, 26, 21, 22, 19, 19, 17]
22.221[20, 22, 25, 22, 21, 20, 20, 19]
22.244[19, 23, 17, 22, 22, 20, 21, 21]
22.258[18, 22, 19, 23, 24, 19, 20, 21]
22.282[18, 23, 19, 24, 23, 19, 21, 22]
22.304[18, 21, 18, 23, 22, 21, 20, 21]
22.318[19, 22, 20, 21, 22, 21, 20, 21]
22.342[20, 19, 21, 20, 19, 20, 20, 19]
22.364[20, 20, 21, 21, 19, 20, 20, 19]
22.379[20, 22, 20, 20, 19, 19, 20, 17]
22.402[19, 21, 22, 20, 19, 18, 19, 18]
22.424[18, 22, 20, 21, 19, 18, 20, 17]
22.438[17, 23, 20, 21, 21, 19, 19, 17]
22.462[18, 21, 19, 20, 20, 18, 19, 16]
22.484[19, 20, 21, 21, 20, 19, 19, 18]
22.507[21, 21, 21, 20, 20, 18, 18, 18]
22.522[21, 18, 21, 18, 21, 18, 18, 19]
22.544[21, 19, 22, 19, 19, 19, 18, 20]
22.567[21, 20, 22, 21, 19, 20, 20, 20]
22.582[24, 21, 21, 22, 22, 20, 19, 20]
22.604[22, 21, 21, 22, 23, 21, 20, 20]
22.627[20, 21, 21, 23, 23, 20, 19, 20]
22.643[19, 20, 21, 22, 23, 18, 20, 21]
22.664[19, 22, 19, 21, 24, 19, 18, 22]
22.687[14, 21, 19, 21, 22, 19, 19, 21]
22.702[17, 20, 19, 21, 21, 20, 19, 20]
22.724[18, 21, 19, 19, 20, 20, 18, 21]
22.747[19, 20, 19, 20, 19, 22, 17, 18]
22.762[18, 19, 23, 20, 19, 21, 17, 18]
22.785[20, 19, 22, 21, 19, 21, 19, 17]
22.807[18, 20, 23, 20, 20, 19, 18, 19]
22.822[17, 19, 23, 23, 19, 22, 20, 19]
22.845[20, 21, 24, 22, 19, 20, 19, 20]
22.866[19, 22, 22, 21, 19, 19, 21, 20]
22.882[18, 21, 24, 21, 18, 18, 18, 21]
22.912[19, 21, 22, 21, 17, 19, 19, 20]
22.926[20, 22, 21, 19, 19, 17, 19, 20]
22.942[17, 19, 21, 21, 21, 18, 20, 19]
22.963[18, 21, 20, 22, 21, 18, 19, 18]
22.986[18, 22, 19, 22, 21, 18, 20, 17]
23.008[19, 25, 22, 20, 21, 17, 19, 18]
23.025[18, 25, 22, 20, 20, 17, 19, 17]
23.047[18, 25, 21, 24, 18, 17, 18, 18]
23.063[17, 25, 22, 27, 19, 19, 19, 20]
23.083[16, 25, 23, 27, 18, 18, 19, 19]
23.106[17, 22, 20, 27, 18, 19, 20, 20]
23.122[18, 22, 22, 28, 20, 19, 19, 19]
23.143[18, 23, 23, 23, 20, 20, 19, 20]
23.166[20, 21, 21, 20, 20, 18, 19, 19]
23.182[19, 20, 22, 21, 22, 20, 20, 21]
23.204[18, 20, 23, 21, 21, 19, 18, 19]
23.227[17, 25, 25, 24, 21, 19, 20, 20]
23.242[26, 27, 25, 28, 22, 18, 20, 21]
23.263[25, 29, 28, 27, 23, 19, 20, 21]
23.286[27, 30, 27, 27, 21, 19, 19, 20]
23.302[28, 30, 28, 28, 22, 20, 20, 21]
23.325[29, 26, 24, 26, 21, 19, 20, 20]
23.346[22, 24, 25, 23, 22, 18, 21, 17]
23.368[22, 21, 24, 22, 21, 17, 21, 17]
23.383[23, 21, 26, 23, 21, 17, 20, 19]
23.406[23, 22, 24, 22, 21, 17, 20, 19]
23.428[23, 23, 26, 20, 22, 18, 18, 19]
23.443[22, 20, 24, 20, 20, 19, 16, 18]
23.466[22, 20, 22, 21, 19, 19, 16, 18]
23.488[20, 23, 19, 19, 21, 21, 17, 17]
23.503[19, 21, 19, 19, 21, 22, 18, 16]
23.526[19, 23, 18, 22, 20, 23, 19, 17]
23.548[19, 23, 18, 21, 19, 22, 19, 17]
23.565[21, 24, 21, 23, 22, 21, 19, 17]
23.586[21, 22, 22, 23, 22, 19, 19, 17]
23.608[21, 23, 22, 22, 22, 18, 19, 17]
23.625[20, 22, 24, 21, 22, 17, 18, 18]
23.646[19, 22, 24, 21, 23, 19, 19, 18]
23.669[19, 22, 24, 19, 21, 20, 20, 18]
23.683[20, 22, 23, 18, 19, 21, 20, 19]
23.706[19, 24, 23, 19, 19, 20, 20, 19]
23.73[19, 22, 22, 17, 20, 19, 19, 19]
23.744[20, 24, 24, 18, 18, 19, 18, 21]
23.774[20, 23, 23, 18, 19, 19, 15, 21]
23.788[20, 22, 23, 18, 19, 17, 15, 20]
23.803[20, 21, 23, 18, 19, 17, 17, 20]
23.826[21, 22, 21, 18, 18, 17, 18, 19]
23.85[22, 21, 20, 19, 20, 19, 20, 17]
23.863[21, 20, 20, 21, 20, 18, 20, 17]
23.886[22, 22, 20, 21, 21, 18, 20, 17]
23.908[21, 21, 19, 22, 21, 20, 20, 17]
23.923[22, 21, 19, 24, 20, 19, 19, 16]
23.946[20, 22, 21, 22, 19, 17, 19, 17]
23.968[20, 24, 22, 22, 19, 18, 19, 17]
23.983[18, 23, 23, 21, 20, 20, 18, 16]
24.006[21, 22, 23, 20, 21, 18, 18, 16]
24.028[20, 21, 23, 18, 22, 18, 18, 18]
24.043[20, 21, 19, 19, 21, 19, 19, 17]
24.067[20, 20, 17, 18, 22, 18, 19, 17]
24.089[22, 22, 18, 18, 22, 19, 21, 19]
24.103[20, 23, 17, 18, 22, 19, 22, 20]
24.126[19, 25, 19, 20, 21, 19, 21, 19]
24.149[21, 23, 19, 20, 23, 18, 21, 18]
24.164[19, 25, 20, 21, 20, 20, 21, 19]
24.186[19, 23, 19, 21, 18, 17, 20, 19]
24.208[19, 22, 22, 22, 19, 17, 18, 17]
24.223[21, 21, 21, 22, 20, 18, 18, 16]
24.246[20, 22, 22, 21, 19, 18, 19, 17]
24.268[19, 19, 22, 19, 21, 19, 20, 16]
24.283[19, 20, 22, 20, 22, 20, 19, 15]
24.306[18, 20, 22, 19, 20, 20, 20, 17]
24.328[17, 21, 23, 18, 20, 21, 19, 18]
24.351[16, 21, 23, 18, 20, 21, 19, 18]
24.374[17, 24, 22, 19, 21, 19, 19, 19]
24.388[19, 26, 23, 19, 20, 21, 19, 21]
24.411[20, 26, 21, 18, 20, 21, 19, 20]
24.426[21, 26, 21, 20, 19, 21, 20, 20]
24.456[21, 26, 22, 21, 21, 22, 19, 21]
24.471[23, 24, 23, 21, 20, 22, 19, 20]
24.486[21, 23, 22, 21, 20, 19, 20, 20]
24.508[21, 24, 25, 22, 20, 19, 22, 19]
24.531[21, 22, 24, 20, 21, 19, 21, 19]
24.546[20, 22, 25, 20, 19, 19, 21, 18]
24.569[20, 23, 26, 21, 20, 19, 21, 19]
24.591[20, 22, 27, 20, 19, 21, 21, 17]
24.606[18, 21, 26, 19, 18, 21, 20, 18]
24.629[17, 22, 25, 20, 18, 20, 21, 18]
24.651[18, 22, 25, 20, 20, 19, 19, 18]
24.666[17, 22, 23, 19, 20, 19, 19, 18]
24.688[19, 22, 21, 20, 23, 19, 19, 18]
24.711[20, 21, 19, 19, 24, 18, 19, 18]
24.726[22, 23, 20, 19, 23, 19, 18, 18]
24.748[22, 25, 19, 21, 22, 18, 20, 18]
24.771[23, 23, 20, 21, 21, 20, 21, 17]
24.786[22, 24, 21, 19, 18, 19, 21, 17]
24.809[24, 24, 24, 20, 20, 20, 21, 16]
24.84[24, 24, 24, 20, 21, 20, 20, 16]
24.847[24, 24, 25, 19, 20, 21, 20, 18]
24.869[25, 26, 24, 19, 20, 19, 17, 18]
24.891[24, 25, 24, 21, 20, 18, 18, 18]
24.906[20, 25, 22, 20, 19, 17, 19, 19]
24.929[19, 22, 21, 19, 18, 16, 20, 20]
24.951[20, 22, 21, 19, 18, 17, 20, 19]
24.966[17, 20, 20, 18, 19, 16, 22, 18]
24.989[19, 23, 20, 16, 20, 18, 21, 19]
25.011[19, 23, 19, 17, 21, 18, 21, 19]
25.026[20, 23, 19, 18, 21, 18, 19, 17]
25.057[19, 22, 18, 18, 22, 17, 19, 19]
25.071[19, 25, 22, 18, 24, 18, 18, 19]
25.086[18, 22, 20, 20, 24, 18, 19, 18]
25.109[18, 22, 21, 20, 24, 19, 20, 18]
25.131[19, 23, 21, 19, 24, 18, 21, 18]
25.146[20, 25, 21, 19, 24, 20, 21, 16]
25.169[20, 22, 20, 20, 22, 19, 20, 18]
25.191[20, 24, 22, 19, 22, 19, 20, 20]
25.206[21, 24, 22, 18, 21, 18, 18, 18]
25.229[21, 24, 23, 20, 20, 21, 17, 20]
25.251[21, 23, 24, 21, 20, 20, 18, 21]
25.266[22, 23, 23, 21, 19, 21, 17, 20]
25.289[22, 24, 22, 20, 18, 21, 16, 20]
25.311[20, 23, 21, 21, 19, 21, 17, 22]
25.335[21, 24, 19, 20, 20, 19, 17, 20]
25.349[23, 23, 18, 19, 19, 19, 17, 19]
25.371[22, 24, 19, 18, 19, 17, 17, 21]
25.394[21, 23, 18, 18, 20, 17, 17, 20]
25.409[21, 26, 20, 18, 20, 19, 17, 19]
25.431[19, 25, 20, 17, 22, 18, 18, 19]
25.454[17, 26, 22, 18, 22, 19, 18, 20]
25.477[17, 27, 21, 18, 21, 19, 18, 19]
25.491[19, 26, 22, 19, 21, 19, 20, 19]
25.514[21, 26, 21, 19, 20, 19, 21, 18]
25.529[21, 24, 22, 19, 20, 18, 19, 18]
25.552[20, 24, 21, 18, 21, 19, 20, 17]
25.574[20, 23, 22, 19, 22, 19, 20, 17]
25.589[19, 25, 22, 19, 22, 19, 19, 18]
25.611[17, 25, 23, 19, 24, 18, 19, 19]
25.634[18, 26, 24, 20, 24, 20, 20, 19]
25.649[19, 25, 25, 20, 24, 19, 19, 19]
25.671[19, 26, 25, 20, 23, 20, 19, 20]
25.695[19, 25, 25, 20, 24, 21, 19, 19]
25.709[19, 24, 25, 21, 23, 22, 19, 17]
25.731[18, 23, 23, 21, 22, 22, 17, 16]
25.754[18, 24, 24, 22, 22, 22, 16, 19]
25.769[18, 23, 23, 21, 22, 20, 16, 19]
25.791[19, 22, 23, 22, 22, 19, 15, 20]
25.815[20, 20, 23, 19, 20, 19, 16, 21]
25.829[20, 22, 26, 20, 20, 19, 19, 22]
25.851[22, 24, 25, 22, 19, 21, 20, 21]
25.874[20, 24, 25, 23, 20, 21, 20, 19]
25.889[20, 24, 25, 23, 20, 22, 20, 19]
25.911[21, 24, 26, 23, 23, 20, 19, 20]
25.934[21, 23, 23, 23, 22, 20, 17, 19]
25.949[20, 21, 24, 22, 22, 19, 17, 17]
25.971[20, 21, 23, 21, 20, 19, 17, 17]
25.994[20, 24, 23, 22, 18, 18, 19, 19]
26.009[20, 25, 22, 23, 16, 19, 17, 17]
26.031[19, 25, 22, 21, 17, 19, 18, 17]
26.055[20, 25, 22, 21, 18, 19, 19, 17]
26.069[25, 36, 23, 21, 19, 17, 18, 21]
26.091[27, 35, 26, 22, 22, 17, 17, 21]
26.115[26, 36, 24, 21, 21, 17, 18, 22]
26.129[27, 38, 24, 23, 20, 16, 20, 24]
26.151[26, 39, 24, 23, 22, 17, 20, 24]
26.174[22, 29, 24, 22, 22, 17, 19, 23]
26.189[18, 29, 22, 21, 21, 19, 21, 22]
26.211[18, 26, 26, 21, 23, 19, 20, 20]
26.234[19, 25, 25, 20, 26, 21, 19, 19]
26.257[20, 25, 25, 20, 23, 21, 19, 18]
26.271[21, 25, 25, 20, 22, 22, 20, 18]
26.295[23, 25, 23, 18, 23, 21, 18, 18]
26.317[23, 25, 21, 20, 23, 21, 19, 19]
26.331[22, 23, 21, 19, 20, 19, 19, 18]
26.355[21, 23, 21, 20, 20, 20, 19, 19]
26.378[22, 24, 21, 20, 21, 18, 20, 19]
26.391[21, 25, 23, 21, 22, 18, 19, 20]
26.414[22, 25, 25, 21, 22, 18, 17, 19]
26.437[22, 25, 24, 20, 23, 18, 17, 19]
26.451[23, 24, 25, 20, 23, 18, 16, 18]
26.475[21, 23, 25, 21, 24, 19, 16, 15]
26.497[22, 23, 26, 23, 24, 20, 19, 18]
26.511[34, 42, 29, 27, 28, 21, 22, 20]
26.534[34, 56, 33, 28, 29, 20, 22, 20]
26.557[36, 61, 34, 29, 29, 21, 23, 23]
26.571[35, 63, 34, 29, 28, 19, 22, 24]
26.594[36, 62, 33, 30, 27, 17, 20, 23]
26.617[29, 53, 36, 29, 24, 17, 20, 23]
26.631[27, 39, 34, 29, 24, 20, 18, 23]
26.655[26, 32, 35, 30, 25, 19, 17, 21]
26.677[29, 28, 35, 29, 25, 19, 19, 20]
26.692[29, 30, 33, 28, 25, 20, 20, 18]
26.715[28, 27, 26, 26, 25, 19, 20, 19]
26.737[28, 24, 26, 26, 25, 16, 21, 19]
26.751[28, 24, 22, 23, 23, 16, 20, 17]
26.775[26, 26, 24, 24, 22, 17, 20, 20]
26.797[24, 27, 28, 25, 23, 19, 19, 21]
26.811[24, 27, 27, 22, 22, 19, 19, 19]
26.835[24, 27, 25, 23, 22, 20, 18, 19]
26.857[25, 29, 27, 22, 23, 20, 18, 21]
26.872[27, 39, 25, 23, 24, 19, 20, 18]
26.895[28, 38, 21, 25, 25, 18, 20, 19]
26.917[28, 41, 22, 29, 25, 18, 21, 20]
26.931[28, 40, 23, 31, 24, 17, 23, 20]
26.954[28, 39, 22, 31, 26, 19, 24, 20]
26.977[27, 29, 23, 31, 26, 19, 22, 20]
26.991[26, 31, 23, 30, 26, 21, 22, 20]
27.015[25, 30, 23, 25, 25, 21, 22, 20]
27.037[25, 30, 21, 24, 25, 20, 20, 21]
27.051[24, 29, 21, 25, 23, 19, 18, 19]
27.075[24, 27, 20, 24, 23, 20, 18, 22]
27.097[25, 24, 20, 23, 22, 19, 18, 23]
27.111[23, 22, 21, 23, 22, 21, 18, 22]
27.135[25, 24, 20, 23, 23, 20, 18, 22]
27.157[23, 25, 21, 23, 25, 21, 19, 22]
27.171[21, 26, 23, 23, 23, 21, 19, 19]
27.194[19, 24, 24, 22, 21, 19, 19, 19]
27.217[20, 23, 24, 23, 23, 19, 18, 20]
27.24[18, 21, 24, 24, 24, 20, 18, 20]
27.255[22, 21, 23, 24, 22, 20, 17, 20]
27.277[22, 20, 22, 24, 24, 18, 19, 20]
27.299[22, 22, 23, 24, 24, 19, 18, 19]
27.314[23, 27, 22, 25, 24, 18, 20, 19]
27.337[24, 27, 22, 23, 21, 17, 20, 19]
27.359[22, 27, 22, 23, 21, 15, 21, 20]
27.374[24, 26, 21, 23, 21, 15, 19, 21]
27.397[25, 25, 20, 23, 21, 16, 20, 20]
27.419[23, 25, 23, 23, 22, 17, 18, 18]
27.435[22, 26, 23, 25, 22, 17, 17, 18]
27.457[23, 25, 23, 23, 21, 21, 17, 16]
27.479[22, 29, 24, 24, 21, 21, 19, 15]
27.494[22, 30, 24, 26, 21, 21, 20, 14]
27.517[23, 27, 23, 26, 21, 20, 19, 18]
27.54[23, 26, 23, 25, 22, 20, 20, 19]
27.555[22, 24, 23, 26, 23, 17, 22, 20]
27.577[22, 21, 22, 23, 21, 17, 21, 19]
27.599[21, 21, 24, 21, 22, 17, 20, 20]
27.615[21, 21, 23, 18, 21, 18, 20, 18]
27.637[22, 20, 24, 20, 21, 19, 20, 16]
27.66[22, 21, 24, 20, 20, 21, 18, 16]
27.674[22, 20, 23, 22, 22, 21, 19, 15]
27.697[25, 23, 22, 23, 20, 21, 19, 16]
27.72[23, 22, 21, 24, 20, 21, 18, 16]
27.742[24, 24, 22, 22, 21, 19, 20, 18]
27.757[25, 22, 21, 21, 23, 17, 20, 19]
27.78[25, 23, 23, 21, 22, 18, 19, 19]
27.794[21, 19, 25, 22, 23, 19, 20, 19]
27.817[21, 21, 24, 22, 23, 19, 20, 19]
27.84[20, 22, 24, 24, 23, 21, 20, 19]
27.862[18, 22, 26, 25, 22, 22, 19, 18]
27.878[18, 27, 25, 25, 23, 22, 19, 20]
27.899[20, 27, 21, 23, 23, 22, 19, 19]
27.922[20, 27, 20, 25, 22, 23, 20, 19]
27.938[21, 25, 19, 24, 20, 21, 19, 19]
27.959[22, 26, 18, 22, 19, 22, 19, 19]
27.981[22, 20, 19, 21, 19, 21, 20, 19]
27.998[20, 21, 23, 23, 20, 22, 20, 19]
28.019[21, 23, 23, 23, 21, 21, 19, 22]
28.041[22, 24, 23, 22, 20, 21, 19, 21]
28.058[23, 24, 23, 23, 20, 19, 19, 22]
28.079[24, 25, 22, 24, 22, 18, 20, 22]
28.101[24, 24, 19, 23, 22, 18, 20, 22]
28.118[26, 21, 22, 20, 21, 18, 22, 22]
28.139[24, 20, 22, 22, 24, 19, 21, 23]
28.162[23, 19, 22, 22, 24, 20, 21, 22]
28.178[21, 20, 23, 22, 22, 22, 18, 21]
28.199[20, 21, 22, 23, 22, 22, 17, 20]
28.222[16, 20, 22, 24, 22, 21, 15, 19]
28.238[15, 20, 23, 23, 20, 21, 16, 18]
28.26[17, 22, 23, 23, 19, 22, 17, 19]
28.282[17, 21, 22, 22, 19, 20, 16, 18]
28.298[19, 21, 24, 23, 18, 19, 18, 20]
28.319[19, 22, 22, 21, 18, 20, 20, 20]
28.342[20, 24, 22, 20, 18, 18, 20, 20]
28.358[19, 23, 22, 20, 17, 18, 20, 20]
28.379[22, 25, 24, 19, 19, 19, 21, 21]
28.409[21, 26, 22, 19, 20, 20, 20, 21]
28.418[22, 24, 23, 20, 21, 19, 19, 20]
28.439[22, 23, 22, 19, 20, 19, 20, 20]
28.462[22, 23, 23, 21, 23, 18, 19, 20]
28.478[18, 22, 21, 23, 22, 18, 19, 18]
28.499[20, 19, 22, 21, 20, 19, 19, 18]
28.521[19, 20, 21, 21, 20, 19, 21, 18]
28.544[20, 21, 22, 22, 21, 19, 19, 20]
28.559[19, 22, 20, 21, 19, 18, 21, 19]
28.582[20, 23, 20, 20, 21, 18, 20, 19]
28.596[19, 24, 21, 20, 23, 16, 20, 19]
28.619[20, 23, 20, 22, 21, 17, 17, 19]
28.642[21, 24, 20, 22, 21, 16, 18, 17]
28.658[21, 22, 20, 21, 21, 17, 17, 18]
28.679[22, 23, 21, 21, 19, 16, 19, 18]
28.701[22, 23, 22, 22, 18, 18, 19, 17]
28.716[21, 24, 22, 21, 21, 18, 18, 16]
28.747[21, 22, 20, 21, 20, 18, 19, 18]
28.762[20, 22, 19, 21, 21, 18, 18, 18]
28.776[20, 21, 19, 23, 20, 19, 18, 17]
28.799[19, 22, 17, 22, 20, 17, 18, 18]
28.822[20, 21, 17, 20, 17, 17, 22, 19]
28.837[19, 21, 18, 19, 17, 17, 22, 17]
28.859[21, 22, 20, 20, 17, 18, 22, 17]
28.882[20, 25, 20, 18, 18, 18, 20, 19]
28.896[19, 24, 20, 19, 19, 18, 21, 19]
28.919[20, 25, 21, 19, 20, 19, 18, 17]
28.942[18, 25, 21, 20, 20, 19, 19, 18]
28.956[19, 27, 22, 20, 22, 19, 19, 18]
28.979[19, 25, 22, 20, 22, 21, 19, 18]
29.002[20, 25, 23, 21, 21, 24, 19, 19]
29.017[19, 24, 22, 23, 21, 24, 19, 20]
29.039[21, 25, 21, 22, 21, 24, 18, 21]
29.062[19, 23, 21, 22, 19, 23, 19, 21]
29.076[19, 24, 21, 23, 19, 23, 19, 22]
29.099[19, 22, 20, 23, 19, 19, 19, 22]
29.122[19, 25, 25, 21, 20, 19, 19, 21]
29.144[19, 24, 26, 23, 20, 18, 19, 19]
29.159[20, 24, 25, 22, 21, 18, 17, 19]
29.182[21, 22, 25, 21, 21, 19, 18, 17]
29.204[20, 23, 26, 22, 22, 19, 19, 16]
29.219[20, 22, 23, 22, 20, 19, 17, 17]
29.242[20, 22, 24, 20, 20, 20, 17, 18]
29.264[20, 21, 25, 21, 19, 19, 18, 18]
29.279[19, 21, 25, 22, 20, 18, 16, 19]
29.302[20, 21, 24, 21, 20, 17, 16, 18]
29.324[19, 20, 23, 23, 20, 17, 18, 19]
29.339[20, 20, 22, 23, 23, 16, 17, 19]
29.363[19, 21, 22, 22, 23, 17, 18, 19]
29.384[18, 22, 21, 22, 23, 17, 18, 19]
29.4[17, 22, 21, 21, 23, 18, 19, 19]
29.422[18, 21, 22, 20, 24, 19, 17, 19]
29.444[18, 23, 19, 21, 22, 19, 17, 18]
29.459[18, 24, 19, 20, 24, 20, 17, 18]
29.482[17, 23, 18, 21, 23, 20, 17, 17]
29.504[18, 26, 18, 21, 23, 22, 19, 18]
29.519[19, 26, 17, 20, 22, 22, 19, 19]
29.542[19, 23, 19, 20, 22, 22, 19, 19]
29.564[20, 22, 20, 19, 19, 21, 20, 17]
29.579[20, 22, 21, 21, 20, 20, 20, 18]
29.602[20, 19, 21, 23, 20, 18, 20, 17]
29.624[18, 18, 21, 23, 20, 19, 20, 16]
29.639[18, 18, 20, 22, 18, 20, 20, 17]
29.662[19, 21, 21, 21, 20, 19, 19, 19]
29.684[18, 19, 22, 22, 19, 21, 18, 19]
29.699[18, 19, 23, 22, 19, 20, 17, 20]
29.722[19, 21, 25, 22, 20, 18, 18, 20]
29.744[20, 21, 25, 22, 20, 18, 17, 21]
29.759[19, 21, 25, 24, 19, 18, 19, 18]
29.79[22, 22, 23, 23, 20, 16, 20, 19]
29.813[22, 21, 22, 21, 20, 15, 19, 17]
29.819[22, 21, 23, 20, 20, 17, 18, 17]
29.843[21, 22, 23, 20, 22, 16, 20, 18]
29.865[23, 21, 21, 20, 21, 20, 18, 18]
29.879[22, 24, 23, 21, 21, 21, 17, 20]
29.902[23, 25, 23, 21, 20, 21, 17, 22]
29.924[23, 25, 22, 23, 20, 21, 17, 21]
29.939[24, 27, 22, 24, 19, 21, 16, 20]
29.962[22, 28, 23, 24, 21, 18, 16, 21]
29.984[21, 26, 22, 21, 21, 17, 16, 21]
30.006[20, 23, 20, 22, 21, 17, 16, 20]
30.021[19, 24, 21, 21, 20, 18, 16, 20]
30.044[19, 21, 20, 21, 20, 22, 15, 21]
30.067[19, 21, 20, 20, 18, 22, 16, 21]
30.082[20, 23, 21, 21, 18, 22, 17, 20]
30.104[21, 23, 24, 21, 18, 24, 17, 21]
30.127[22, 22, 23, 20, 18, 23, 20, 20]
30.141[22, 23, 107, 44, 42, 81, 48, 26]
30.164[25, 43, 224, 99, 61, 146, 84, 29]
30.187[36, 51, 275, 120, 78, 176, 109, 35]
30.202[43, 55, 310, 139, 92, 187, 121, 36]
30.224[44, 60, 364, 170, 103, 199, 136, 43]
30.246[50, 77, 434, 215, 113, 286, 197, 54]
30.262[66, 74, 412, 205, 105, 292, 215, 58]
30.284[68, 77, 402, 209, 102, 284, 214, 55]
30.307[75, 104, 434, 225, 93, 296, 219, 59]
30.322[79, 143, 609, 266, 86, 319, 250, 61]
30.344[89, 140, 577, 249, 85, 284, 244, 60]
30.367[82, 154, 602, 269, 97, 276, 227, 61]
30.382[79, 158, 692, 308, 94, 271, 223, 61]
30.404[73, 158, 686, 292, 92, 263, 230, 60]
30.426[75, 174, 540, 257, 90, 242, 208, 55]
30.442[61, 179, 545, 270, 75, 188, 164, 42]
30.464[63, 172, 520, 259, 60, 155, 162, 36]
30.487[65, 199, 472, 236, 55, 186, 186, 40]
30.502[72, 206, 471, 270, 66, 211, 172, 42]
30.524[72, 174, 547, 281, 78, 208, 182, 51]
30.547[82, 195, 606, 274, 78, 220, 198, 58]
30.562[77, 192, 654, 276, 86, 231, 213, 60]
30.584[74, 178, 620, 253, 92, 223, 216, 62]
30.607[69, 175, 635, 262, 85, 247, 238, 63]
30.622[66, 182, 571, 254, 81, 262, 230, 66]
30.644[59, 166, 519, 241, 93, 263, 236, 68]
30.667[65, 187, 492, 248, 90, 264, 225, 71]
30.682[69, 185, 460, 252, 93, 266, 228, 70]
30.712[66, 175, 421, 213, 96, 219, 214, 67]
30.727[72, 193, 415, 205, 93, 211, 217, 61]
30.742[68, 191, 409, 212, 82, 203, 235, 62]
30.764[70, 188, 375, 225, 87, 206, 244, 65]
30.787[69, 198, 382, 221, 76, 186, 230, 64]
30.802[67, 197, 371, 212, 77, 178, 225, 65]
30.824[72, 178, 392, 198, 73, 152, 204, 67]
30.847[76, 196, 372, 179, 70, 142, 160, 58]
30.862[71, 188, 354, 127, 55, 131, 148, 53]
30.885[71, 164, 379, 119, 63, 153, 155, 53]
30.907[73, 190, 403, 150, 60, 160, 165, 54]
30.922[57, 194, 392, 155, 62, 158, 171, 45]
30.944[58, 167, 391, 185, 66, 161, 166, 48]
30.967[59, 192, 431, 188, 72, 162, 156, 45]
30.99[59, 196, 394, 189, 68, 181, 176, 51]
31.02[54, 170, 382, 188, 67, 190, 168, 51]
31.027[57, 176, 463, 186, 76, 194, 161, 52]
31.05[52, 202, 446, 163, 78, 192, 161, 47]
31.064[54, 197, 414, 191, 87, 180, 169, 49]
31.087[53, 190, 433, 194, 91, 161, 138, 44]
31.11[55, 202, 445, 206, 99, 146, 132, 44]
31.124[56, 211, 394, 234, 99, 147, 133, 47]
31.147[59, 189, 398, 241, 96, 151, 133, 49]
31.17[62, 220, 469, 224, 90, 161, 116, 45]
31.184[60, 221, 470, 229, 87, 140, 96, 42]
31.208[60, 222, 460, 215, 84, 137, 84, 41]
31.23[59, 201, 412, 182, 78, 146, 85, 39]
31.244[53, 210, 408, 182, 80, 149, 106, 38]
31.267[68, 148, 340, 222, 73, 183, 160, 45]
31.29[71, 159, 360, 217, 75, 188, 163, 46]
31.304[70, 162, 347, 202, 67, 188, 165, 45]
31.327[69, 165, 350, 213, 66, 173, 163, 45]
31.35[69, 169, 369, 244, 64, 167, 159, 46]
31.364[45, 169, 377, 207, 72, 124, 117, 36]
31.387[53, 203, 342, 210, 67, 118, 109, 39]
31.41[56, 189, 326, 224, 72, 132, 118, 41]
31.424[61, 195, 346, 217, 76, 137, 127, 44]
31.447[65, 186, 349, 180, 83, 132, 120, 44]
31.47[66, 207, 319, 206, 84, 124, 124, 45]
31.484[59, 162, 328, 204, 83, 128, 139, 44]
31.508[57, 173, 346, 215, 80, 132, 136, 43]
31.53[50, 156, 296, 210, 78, 146, 152, 41]
31.545[47, 172, 291, 204, 72, 157, 150, 41]
31.567[62, 159, 302, 183, 62, 153, 143, 47]
31.59[60, 176, 322, 198, 64, 145, 135, 46]
31.604[58, 172, 327, 177, 63, 134, 144, 43]
31.627[63, 170, 360, 204, 64, 113, 124, 40]
31.65[66, 176, 340, 214, 65, 101, 119, 41]
31.664[51, 163, 315, 208, 69, 109, 120, 33]
31.687[49, 154, 310, 192, 69, 125, 130, 31]
31.71[51, 154, 344, 192, 67, 129, 125, 32]
31.724[49, 168, 318, 180, 69, 135, 124, 37]
31.747[47, 151, 343, 160, 66, 134, 141, 37]
31.77[50, 153, 339, 156, 66, 141, 132, 40]
31.784[52, 153, 326, 192, 75, 125, 120, 40]
31.808[50, 139, 328, 190, 80, 115, 109, 44]
31.83[47, 127, 358, 179, 75, 141, 118, 38]
31.844[43, 105, 363, 197, 80, 168, 132, 40]
31.867[35, 95, 383, 225, 81, 168, 138, 37]
31.891[34, 103, 409, 213, 71, 182, 140, 37]
31.904[37, 103, 422, 223, 69, 180, 144, 32]
31.927[54, 119, 393, 224, 67, 168, 142, 35]
31.95[55, 122, 393, 219, 69, 154, 129, 31]
31.973[59, 126, 409, 214, 68, 144, 131, 35]
31.987[62, 107, 371, 200, 68, 167, 177, 41]
32.01[72, 122, 316, 194, 71, 175, 178, 47]
32.032[63, 105, 347, 194, 78, 172, 181, 46]
32.047[61, 103, 358, 196, 71, 168, 175, 46]
32.07[58, 101, 336, 205, 70, 194, 189, 46]
32.092[56, 114, 344, 200, 69, 166, 143, 44]
32.107[42, 99, 379, 191, 66, 158, 133, 41]
32.13[45, 102, 393, 180, 57, 159, 138, 45]
32.152[53, 94, 350, 178, 53, 163, 133, 46]
32.168[55, 96, 335, 143, 49, 133, 108, 46]
32.19[57, 97, 394, 157, 51, 131, 111, 43]
32.213[54, 114, 370, 165, 57, 155, 126, 41]
32.228[50, 111, 336, 196, 57, 148, 107, 39]
32.25[42, 114, 379, 203, 57, 136, 105, 37]
32.273[58, 112, 399, 195, 58, 147, 111, 39]
32.287[57, 100, 331, 187, 59, 152, 114, 41]
32.31[60, 88, 316, 181, 53, 127, 94, 39]
32.333[60, 94, 332, 219, 61, 120, 101, 38]
32.348[59, 93, 301, 210, 58, 124, 106, 37]
32.37[47, 91, 264, 221, 59, 108, 96, 35]
32.393[46, 101, 292, 220, 60, 99, 83, 32]
32.408[42, 89, 283, 217, 61, 108, 86, 34]
32.43[42, 73, 238, 149, 56, 113, 77, 34]
32.453[52, 71, 237, 161, 58, 99, 78, 37]
32.467[48, 102, 364, 186, 58, 101, 91, 33]
32.49[52, 106, 359, 189, 61, 117, 104, 34]
32.513[52, 106, 359, 193, 57, 122, 126, 33]
32.527[62, 111, 430, 207, 55, 125, 136, 39]
32.55[58, 115, 446, 218, 57, 125, 132, 37]
32.573[65, 91, 359, 213, 62, 130, 127, 40]
32.587[62, 114, 386, 208, 58, 118, 127, 44]
32.61[63, 112, 398, 218, 60, 122, 144, 45]
32.632[60, 111, 332, 241, 62, 127, 140, 43]
32.655[55, 111, 292, 220, 59, 124, 137, 41]
32.67[46, 108, 324, 191, 55, 111, 132, 40]
32.693[43, 67, 264, 188, 52, 103, 125, 34]
32.707[59, 83, 266, 176, 56, 105, 75, 41]
32.731[53, 81, 275, 195, 61, 94, 62, 38]
32.752[53, 78, 308, 200, 68, 97, 76, 41]
32.767[54, 78, 269, 209, 74, 107, 77, 41]
32.79[57, 83, 283, 216, 74, 123, 88, 45]
32.813[58, 90, 325, 222, 71, 101, 93, 40]
32.827[59, 97, 320, 162, 66, 112, 114, 40]
32.85[58, 97, 328, 189, 58, 127, 116, 39]
32.872[58, 99, 330, 193, 50, 123, 119, 38]
32.895[67, 98, 335, 190, 48, 108, 107, 42]
32.911[56, 90, 278, 186, 56, 122, 103, 38]
32.932[55, 85, 391, 217, 56, 117, 92, 39]
32.954[58, 99, 373, 194, 57, 104, 84, 38]
32.971[67, 102, 397, 188, 55, 99, 81, 40]
32.992[56, 103, 431, 208, 58, 115, 104, 33]
33.014[56, 96, 436, 225, 56, 113, 115, 36]
33.031[61, 114, 329, 212, 54, 113, 122, 36]
33.059[58, 115, 394, 219, 51, 110, 116, 34]
33.074[54, 112, 393, 223, 55, 122, 117, 34]
33.091[57, 109, 362, 213, 50, 110, 99, 36]
33.112[55, 121, 402, 187, 42, 115, 93, 33]
33.135[49, 118, 403, 181, 49, 116, 79, 32]
33.151[63, 111, 380, 168, 55, 128, 96, 40]
33.172[58, 118, 398, 159, 57, 120, 100, 40]
33.194[56, 117, 381, 137, 59, 120, 106, 39]
33.211[59, 106, 345, 178, 59, 101, 107, 41]
33.239[75, 92, 372, 158, 58, 105, 108, 47]
33.254[63, 82, 337, 160, 65, 105, 105, 42]
33.271[67, 99, 315, 185, 66, 113, 100, 41]
33.292[69, 102, 343, 191, 73, 133, 101, 40]
33.314[75, 96, 365, 175, 72, 137, 95, 40]
33.331[62, 94, 352, 211, 69, 129, 95, 35]
33.352[65, 97, 367, 224, 64, 116, 84, 36]
33.376[62, 119, 371, 222, 67, 132, 103, 40]
33.391[64, 123, 373, 222, 64, 115, 97, 41]
33.413[53, 131, 405, 213, 69, 132, 108, 38]
33.434[53, 130, 392, 178, 80, 139, 103, 40]
33.451[53, 130, 368, 196, 78, 138, 110, 38]
33.472[50, 91, 359, 208, 75, 116, 94, 34]
33.494[51, 82, 349, 205, 72, 118, 96, 36]
33.511[53, 90, 356, 221, 75, 95, 83, 37]
33.532[53, 110, 388, 227, 68, 85, 84, 34]
33.562[57, 116, 384, 200, 70, 97, 78, 37]
33.571[61, 112, 412, 179, 71, 100, 78, 36]
33.592[58, 113, 404, 179, 69, 100, 76, 34]
33.614[57, 110, 349, 171, 68, 122, 102, 36]
33.631[65, 104, 334, 193, 69, 120, 108, 39]
33.652[60, 96, 346, 201, 64, 115, 109, 38]
33.675[58, 100, 310, 202, 60, 122, 120, 39]
33.691[55, 102, 332, 215, 61, 128, 139, 39]
33.712[70, 125, 324, 200, 53, 108, 129, 46]
33.734[71, 126, 339, 171, 43, 116, 131, 45]
33.751[72, 130, 350, 156, 47, 121, 134, 43]
33.772[72, 127, 334, 166, 49, 139, 133, 47]
33.795[78, 124, 400, 195, 59, 127, 113, 47]
33.812[64, 100, 403, 208, 60, 139, 108, 37]
33.832[57, 115, 403, 212, 68, 143, 123, 38]
33.854[58, 111, 414, 214, 73, 139, 132, 39]
33.877[66, 113, 480, 215, 76, 114, 122, 39]
33.892[58, 115, 435, 192, 69, 117, 121, 37]
33.914[59, 109, 466, 205, 70, 104, 128, 40]
33.937[60, 128, 456, 201, 63, 97, 120, 43]
33.952[58, 130, 428, 200, 56, 94, 108, 41]
33.974[46, 131, 394, 180, 49, 95, 112, 37]
33.997[49, 134, 374, 187, 56, 101, 124, 41]
34.012[50, 129, 337, 155, 50, 100, 113, 41]
34.034[56, 91, 323, 157, 54, 104, 100, 37]
34.057[58, 93, 342, 151, 52, 102, 92, 36]
34.073[59, 88, 306, 143, 50, 97, 87, 35]
34.095[61, 84, 305, 127, 43, 94, 69, 35]
34.117[63, 99, 387, 167, 51, 141, 107, 37]
34.132[53, 88, 440, 170, 48, 139, 107, 39]
34.154[50, 85, 456, 194, 50, 141, 116, 40]
34.177[68, 93, 452, 198, 53, 144, 116, 44]
34.199[67, 92, 441, 190, 59, 161, 132, 41]
34.214[62, 76, 356, 150, 57, 127, 111, 36]
34.237[69, 87, 278, 149, 56, 132, 109, 37]
34.252[70, 84, 272, 136, 59, 131, 102, 38]
34.275[57, 73, 276, 131, 58, 130, 98, 32]
34.297[54, 73, 262, 123, 57, 111, 78, 32]
34.312[60, 72, 286, 127, 55, 109, 68, 35]
34.335[51, 57, 355, 133, 62, 117, 96, 32]
34.357[55, 56, 371, 130, 60, 125, 114, 34]
34.38[58, 56, 378, 132, 59, 132, 116, 36]
34.394[57, 53, 389, 178, 61, 132, 135, 41]
34.417[52, 90, 397, 194, 63, 137, 147, 44]
34.432[55, 93, 347, 186, 58, 120, 129, 44]
34.455[50, 94, 303, 199, 69, 121, 113, 42]
34.477[52, 97, 302, 198, 69, 119, 129, 44]
34.492[53, 97, 288, 179, 68, 119, 109, 41]
34.514[53, 82, 264, 197, 69, 113, 96, 36]
34.537[50, 86, 259, 204, 70, 113, 97, 34]
34.552[58, 86, 297, 198, 63, 121, 101, 37]
34.575[55, 86, 271, 214, 66, 120, 88, 33]
34.597[59, 86, 349, 215, 61, 120, 92, 36]
34.612[57, 67, 351, 188, 59, 127, 95, 36]
34.634[65, 81, 395, 190, 65, 134, 101, 43]
34.657[64, 93, 396, 209, 64, 123, 103, 39]
34.672[59, 94, 420, 210, 62, 128, 99, 42]
34.695[64, 101, 370, 191, 63, 141, 118, 43]
34.717[66, 103, 362, 187, 65, 141, 121, 45]
34.732[61, 90, 339, 184, 60, 139, 117, 44]
34.755[56, 76, 365, 168, 57, 137, 112, 46]
34.777[63, 106, 377, 167, 61, 143, 127, 47]
34.799[59, 101, 368, 200, 63, 131, 114, 45]
34.815[59, 102, 406, 208, 66, 137, 117, 43]
34.838[55, 100, 392, 204, 67, 138, 130, 41]
34.86[53, 101, 364, 190, 69, 138, 138, 44]
34.875[48, 84, 319, 171, 69, 129, 130, 40]
34.897[44, 84, 345, 143, 64, 153, 137, 38]
34.928[43, 82, 319, 136, 58, 139, 130, 39]
34.935[58, 79, 324, 149, 57, 133, 116, 43]
34.957[64, 84, 304, 167, 58, 132, 107, 39]
34.98[60, 70, 330, 178, 54, 144, 123, 40]
34.995[58, 71, 309, 178, 56, 145, 139, 43]
35.017[67, 94, 332, 189, 57, 153, 142, 47]
35.04[55, 97, 328, 177, 52, 153, 141, 38]
35.054[51, 100, 332, 164, 51, 159, 150, 37]
35.078[57, 107, 372, 166, 52, 158, 155, 45]
35.099[55, 105, 386, 195, 53, 140, 136, 42]
35.123[51, 101, 339, 178, 52, 130, 130, 38]
35.137[52, 101, 332, 205, 54, 135, 131, 40]
35.16[49, 100, 303, 201, 48, 138, 149, 41]
35.174[63, 89, 248, 197, 47, 116, 124, 38]
35.198[66, 97, 311, 173, 48, 102, 112, 38]
35.219[61, 102, 369, 176, 44, 125, 121, 42]
35.234[60, 101, 376, 162, 51, 122, 129, 43]
35.257[68, 93, 378, 169, 55, 105, 93, 45]
35.279[52, 92, 416, 177, 57, 108, 95, 40]
35.295[49, 87, 377, 181, 60, 113, 103, 38]
35.317[51, 59, 321, 184, 60, 99, 103, 34]
35.34[60, 54, 351, 179, 53, 99, 108, 33]
35.355[53, 58, 354, 177, 50, 109, 109, 30]
35.378[54, 59, 299, 163, 47, 107, 112, 30]
35.399[54, 57, 294, 149, 44, 99, 108, 33]
35.423[62, 90, 355, 148, 55, 107, 104, 40]
35.438[56, 92, 303, 143, 58, 113, 96, 39]
35.46[57, 92, 400, 150, 62, 118, 101, 41]
35.475[54, 117, 422, 162, 64, 123, 100, 44]
35.497[62, 117, 409, 154, 63, 147, 107, 46]
35.52[52, 97, 361, 147, 58, 140, 106, 40]
35.536[49, 107, 401, 168, 59, 130, 93, 38]
35.557[46, 108, 332, 155, 53, 117, 85, 37]
35.58[50, 108, 293, 142, 57, 151, 104, 37]
35.595[55, 109, 332, 155, 58, 150, 113, 40]
35.618[54, 107, 333, 161, 56, 145, 111, 38]
35.64[54, 114, 293, 123, 52, 143, 110, 38]
35.654[53, 112, 259, 158, 54, 170, 129, 38]
35.678[53, 100, 310, 156, 48, 139, 109, 38]
35.7[50, 99, 310, 148, 45, 114, 89, 32]
35.723[52, 106, 343, 140, 47, 112, 84, 33]
35.737[65, 90, 374, 155, 61, 200, 149, 44]
35.76[64, 90, 371, 126, 61, 188, 143, 43]
35.783[66, 78, 346, 129, 61, 186, 145, 41]
35.797[59, 92, 310, 132, 60, 187, 144, 40]
35.821[59, 93, 332, 150, 59, 193, 153, 42]
35.843[53, 90, 300, 134, 46, 117, 103, 33]
35.858[55, 95, 301, 128, 46, 107, 93, 35]
35.88[57, 95, 371, 219, 47, 106, 89, 39]
35.903[70, 79, 386, 236, 52, 112, 93, 45]
35.917[68, 87, 365, 239, 52, 115, 105, 43]
35.94[62, 95, 382, 258, 60, 103, 111, 41]
35.964[63, 92, 420, 271, 61, 99, 113, 40]
35.978[59, 104, 358, 232, 63, 108, 115, 38]
36.001[54, 106, 338, 212, 62, 116, 117, 34]
36.023[54, 112, 330, 207, 64, 105, 107, 34]
36.038[56, 111, 303, 184, 55, 104, 96, 36]
36.061[57, 112, 250, 166, 54, 112, 92, 37]
36.083[65, 97, 269, 132, 50, 112, 91, 44]
36.098[54, 96, 284, 130, 50, 131, 122, 44]
36.121[54, 71, 290, 131, 52, 134, 120, 44]
36.143[52, 59, 305, 132, 56, 190, 161, 45]
36.157[50, 51, 324, 155, 60, 224, 204, 48]
36.18[39, 62, 347, 149, 64, 250, 217, 44]
36.203[51, 63, 363, 176, 62, 234, 203, 46]
36.218[54, 83, 344, 186, 66, 248, 204, 45]
36.24[52, 88, 373, 191, 71, 211, 173, 41]
36.263[53, 105, 387, 178, 69, 180, 136, 38]
36.277[62, 102, 342, 171, 65, 138, 117, 36]
36.3[57, 102, 306, 172, 66, 148, 113, 29]
36.323[57, 89, 307, 182, 56, 117, 102, 31]
36.346[59, 102, 316, 196, 48, 118, 127, 32]
36.361[58, 106, 331, 208, 53, 113, 121, 30]
36.383[56, 106, 338, 208, 53, 109, 118, 33]
36.398[55, 105, 356, 190, 51, 95, 116, 34]
36.428[54, 114, 372, 175, 60, 91, 116, 34]
36.443[52, 108, 326, 156, 59, 85, 85, 36]
36.457[53, 98, 322, 152, 57, 78, 72, 37]
36.48[57, 96, 327, 157, 62, 87, 81, 41]
36.503[56, 96, 324, 174, 63, 93, 86, 42]
36.517[54, 84, 306, 170, 58, 95, 92, 42]
36.54[57, 96, 311, 181, 58, 96, 90, 41]
36.563[59, 109, 293, 165, 56, 110, 100, 46]
36.577[55, 111, 287, 162, 50, 114, 94, 42]
36.6[54, 113, 266, 155, 50, 112, 87, 39]
36.623[56, 113, 291, 144, 48, 109, 84, 40]
36.637[57, 98, 323, 124, 50, 127, 95, 45]
36.661[63, 70, 375, 147, 48, 111, 95, 44]
36.683[55, 91, 379, 147, 46, 100, 94, 41]
36.705[53, 88, 422, 131, 48, 103, 95, 41]
36.72[52, 91, 398, 130, 48, 104, 97, 39]
36.743[45, 90, 385, 136, 49, 87, 97, 36]
36.765[48, 94, 363, 157, 54, 104, 90, 34]
36.781[53, 89, 359, 170, 60, 108, 91, 35]
36.803[54, 102, 334, 230, 63, 105, 109, 35]
36.826[54, 103, 371, 238, 64, 120, 111, 39]
36.84[64, 99, 377, 247, 65, 130, 109, 38]
36.863[53, 96, 350, 222, 64, 115, 107, 33]
36.885[52, 93, 350, 215, 60, 111, 106, 34]
36.9[52, 85, 325, 156, 57, 119, 106, 34]
36.923[54, 115, 327, 170, 52, 104, 104, 32]
36.945[53, 118, 336, 158, 48, 87, 101, 35]
36.961[53, 120, 313, 161, 44, 87, 97, 36]
36.983[52, 111, 322, 163, 40, 86, 95, 37]
37.005[52, 109, 352, 158, 37, 77, 92, 36]
37.02[49, 70, 322, 124, 36, 92, 96, 37]
37.043[63, 92, 275, 114, 41, 90, 89, 35]
37.066[63, 112, 269, 114, 42, 90, 89, 36]
37.08[61, 111, 243, 99, 43, 100, 95, 31]
37.103[63, 111, 247, 100, 43, 113, 90, 40]
37.125[72, 113, 285, 110, 42, 111, 88, 42]
37.14[56, 93, 292, 109, 40, 116, 96, 41]
37.163[54, 61, 336, 117, 48, 133, 104, 41]
37.186[53, 106, 412, 149, 54, 125, 101, 43]
37.2[53, 112, 402, 145, 53, 112, 95, 41]
37.223[57, 112, 376, 134, 55, 112, 99, 40]
37.246[55, 112, 397, 138, 59, 126, 101, 40]
37.26[58, 138, 376, 129, 52, 113, 95, 41]
37.283[61, 126, 295, 98, 48, 111, 96, 41]
37.305[65, 151, 325, 156, 55, 114, 97, 37]
37.32[63, 152, 333, 181, 60, 137, 115, 43]
37.343[66, 154, 313, 185, 60, 131, 116, 42]
37.367[65, 142, 316, 191, 59, 125, 113, 41]
37.38[62, 138, 360, 199, 60, 130, 115, 41]
37.403[64, 105, 338, 176, 60, 130, 119, 45]
37.426[56, 105, 317, 155, 53, 98, 95, 37]
37.44[51, 118, 380, 161, 51, 79, 87, 36]
37.463[51, 110, 374, 152, 54, 81, 90, 38]
37.486[68, 106, 337, 150, 55, 79, 94, 44]
37.5[63, 105, 341, 126, 48, 81, 87, 41]
37.523[60, 106, 374, 133, 50, 76, 83, 41]
37.546[60, 107, 364, 130, 46, 76, 83, 40]
37.56[63, 144, 360, 135, 43, 80, 86, 41]
37.583[53, 197, 355, 134, 41, 102, 96, 37]
37.606[58, 203, 352, 135, 42, 106, 99, 37]
37.628[63, 216, 366, 133, 44, 106, 101, 37]
37.643[65, 218, 327, 119, 47, 112, 108, 40]
37.666[62, 204, 348, 118, 55, 127, 119, 37]
37.688[56, 163, 365, 101, 58, 119, 104, 33]
37.703[53, 159, 369, 108, 58, 115, 103, 35]
37.726[55, 146, 327, 107, 60, 127, 105, 37]
37.748[53, 153, 318, 112, 61, 141, 107, 34]
37.763[54, 168, 315, 103, 58, 136, 99, 34]
37.786[55, 156, 283, 110, 54, 129, 99, 35]
37.808[50, 155, 294, 111, 51, 126, 96, 31]
37.823[54, 167, 323, 109, 56, 133, 104, 33]
37.846[55, 151, 314, 117, 54, 129, 102, 34]
37.868[57, 123, 299, 118, 52, 122, 97, 37]
37.884[61, 176, 381, 135, 53, 117, 95, 36]
37.905[66, 200, 349, 123, 56, 115, 89, 37]
37.927[64, 209, 331, 117, 52, 106, 96, 39]
37.944[70, 212, 332, 140, 50, 100, 94, 42]
37.965[69, 211, 350, 161, 50, 96, 98, 41]
37.989[64, 171, 275, 157, 49, 111, 121, 43]
38.004[62, 181, 288, 182, 47, 113, 130, 46]
38.025[65, 166, 266, 183, 43, 99, 117, 44]
38.048[62, 166, 260, 171, 42, 86, 112, 41]
38.064[63, 166, 212, 152, 42, 93, 107, 40]
38.085[68, 224, 246, 138, 46, 109, 92, 36]
38.107[65, 195, 229, 110, 49, 116, 86, 32]
38.124[69, 197, 246, 175, 49, 116, 79, 34]
38.145[67, 209, 282, 206, 52, 114, 75, 36]
38.167[66, 214, 291, 210, 56, 108, 75, 36]
38.184[67, 152, 259, 219, 55, 128, 107, 41]
38.205[67, 201, 309, 231, 54, 135, 110, 43]
38.227[56, 191, 314, 188, 51, 133, 114, 40]
38.244[53, 181, 300, 152, 49, 135, 118, 37]
38.265[57, 182, 346, 149, 48, 139, 132, 39]
38.288[52, 197, 377, 190, 51, 102, 101, 35]
38.304[52, 149, 356, 226, 53, 88, 94, 32]
38.325[49, 149, 343, 229, 55, 95, 100, 32]
38.347[54, 151, 347, 225, 54, 111, 108, 33]
38.364[62, 155, 316, 233, 54, 111, 89, 35]
38.392[63, 133, 283, 203, 49, 104, 85, 36]
38.407[64, 135, 270, 146, 46, 136, 104, 38]
38.424[64, 188, 329, 139, 49, 142, 101, 37]
38.445[75, 187, 302, 140, 52, 137, 95, 45]
38.467[66, 174, 273, 134, 54, 182, 125, 45]
38.484[64, 178, 275, 123, 54, 188, 132, 47]
38.505[65, 182, 301, 134, 54, 165, 121, 44]
38.528[62, 126, 253, 136, 50, 160, 119, 44]
38.544[46, 115, 276, 134, 49, 154, 117, 36]
38.565[54, 118, 297, 120, 43, 99, 90, 36]
38.587[53, 116, 293, 120, 46, 86, 83, 33]
38.61[49, 131, 311, 132, 50, 98, 78, 33]
38.625[60, 153, 326, 128, 48, 102, 92, 38]
38.647[66, 156, 315, 129, 53, 108, 92, 40]
38.678[59, 155, 318, 136, 56, 106, 94, 36]
38.685[64, 158, 323, 133, 54, 104, 91, 38]
38.707[69, 163, 282, 108, 53, 99, 95, 39]
38.73[73, 149, 275, 125, 57, 95, 90, 42]
38.745[64, 144, 282, 135, 53, 94, 94, 38]
38.767[65, 140, 270, 132, 50, 89, 84, 38]
38.791[62, 131, 264, 133, 53, 101, 83, 37]
38.805[56, 108, 285, 133, 51, 117, 88, 35]
38.828[51, 93, 288, 129, 47, 148, 101, 36]
38.85[56, 105, 272, 126, 55, 146, 95, 36]
38.865[54, 106, 264, 132, 56, 156, 102, 37]
38.887[55, 109, 303, 132, 56, 153, 109, 37]
38.91[57, 103, 277, 131, 57, 143, 104, 39]
38.925[58, 103, 265, 132, 57, 106, 85, 36]
38.947[57, 95, 305, 134, 55, 123, 105, 39]
38.97[62, 105, 313, 130, 50, 115, 102, 41]
38.985[59, 102, 261, 124, 47, 116, 100, 41]
39.007[63, 111, 266, 146, 46, 110, 96, 40]
39.03[51, 108, 275, 146, 45, 120, 95, 35]
39.045[50, 108, 258, 156, 46, 98, 74, 32]
39.067[46, 111, 276, 156, 48, 95, 85, 31]
39.09[55, 108, 296, 157, 49, 107, 96, 31]
39.105[48, 103, 300, 139, 52, 102, 95, 27]
39.128[50, 105, 284, 131, 54, 94, 102, 28]
39.15[48, 98, 281, 102, 56, 91, 102, 30]
39.165[53, 91, 276, 97, 61, 121, 97, 32]
39.187[47, 103, 257, 99, 64, 112, 86, 33]
39.21[58, 92, 280, 96, 61, 112, 89, 36]
39.225[56, 94, 303, 113, 58, 108, 82, 36]
39.247[59, 99, 384, 162, 55, 109, 78, 35]
39.27[55, 109, 389, 176, 53, 83, 87, 35]
39.285[65, 101, 398, 176, 48, 81, 88, 40]
39.309[56, 104, 387, 174, 48, 83, 87, 40]
39.33[57, 109, 404, 167, 48, 88, 100, 41]
39.345[57, 105, 314, 119, 44, 92, 99, 39]
39.367[56, 86, 284, 95, 38, 93, 87, 37]
39.39[56, 93, 293, 118, 42, 86, 90, 35]
39.405[56, 98, 300, 156, 43, 82, 91, 35]
39.428[55, 106, 262, 180, 44, 85, 81, 34]
39.45[51, 103, 260, 182, 45, 83, 86, 35]
39.465[52, 104, 269, 180, 48, 72, 82, 36]
39.487[36, 94, 261, 167, 45, 69, 71, 29]
39.51[35, 85, 298, 174, 54, 68, 70, 28]
39.533[38, 59, 315, 162, 56, 60, 64, 34]
39.547[51, 75, 326, 163, 55, 64, 60, 36]
39.57[50, 74, 315, 172, 57, 65, 61, 36]
39.592[50, 75, 301, 172, 56, 64, 57, 35]
39.607[50, 68, 228, 128, 45, 63, 54, 35]
39.63[46, 69, 148, 92, 40, 56, 45, 27]
39.652[30, 53, 99, 82, 36, 39, 32, 23]
39.667[28, 50, 66, 54, 27, 26, 23, 19]
39.69[28, 49, 44, 39, 27, 23, 21, 19]
39.713[22, 51, 36, 32, 25, 22, 19, 19]
39.728[21, 50, 35, 31, 22, 22, 18, 20]
39.75[20, 45, 28, 29, 21, 21, 18, 18]
39.773[19, 44, 24, 26, 21, 22, 17, 19]
39.787[16, 36, 21, 21, 17, 20, 16, 19]
39.81[17, 27, 21, 17, 17, 21, 15, 18]
39.833[17, 24, 22, 17, 18, 19, 15, 17]
39.847[17, 24, 23, 19, 18, 18, 17, 16]
39.87[17, 21, 23, 17, 17, 17, 17, 15]
39.893[18, 22, 23, 20, 21, 18, 18, 17]
39.908[17, 22, 21, 22, 21, 18, 19, 18]
39.931[19, 31, 23, 26, 23, 19, 20, 18]
39.953[20, 29, 22, 25, 22, 20, 20, 20]
39.967[20, 30, 22, 26, 22, 20, 20, 19]
39.991[20, 32, 23, 26, 23, 21, 21, 20]
40.013[21, 32, 24, 27, 24, 20, 21, 21]
40.028[21, 28, 23, 23, 23, 18, 21, 22]
40.05[20, 28, 24, 24, 23, 16, 20, 23]
40.073[21, 28, 22, 23, 24, 15, 19, 24]
40.088[20, 25, 20, 21, 22, 13, 18, 22]
40.11[20, 25, 23, 41, 22, 15, 18, 20]
40.133[18, 26, 38, 86, 27, 16, 19, 20]
40.148[19, 26, 43, 97, 28, 18, 20, 18]
40.17[19, 26, 44, 98, 26, 19, 21, 18]
40.193[20, 28, 45, 100, 27, 20, 21, 19]
40.207[18, 27, 45, 96, 27, 19, 21, 19]
40.231[17, 21, 32, 61, 22, 19, 20, 18]
40.253[18, 23, 27, 41, 22, 17, 21, 19]
40.268[19, 24, 26, 40, 23, 19, 19, 19]
40.29[21, 20, 25, 35, 21, 19, 19, 20]
40.313[22, 22, 22, 33, 21, 18, 19, 21]
40.327[24, 22, 22, 28, 21, 19, 18, 20]
40.35[23, 22, 21, 29, 22, 20, 15, 20]
40.373[22, 25, 21, 28, 21, 19, 15, 20]
40.388[20, 26, 23, 31, 23, 18, 16, 18]
40.419[20, 26, 23, 27, 22, 19, 16, 18]
40.432[17, 26, 23, 27, 21, 19, 18, 18]
40.448[17, 24, 25, 28, 20, 19, 18, 19]
40.47[18, 20, 27, 29, 22, 19, 18, 18]
40.493[18, 20, 25, 25, 20, 19, 18, 17]
40.523[19, 21, 25, 26, 22, 18, 18, 16]
40.53[21, 22, 25, 30, 22, 19, 16, 17]
40.553[21, 22, 24, 28, 22, 19, 17, 14]
40.576[20, 21, 21, 26, 21, 20, 17, 15]
40.59[20, 23, 22, 29, 21, 21, 17, 16]
40.612[17, 22, 22, 28, 21, 22, 17, 16]
40.636[18, 22, 22, 24, 20, 21, 18, 14]
40.651[19, 23, 20, 27, 20, 19, 20, 17]
40.673[19, 24, 22, 31, 22, 17, 20, 16]
40.696[20, 22, 22, 30, 21, 17, 19, 19]
40.71[21, 21, 23, 29, 21, 17, 19, 19]
40.733[18, 21, 23, 34, 23, 18, 19, 19]
40.756[18, 21, 25, 32, 23, 18, 17, 19]
40.77[20, 21, 28, 28, 21, 19, 21, 20]
40.793[20, 22, 39, 34, 23, 20, 21, 18]
40.816[20, 22, 41, 36, 22, 20, 21, 19]
40.831[19, 24, 41, 30, 21, 19, 20, 19]
40.853[18, 24, 40, 29, 21, 21, 21, 17]
40.876[17, 21, 43, 34, 20, 20, 21, 17]
40.89[17, 22, 37, 28, 23, 20, 22, 16]
40.913[17, 25, 35, 27, 23, 21, 22, 14]
40.936[19, 22, 35, 28, 22, 20, 22, 16]
40.95[20, 23, 40, 31, 21, 20, 22, 20]
40.973[19, 23, 36, 25, 22, 21, 20, 19]
40.996[19, 22, 38, 24, 18, 20, 21, 20]
41.01[20, 20, 52, 26, 19, 19, 21, 20]
41.033[20, 21, 65, 31, 19, 19, 21, 20]
41.057[20, 23, 66, 28, 20, 19, 21, 16]
41.07[20, 23, 66, 28, 20, 19, 18, 21]
41.093[20, 22, 65, 35, 20, 19, 18, 21]
41.116[21, 22, 67, 38, 21, 21, 18, 21]
41.13[22, 20, 59, 35, 20, 23, 18, 20]
41.153[22, 20, 55, 35, 20, 22, 19, 20]
41.176[22, 21, 55, 37, 20, 21, 20, 16]
41.19[22, 21, 52, 33, 21, 22, 20, 16]
41.213[21, 22, 43, 26, 21, 21, 20, 17]
41.236[22, 22, 41, 27, 21, 19, 20, 17]
41.25[23, 21, 40, 26, 21, 20, 20, 19]
41.273[23, 22, 41, 28, 21, 20, 18, 19]
41.296[22, 22, 41, 27, 21, 18, 18, 19]
41.31[22, 23, 34, 30, 20, 19, 18, 19]
41.341[20, 23, 35, 34, 21, 20, 18, 20]
41.356[19, 25, 55, 38, 20, 19, 19, 18]
41.37[20, 25, 60, 36, 19, 19, 20, 17]
41.393[20, 25, 69, 40, 20, 17, 20, 18]
41.416[19, 25, 71, 42, 23, 19, 20, 18]
41.439[19, 25, 69, 39, 22, 20, 19, 19]
41.452[19, 24, 59, 37, 23, 20, 18, 19]
41.476[17, 23, 56, 37, 23, 20, 18, 20]
41.498[18, 24, 46, 33, 24, 21, 18, 20]
41.513[18, 24, 48, 28, 22, 19, 17, 20]
41.536[18, 24, 48, 26, 21, 21, 19, 19]
41.559[18, 24, 44, 26, 21, 20, 20, 18]
41.574[19, 23, 48, 31, 19, 21, 21, 19]
41.596[20, 22, 48, 31, 18, 21, 20, 20]
41.618[20, 23, 44, 31, 17, 21, 19, 19]
41.633[21, 23, 44, 37, 18, 19, 18, 18]
41.656[21, 22, 45, 35, 17, 20, 17, 18]
41.678[21, 23, 38, 30, 19, 20, 17, 16]
41.693[21, 24, 35, 29, 18, 20, 19, 17]
41.716[20, 22, 35, 35, 22, 21, 20, 16]
41.739[19, 22, 37, 30, 22, 22, 20, 16]
41.754[18, 23, 35, 31, 23, 22, 20, 17]
41.776[19, 22, 34, 30, 22, 22, 19, 17]
41.798[19, 21, 35, 30, 25, 22, 17, 17]
41.814[19, 21, 32, 21, 22, 21, 18, 19]
41.836[21, 21, 27, 22, 21, 20, 17, 20]
41.858[21, 22, 33, 23, 22, 20, 18, 20]
41.874[19, 23, 34, 24, 23, 19, 18, 21]
41.896[19, 23, 33, 26, 20, 19, 18, 19]
41.918[19, 22, 32, 31, 19, 18, 18, 19]
41.933[20, 19, 32, 29, 21, 19, 19, 18]
41.956[20, 18, 25, 28, 19, 18, 19, 19]
41.978[20, 20, 21, 28, 18, 20, 19, 17]
41.993[21, 20, 22, 26, 18, 19, 19, 18]
42.016[21, 20, 23, 21, 19, 21, 19, 18]
42.038[16, 22, 24, 28, 18, 22, 19, 18]
42.053[17, 24, 24, 26, 19, 23, 18, 18]
42.076[17, 21, 23, 26, 20, 21, 17, 19]
42.098[17, 21, 25, 33, 20, 22, 18, 20]
42.113[18, 23, 24, 33, 20, 21, 18, 20]
42.136[18, 23, 23, 29, 21, 20, 18, 20]
42.159[18, 22, 22, 31, 20, 20, 18, 20]
42.173[17, 21, 23, 33, 19, 20, 20, 20]
42.196[18, 23, 21, 27, 23, 20, 20, 19]
42.219[17, 23, 21, 27, 23, 20, 21, 21]
42.233[19, 21, 22, 27, 22, 20, 22, 20]
42.264[18, 20, 24, 27, 21, 21, 23, 21]
42.279[18, 24, 25, 26, 21, 22, 23, 23]
42.293[17, 22, 25, 27, 18, 20, 23, 24]
42.316[18, 22, 24, 26, 18, 22, 22, 23]
42.339[15, 22, 22, 26, 19, 20, 21, 23]
42.362[16, 27, 21, 32, 20, 20, 20, 23]
42.376[17, 25, 21, 31, 21, 20, 20, 20]
42.399[18, 26, 22, 31, 21, 21, 20, 18]
42.421[18, 27, 23, 31, 22, 18, 20, 17]
42.436[19, 28, 24, 35, 19, 21, 19, 18]
42.458[18, 25, 26, 30, 19, 20, 19, 17]
42.481[20, 26, 24, 29, 19, 18, 18, 18]
42.496[17, 24, 24, 33, 19, 20, 19, 18]
42.518[17, 23, 23, 33, 19, 21, 19, 18]
42.541[20, 22, 23, 27, 21, 19, 19, 16]
42.556[21, 21, 21, 26, 20, 17, 20, 17]
42.579[20, 20, 25, 33, 20, 19, 20, 16]
42.601[21, 21, 24, 29, 21, 18, 17, 17]
42.616[20, 21, 25, 30, 21, 18, 18, 17]
42.64[18, 21, 24, 32, 21, 19, 18, 19]
42.661[18, 22, 24, 33, 21, 21, 19, 19]
42.677[17, 22, 22, 27, 21, 21, 18, 20]
42.699[17, 21, 21, 25, 22, 21, 18, 20]
42.721[17, 20, 21, 25, 21, 21, 19, 20]
42.736[19, 20, 21, 28, 20, 21, 17, 18]
42.759[18, 18, 20, 26, 20, 19, 16, 18]
42.781[17, 18, 21, 27, 22, 20, 17, 18]
42.796[18, 20, 22, 31, 20, 20, 17, 18]
42.818[18, 21, 23, 30, 20, 21, 17, 18]
42.841[16, 21, 23, 24, 19, 22, 17, 18]
42.855[16, 23, 23, 25, 21, 22, 18, 19]
42.878[19, 23, 25, 31, 21, 20, 18, 18]
42.9[19, 22, 25, 28, 22, 20, 17, 18]
42.923[20, 21, 24, 29, 22, 21, 17, 18]
42.94[19, 20, 26, 34, 23, 19, 19, 18]
42.96[19, 20, 27, 34, 21, 19, 20, 19]
42.983[18, 19, 26, 27, 19, 19, 22, 21]
43.007[17, 19, 25, 31, 18, 19, 22, 19]
43.022[17, 22, 24, 34, 19, 17, 22, 20]
43.037[18, 22, 25, 29, 17, 17, 19, 19]
43.06[18, 22, 24, 28, 20, 17, 19, 19]
43.081[19, 24, 25, 31, 20, 18, 17, 17]
43.097[20, 23, 26, 30, 22, 19, 18, 18]
43.119[18, 20, 25, 26, 22, 21, 18, 21]
43.14[19, 23, 25, 29, 22, 21, 19, 21]
43.157[19, 23, 25, 30, 21, 22, 17, 22]
43.187[19, 21, 25, 27, 20, 22, 16, 20]
43.201[18, 21, 25, 29, 21, 21, 16, 22]
43.217[19, 23, 26, 29, 22, 20, 15, 20]
43.239[18, 19, 23, 28, 23, 20, 16, 19]
43.261[18, 20, 24, 27, 23, 18, 17, 19]
43.277[19, 21, 23, 30, 24, 19, 19, 19]
43.299[19, 22, 23, 26, 21, 19, 19, 17]
43.32[19, 20, 22, 27, 19, 18, 18, 17]
43.343[19, 21, 24, 27, 17, 19, 18, 16]
43.358[19, 20, 26, 32, 17, 20, 18, 19]
43.38[18, 21, 23, 29, 17, 18, 16, 19]
43.403[19, 21, 23, 29, 20, 20, 17, 19]
43.418[19, 21, 23, 30, 19, 19, 17, 18]
43.44[19, 19, 22, 33, 21, 19, 17, 20]
43.463[18, 20, 20, 29, 21, 19, 19, 18]
43.478[22, 20, 21, 30, 21, 19, 20, 18]
43.5[21, 19, 20, 30, 20, 18, 19, 20]
43.523[20, 20, 22, 29, 22, 20, 20, 19]
43.538[19, 20, 21, 30, 21, 20, 19, 19]
43.56[19, 21, 22, 29, 20, 18, 18, 20]
43.583[16, 21, 23, 29, 20, 19, 17, 20]
43.598[15, 20, 24, 30, 20, 20, 18, 19]
43.62[17, 20, 24, 33, 21, 18, 19, 19]
43.643[18, 20, 23, 29, 20, 19, 19, 19]
43.658[18, 20, 24, 30, 21, 19, 21, 16]
43.68[19, 21, 23, 31, 21, 21, 21, 17]
43.703[21, 22, 23, 30, 21, 20, 22, 17]
43.718[20, 21, 22, 25, 21, 19, 21, 19]
43.741[19, 23, 23, 24, 21, 18, 21, 19]
43.763[19, 21, 22, 24, 22, 19, 21, 19]
43.778[20, 19, 22, 22, 22, 18, 22, 18]
43.8[19, 20, 23, 25, 21, 18, 21, 18]
43.823[19, 20, 24, 27, 22, 18, 20, 16]
43.838[21, 21, 24, 27, 22, 18, 22, 17]
43.86[20, 21, 23, 26, 20, 18, 22, 17]
43.883[20, 21, 23, 27, 22, 17, 21, 17]
43.898[22, 20, 25, 30, 21, 16, 20, 19]
43.92[22, 22, 24, 28, 19, 17, 21, 18]
43.943[20, 20, 23, 30, 20, 18, 20, 17]
43.958[21, 21, 24, 30, 21, 18, 19, 17]
43.981[20, 23, 23, 29, 20, 17, 19, 19]
44.003[17, 23, 22, 31, 20, 17, 20, 17]
44.018[17, 21, 22, 31, 20, 17, 19, 19]
44.04[16, 22, 23, 30, 20, 17, 20, 20]
44.063[18, 20, 21, 31, 17, 19, 20, 20]
44.078[19, 20, 24, 31, 19, 22, 19, 19]
44.1[20, 21, 22, 23, 17, 23, 18, 20]
44.123[20, 21, 23, 23, 19, 24, 19, 19]
44.138[22, 20, 22, 24, 17, 24, 18, 19]
44.16[19, 21, 23, 28, 20, 23, 20, 18]
44.183[18, 20, 22, 26, 19, 23, 21, 17]
44.198[21, 20, 22, 26, 21, 23, 22, 16]
44.22[21, 20, 21, 29, 21, 20, 22, 16]
44.243[20, 20, 23, 32, 21, 21, 22, 16]
44.265[21, 20, 22, 28, 20, 20, 21, 16]
44.28[21, 22, 22, 31, 21, 17, 19, 16]
44.303[18, 21, 23, 31, 22, 17, 18, 17]
44.325[17, 25, 25, 33, 22, 20, 16, 17]
44.34[18, 26, 23, 29, 22, 20, 19, 17]
44.363[19, 26, 24, 29, 21, 20, 18, 18]
44.386[18, 27, 24, 26, 22, 20, 18, 17]
44.401[19, 28, 23, 26, 20, 20, 18, 17]
44.431[20, 25, 23, 19, 19, 17, 19, 17]
44.446[19, 25, 24, 26, 19, 18, 18, 18]
44.461[18, 25, 24, 26, 19, 18, 19, 17]
44.483[18, 23, 23, 27, 17, 18, 19, 18]
44.506[17, 24, 23, 28, 17, 18, 20, 19]
44.52[17, 25, 20, 28, 17, 18, 20, 20]
44.543[18, 26, 19, 21, 17, 17, 18, 19]
44.566[17, 24, 20, 24, 19, 18, 18, 20]
44.581[19, 25, 20, 25, 20, 18, 18, 19]
44.603[19, 22, 20, 23, 19, 19, 17, 19]
44.626[18, 20, 22, 25, 20, 18, 17, 18]
44.641[19, 20, 24, 25, 20, 18, 18, 18]
44.663[21, 20, 22, 29, 18, 18, 18, 21]
44.685[21, 21, 22, 29, 18, 19, 20, 21]
44.7[21, 22, 23, 30, 18, 18, 20, 20]
44.723[22, 25, 22, 28, 17, 20, 20, 20]
44.746[22, 24, 21, 28, 19, 21, 20, 20]
44.761[21, 25, 21, 20, 19, 19, 22, 18]
44.783[19, 23, 22, 18, 20, 19, 19, 20]
44.806[20, 24, 21, 27, 21, 20, 20, 20]
44.821[18, 21, 22, 29, 23, 21, 21, 20]
44.843[17, 22, 21, 31, 22, 19, 20, 21]
44.865[18, 21, 22, 31, 22, 20, 19, 20]
44.88[18, 20, 21, 32, 22, 19, 19, 19]
44.903[18, 20, 21, 24, 21, 19, 18, 17]
44.925[21, 21, 22, 23, 21, 18, 18, 17]
44.941[23, 20, 22, 20, 22, 18, 18, 16]
44.963[20, 21, 23, 26, 21, 18, 16, 16]
44.986[22, 23, 23, 25, 21, 17, 17, 17]
45.0[22, 23, 23, 26, 21, 16, 18, 19]
45.023[22, 22, 23, 25, 20, 17, 16, 19]
45.046[23, 22, 24, 26, 20, 17, 15, 18]
45.06[23, 21, 23, 26, 20, 17, 16, 17]
45.083[21, 19, 22, 26, 22, 17, 18, 17]
45.105[21, 19, 23, 26, 24, 18, 18, 17]
45.121[19, 19, 23, 26, 23, 18, 19, 18]
45.143[18, 19, 22, 27, 23, 19, 20, 18]
45.166[17, 20, 21, 20, 23, 18, 20, 20]
45.181[17, 22, 24, 20, 22, 18, 19, 19]
45.203[17, 23, 23, 20, 22, 19, 20, 17]
45.226[16, 22, 25, 21, 23, 18, 20, 16]
45.25[17, 24, 24, 19, 22, 17, 20, 16]
45.263[20, 24, 24, 21, 21, 17, 19, 16]
45.286[20, 23, 22, 21, 21, 17, 18, 16]
45.31[20, 21, 21, 20, 19, 16, 17, 16]
45.323[21, 21, 18, 19, 19, 17, 17, 17]
45.346[22, 20, 20, 19, 18, 19, 16, 19]
45.369[20, 21, 21, 19, 19, 19, 17, 19]
45.383[22, 20, 22, 19, 19, 19, 16, 20]
45.406[21, 23, 23, 19, 21, 21, 16, 21]
45.429[21, 22, 22, 20, 20, 20, 18, 22]
45.443[18, 22, 20, 19, 20, 20, 19, 22]
45.466[19, 23, 19, 19, 21, 20, 20, 20]
45.489[18, 23, 18, 20, 21, 20, 19, 21]
45.503[17, 23, 19, 22, 21, 18, 19, 22]
45.526[18, 24, 19, 23, 21, 17, 18, 22]
45.549[18, 24, 20, 23, 21, 16, 17, 22]
45.563[20, 23, 22, 24, 20, 16, 16, 23]
45.586[20, 24, 23, 24, 21, 16, 17, 23]
45.609[18, 22, 22, 22, 18, 16, 17, 21]
45.623[18, 23, 22, 21, 19, 17, 17, 20]
45.646[19, 22, 23, 21, 19, 19, 16, 18]
45.669[17, 22, 20, 19, 20, 20, 15, 17]
45.684[18, 21, 18, 18, 20, 21, 18, 18]
45.715[19, 21, 20, 18, 23, 20, 18, 17]
45.729[19, 20, 22, 19, 20, 20, 19, 16]
45.743[18, 20, 20, 20, 20, 18, 21, 17]
45.766[19, 22, 21, 20, 18, 18, 22, 17]
45.789[20, 22, 23, 24, 20, 19, 20, 17]
45.803[20, 23, 21, 25, 18, 20, 20, 20]
45.825[19, 22, 21, 25, 18, 19, 21, 20]
45.849[20, 23, 21, 24, 19, 19, 20, 21]
45.863[19, 22, 23, 25, 21, 19, 20, 22]
45.886[18, 23, 22, 22, 20, 17, 22, 21]
45.909[17, 21, 23, 22, 20, 18, 22, 19]
45.923[18, 21, 23, 21, 20, 19, 21, 20]
45.946[18, 21, 22, 22, 21, 20, 20, 17]
45.969[20, 21, 23, 27, 20, 19, 20, 16]
45.983[20, 21, 22, 28, 19, 19, 17, 17]
46.006[20, 21, 22, 27, 19, 18, 17, 17]
46.029[20, 23, 21, 27, 21, 18, 17, 17]
46.043[18, 22, 22, 26, 19, 18, 16, 17]
46.066[17, 23, 20, 22, 18, 19, 17, 18]
46.089[16, 23, 19, 20, 19, 23, 18, 18]
46.103[16, 23, 20, 20, 19, 22, 16, 17]
46.126[16, 23, 19, 22, 18, 23, 16, 18]
46.149[17, 23, 20, 26, 19, 23, 17, 18]
46.171[17, 22, 23, 26, 21, 22, 16, 17]
46.186[18, 21, 26, 27, 21, 18, 17, 16]
46.209[18, 20, 25, 29, 21, 19, 17, 17]
46.231[18, 18, 27, 27, 21, 18, 18, 16]
46.246[18, 18, 25, 25, 20, 17, 19, 15]
46.269[18, 19, 24, 23, 19, 17, 19, 16]
46.291[17, 19, 22, 24, 19, 18, 18, 19]
46.305[21, 23, 23, 22, 18, 18, 18, 19]
46.33[21, 23, 20, 23, 17, 18, 17, 20]
46.351[22, 26, 21, 26, 19, 18, 19, 20]
46.366[21, 24, 20, 26, 18, 19, 19, 22]
46.389[24, 25, 20, 26, 19, 19, 20, 19]
46.411[20, 22, 20, 31, 19, 19, 21, 19]
46.425[20, 22, 20, 30, 21, 18, 23, 19]
46.449[18, 21, 21, 25, 21, 20, 21, 20]
46.471[20, 20, 21, 25, 20, 20, 22, 19]
46.485[19, 20, 21, 26, 22, 20, 21, 19]
46.509[21, 21, 22, 25, 22, 19, 21, 18]
46.531[20, 26, 22, 26, 21, 21, 19, 17]
46.546[19, 25, 20, 26, 20, 20, 19, 17]
46.569[19, 25, 19, 26, 20, 23, 18, 16]
46.591[20, 24, 22, 29, 19, 20, 19, 15]
46.606[19, 24, 23, 28, 19, 21, 19, 16]
46.629[21, 19, 22, 28, 18, 20, 19, 17]
46.651[22, 19, 23, 29, 20, 19, 19, 19]
46.666[21, 19, 27, 33, 19, 17, 19, 19]
46.689[20, 23, 26, 29, 23, 18, 18, 20]
46.711[23, 24, 24, 26, 23, 18, 18, 19]
46.726[23, 26, 25, 35, 23, 18, 19, 19]
46.749[23, 28, 24, 35, 23, 19, 19, 17]
46.771[22, 28, 20, 30, 24, 18, 19, 18]
46.786[24, 26, 19, 30, 21, 18, 20, 16]
46.809[22, 25, 19, 31, 23, 19, 20, 17]
46.832[23, 24, 19, 26, 24, 20, 19, 16]
46.846[23, 23, 19, 25, 24, 18, 18, 16]
46.869[24, 22, 21, 26, 24, 21, 17, 16]
46.891[22, 21, 21, 26, 26, 20, 16, 17]
46.906[21, 19, 21, 26, 24, 20, 16, 18]
46.929[20, 20, 20, 21, 23, 21, 16, 19]
46.951[21, 20, 22, 22, 22, 23, 17, 19]
46.966[19, 20, 23, 30, 21, 21, 18, 20]
46.989[19, 20, 23, 31, 19, 21, 19, 19]
47.012[20, 21, 24, 30, 21, 20, 19, 17]
47.026[19, 21, 26, 37, 21, 19, 20, 17]
47.049[20, 21, 25, 37, 22, 16, 19, 17]
47.072[21, 22, 23, 31, 20, 15, 21, 17]
47.094[21, 22, 24, 29, 20, 16, 20, 18]
47.11[21, 23, 24, 33, 21, 16, 20, 18]
47.132[21, 23, 21, 25, 19, 17, 20, 20]
47.154[21, 23, 20, 24, 20, 17, 20, 19]
47.169[21, 23, 20, 24, 20, 19, 19, 19]
47.191[20, 23, 20, 29, 20, 19, 19, 19]
47.214[20, 24, 19, 25, 20, 20, 19, 19]
47.229[20, 24, 19, 25, 20, 19, 18, 17]
47.251[18, 24, 20, 32, 20, 22, 20, 18]
47.274[18, 24, 20, 32, 21, 21, 19, 19]
47.289[18, 24, 20, 27, 21, 21, 18, 19]
47.311[20, 24, 22, 31, 19, 20, 18, 21]
47.334[19, 24, 23, 35, 20, 20, 18, 20]
47.35[19, 23, 22, 30, 19, 19, 17, 21]
47.371[20, 21, 23, 29, 20, 18, 18, 20]
47.394[20, 21, 23, 30, 21, 19, 20, 20]
47.409[20, 20, 23, 32, 22, 18, 18, 19]
47.431[20, 18, 23, 28, 22, 18, 18, 18]
47.454[20, 19, 23, 28, 23, 15, 18, 19]
47.469[19, 20, 24, 33, 22, 15, 17, 18]
47.491[19, 22, 23, 34, 23, 17, 15, 18]
47.514[17, 21, 23, 29, 21, 19, 16, 18]
47.529[18, 21, 22, 29, 21, 20, 16, 19]
47.551[18, 21, 23, 33, 21, 21, 18, 17]
47.574[18, 22, 22, 27, 22, 22, 18, 19]
47.588[19, 22, 22, 28, 21, 21, 18, 20]
47.612[20, 22, 22, 30, 21, 18, 19, 20]
47.634[19, 23, 25, 31, 21, 18, 21, 21]
47.648[19, 22, 23, 27, 20, 18, 20, 23]
47.671[18, 22, 24, 28, 18, 17, 20, 21]
47.694[17, 22, 24, 31, 18, 18, 21, 20]
47.708[17, 23, 23, 30, 18, 19, 23, 21]
47.732[19, 22, 21, 28, 18, 19, 22, 20]
47.754[19, 24, 22, 29, 19, 18, 22, 17]
47.768[22, 23, 21, 30, 21, 19, 21, 19]
47.791[22, 23, 21, 27, 21, 17, 22, 18]
47.814[21, 22, 22, 25, 20, 17, 19, 18]
47.828[22, 23, 21, 25, 20, 17, 18, 18]
47.851[21, 23, 22, 29, 22, 16, 18, 20]
47.874[20, 22, 21, 28, 22, 17, 19, 19]
47.888[21, 22, 22, 25, 21, 17, 18, 19]
47.912[21, 22, 23, 28, 21, 19, 19, 20]
47.934[19, 22, 25, 35, 22, 18, 20, 21]
47.956[19, 20, 24, 31, 19, 20, 20, 21]
47.972[18, 21, 24, 32, 19, 18, 20, 21]
47.994[17, 20, 24, 35, 22, 19, 19, 21]
48.016[18, 20, 23, 32, 22, 18, 20, 19]
48.032[17, 20, 23, 26, 20, 18, 19, 19]
48.053[18, 21, 23, 26, 20, 15, 19, 20]
48.076[19, 20, 22, 28, 20, 17, 20, 20]
48.092[18, 23, 24, 28, 20, 17, 22, 20]
48.113[17, 21, 24, 28, 20, 17, 20, 23]
48.136[18, 22, 21, 28, 23, 18, 22, 22]
48.152[17, 23, 23, 32, 23, 20, 21, 22]
48.181[18, 24, 24, 31, 23, 20, 19, 22]
48.196[17, 21, 20, 27, 22, 19, 19, 23]
48.212[18, 22, 21, 33, 22, 19, 19, 19]
48.233[18, 24, 21, 34, 21, 19, 16, 19]
48.256[19, 23, 21, 29, 21, 18, 18, 19]
48.272[18, 23, 20, 28, 20, 19, 18, 18]
48.293[19, 22, 21, 35, 21, 19, 19, 19]
48.317[19, 22, 22, 31, 20, 18, 20, 20]
48.332[19, 22, 23, 28, 20, 17, 21, 20]
48.353[18, 22, 22, 29, 22, 18, 21, 19]
48.376[18, 22, 22, 31, 22, 18, 21, 20]
48.392[17, 21, 22, 24, 22, 18, 20, 19]
48.413[19, 21, 20, 23, 22, 20, 19, 19]
48.436[18, 20, 23, 29, 21, 20, 19, 20]
48.452[19, 17, 23, 28, 21, 21, 19, 20]
48.473[21, 19, 23, 27, 19, 24, 18, 18]
48.496[21, 21, 24, 27, 20, 24, 18, 18]
48.512[19, 23, 25, 30, 20, 22, 18, 18]
48.533[19, 23, 21, 26, 21, 23, 17, 18]
48.556[19, 25, 20, 26, 19, 22, 19, 17]
48.572[17, 24, 22, 28, 21, 18, 20, 17]
48.593[18, 25, 23, 33, 20, 18, 19, 18]
48.616[18, 23, 22, 31, 21, 19, 19, 19]
48.632[19, 23, 22, 31, 21, 18, 19, 18]
48.653[19, 23, 23, 38, 21, 19, 16, 18]
48.676[20, 22, 22, 35, 20, 19, 16, 18]
48.692[20, 20, 20, 31, 20, 17, 16, 18]
48.714[19, 21, 22, 32, 20, 17, 17, 19]
48.736[18, 21, 23, 32, 20, 16, 16, 20]
48.752[19, 23, 22, 25, 20, 15, 16, 22]
48.774[17, 23, 23, 25, 21, 15, 18, 21]
48.796[18, 23, 25, 32, 20, 17, 19, 21]
48.812[19, 23, 24, 30, 19, 16, 18, 21]
48.834[19, 22, 23, 31, 20, 19, 20, 23]
48.856[20, 20, 24, 31, 19, 18, 20, 21]
48.872[21, 23, 26, 35, 20, 17, 20, 22]
48.893[21, 24, 24, 27, 21, 18, 22, 23]
48.916[22, 24, 23, 26, 20, 18, 22, 20]
48.938[21, 25, 23, 30, 20, 18, 21, 19]
48.953[21, 24, 24, 29, 21, 19, 23, 21]
48.976[21, 22, 21, 26, 19, 20, 22, 20]
48.998[19, 20, 22, 25, 19, 21, 20, 19]
49.021[18, 19, 24, 31, 20, 22, 21, 21]
49.036[19, 19, 25, 26, 19, 20, 21, 20]
49.058[20, 20, 24, 28, 20, 20, 19, 18]
49.081[19, 20, 23, 27, 20, 19, 19, 19]
49.096[21, 20, 24, 30, 21, 17, 19, 19]
49.118[22, 22, 22, 26, 20, 17, 19, 21]
49.133[21, 22, 21, 28, 21, 18, 18, 20]
49.157[21, 23, 21, 29, 21, 18, 18, 20]
49.179[20, 21, 22, 35, 22, 17, 18, 20]
49.194[18, 22, 21, 33, 21, 19, 19, 20]
49.216[16, 21, 21, 32, 23, 19, 20, 18]
49.239[17, 22, 23, 36, 22, 19, 21, 17]
49.254[16, 22, 22, 35, 21, 20, 20, 17]
49.276[18, 22, 22, 29, 20, 21, 20, 18]
49.298[18, 22, 20, 29, 20, 19, 20, 16]
49.313[20, 24, 24, 32, 20, 20, 19, 16]
49.337[20, 25, 23, 25, 19, 19, 19, 17]
49.358[21, 22, 22, 25, 20, 19, 19, 16]
49.373[21, 24, 22, 27, 21, 19, 20, 16]
49.396[20, 25, 22, 28, 21, 19, 21, 16]
49.419[19, 23, 18, 24, 20, 18, 21, 17]
49.435[19, 22, 19, 28, 21, 20, 22, 17]
49.456[19, 24, 21, 30, 21, 21, 21, 19]
49.478[18, 22, 22, 28, 21, 21, 21, 17]
49.493[21, 22, 24, 29, 20, 21, 21, 19]
49.516[22, 22, 26, 32, 20, 21, 20, 18]
49.538[21, 23, 24, 27, 19, 21, 20, 19]
49.554[22, 21, 23, 25, 18, 20, 20, 20]
49.576[21, 21, 22, 32, 17, 23, 19, 19]
49.599[18, 22, 21, 31, 18, 24, 18, 19]
49.614[19, 22, 22, 28, 17, 23, 17, 19]
49.636[19, 23, 22, 28, 17, 22, 16, 18]
49.659[19, 23, 23, 33, 19, 22, 17, 20]
49.673[18, 24, 23, 27, 19, 19, 18, 21]
49.696[19, 23, 24, 28, 17, 17, 18, 22]
49.719[18, 22, 23, 32, 19, 18, 18, 22]
49.734[18, 21, 24, 33, 19, 18, 18, 23]
49.756[16, 21, 23, 30, 18, 19, 18, 20]
49.778[17, 23, 27, 31, 20, 19, 17, 20]
49.793[17, 20, 27, 35, 21, 19, 19, 20]
49.816[17, 20, 26, 32, 22, 19, 18, 20]
49.838[18, 20, 26, 31, 24, 20, 19, 19]
49.853[17, 21, 28, 34, 24, 18, 20, 20]
49.876[17, 19, 25, 32, 23, 18, 20, 20]
49.898[17, 22, 23, 26, 23, 19, 19, 19]
49.921[17, 22, 22, 24, 23, 19, 19, 19]
49.936[17, 25, 23, 31, 21, 19, 19, 18]
49.959[17, 23, 21, 28, 21, 21, 17, 20]
49.981[20, 25, 22, 34, 22, 20, 17, 19]
49.996[19, 23, 21, 33, 22, 20, 19, 21]
50.018[19, 24, 24, 35, 22, 20, 21, 20]
50.041[20, 23, 23, 28, 22, 19, 21, 20]
50.056[20, 24, 24, 28, 22, 18, 21, 18]
50.078[19, 24, 23, 30, 21, 17, 22, 19]
50.101[21, 23, 24, 30, 20, 17, 21, 19]
50.116[21, 25, 24, 28, 20, 17, 19, 17]
50.138[21, 24, 24, 28, 19, 15, 17, 20]
50.161[22, 23, 22, 33, 20, 15, 19, 21]
50.176[20, 22, 21, 26, 22, 17, 20, 20]
50.198[22, 24, 23, 26, 23, 17, 19, 20]
50.221[21, 22, 21, 30, 23, 17, 19, 21]
50.236[21, 22, 22, 32, 23, 18, 21, 19]
50.259[21, 23, 24, 28, 23, 16, 20, 18]
50.281[22, 21, 24, 36, 22, 17, 20, 20]
50.296[20, 19, 22, 38, 21, 19, 21, 20]
50.319[20, 20, 21, 34, 21, 19, 22, 20]
50.341[21, 22, 21, 34, 21, 21, 20, 21]
50.356[20, 20, 19, 35, 22, 22, 19, 22]
50.378[19, 21, 18, 29, 21, 20, 18, 18]
50.401