[19, 21, 23, 22, 21, 36, 17, 16]
0.866[19, 21, 23, 22, 23, 36, 19, 17]
0.898[19, 20, 22, 20, 22, 32, 19, 18]
0.912[19, 18, 22, 21, 22, 29, 25, 20]
0.927[17, 17, 21, 21, 21, 28, 25, 21]
0.949[19, 17, 19, 21, 20, 27, 26, 21]
0.972[19, 18, 18, 21, 21, 28, 24, 23]
1.003[19, 20, 19, 21, 22, 30, 24, 22]
1.009[19, 22, 19, 20, 21, 32, 19, 20]
1.032[20, 22, 17, 20, 19, 33, 19, 21]
1.047[17, 23, 18, 22, 24, 36, 19, 20]
1.069[20, 22, 19, 22, 22, 34, 22, 20]
1.092[20, 22, 18, 22, 22, 36, 22, 21]
1.107[19, 20, 19, 22, 21, 35, 21, 22]
1.129[21, 22, 20, 22, 23, 34, 20, 20]
1.152[21, 21, 20, 21, 21, 35, 23, 21]
1.167[20, 22, 19, 20, 20, 37, 21, 20]
1.189[20, 21, 19, 21, 19, 32, 22, 21]
1.213[22, 21, 17, 21, 20, 35, 22, 22]
1.226[21, 21, 18, 22, 18, 35, 22, 24]
1.249[22, 20, 18, 21, 18, 31, 20, 24]
1.272[20, 19, 18, 24, 19, 30, 22, 23]
1.286[19, 18, 17, 23, 20, 31, 20, 23]
1.309[18, 18, 17, 23, 20, 28, 20, 23]
1.333[16, 15, 17, 21, 22, 28, 24, 22]
1.346[17, 17, 19, 22, 23, 31, 24, 22]
1.369[18, 16, 19, 19, 22, 30, 24, 24]
1.392[20, 16, 19, 21, 23, 29, 24, 23]
1.406[21, 18, 19, 19, 24, 31, 24, 20]
1.429[21, 20, 19, 21, 24, 29, 21, 18]
1.452[20, 18, 18, 20, 23, 32, 23, 22]
1.466[20, 20, 19, 21, 23, 34, 20, 21]
1.489[19, 20, 19, 21, 23, 34, 21, 22]
1.513[16, 18, 19, 23, 22, 33, 24, 23]
1.526[17, 19, 19, 23, 20, 37, 22, 24]
1.549[18, 21, 21, 24, 21, 34, 22, 21]
1.572[18, 20, 19, 24, 21, 30, 25, 23]
1.586[17, 21, 21, 24, 19, 36, 26, 25]
1.61[17, 21, 20, 25, 22, 38, 24, 25]
1.632[17, 21, 21, 25, 23, 34, 24, 25]
1.648[17, 21, 21, 25, 23, 34, 21, 27]
1.669[17, 22, 23, 23, 24, 34, 20, 24]
1.692[18, 21, 21, 22, 25, 32, 19, 23]
1.715[19, 22, 22, 22, 24, 37, 21, 27]
1.729[18, 21, 21, 22, 23, 39, 22, 26]
1.752[17, 21, 20, 19, 23, 39, 23, 23]
1.775[17, 20, 19, 21, 24, 39, 24, 25]
1.798[17, 20, 20, 20, 24, 37, 22, 24]
1.811[17, 20, 17, 20, 25, 32, 23, 21]
1.835[16, 21, 20, 20, 24, 29, 23, 21]
1.858[17, 22, 20, 21, 23, 31, 22, 23]
1.871[18, 22, 19, 21, 21, 32, 21, 23]
1.894[17, 22, 20, 21, 21, 30, 22, 22]
1.924[18, 22, 20, 20, 18, 29, 20, 20]
1.931[19, 23, 20, 20, 22, 29, 19, 23]
1.954[19, 21, 20, 21, 23, 30, 18, 22]
1.977[18, 21, 20, 20, 23, 30, 20, 22]
1.991[17, 21, 19, 19, 23, 33, 20, 22]
2.015[18, 19, 20, 23, 26, 35, 19, 22]
2.044[19, 19, 17, 21, 24, 35, 20, 19]
2.051[18, 20, 19, 22, 21, 31, 21, 20]
2.074[19, 19, 19, 22, 22, 30, 21, 17]
2.104[20, 20, 21, 23, 27, 39, 21, 18]
2.111[20, 22, 21, 24, 25, 40, 23, 20]
2.134[19, 22, 22, 24, 25, 40, 22, 20]
2.157[17, 21, 20, 22, 27, 41, 22, 18]
2.171[17, 20, 21, 22, 27, 46, 21, 19]
2.194[17, 19, 21, 23, 25, 36, 20, 18]
2.217[17, 19, 19, 19, 25, 33, 20, 17]
2.239[18, 20, 21, 19, 26, 32, 20, 17]
2.254[20, 21, 21, 21, 30, 37, 23, 17]
2.277[20, 23, 22, 22, 30, 33, 23, 17]
2.3[20, 22, 20, 21, 29, 32, 22, 18]
2.329[19, 20, 22, 23, 29, 34, 21, 18]
2.337[20, 22, 21, 24, 28, 34, 22, 18]
2.359[20, 20, 20, 22, 24, 30, 19, 18]
2.383[19, 19, 21, 22, 24, 29, 18, 20]
2.398[19, 21, 22, 21, 23, 30, 18, 20]
2.419[18, 21, 21, 19, 23, 28, 18, 21]
2.442[16, 19, 20, 22, 23, 29, 16, 22]
2.471[16, 19, 20, 22, 23, 30, 18, 22]
2.481[19, 18, 19, 22, 21, 28, 19, 21]
2.495[18, 18, 19, 24, 21, 29, 20, 21]
2.517[19, 21, 19, 25, 22, 33, 21, 19]
2.55[20, 20, 21, 23, 23, 32, 22, 18]
2.554[19, 22, 20, 24, 25, 28, 22, 17]
2.58[18, 22, 19, 24, 25, 29, 21, 19]
2.601[18, 22, 19, 24, 26, 30, 20, 17]
2.614[17, 21, 21, 23, 28, 35, 22, 17]
2.636[16, 22, 18, 23, 28, 34, 21, 16]
2.659[18, 21, 19, 21, 25, 36, 22, 20]
2.674[17, 23, 22, 21, 25, 37, 24, 20]
2.697[19, 24, 22, 20, 24, 35, 26, 20]
2.719[20, 24, 22, 19, 22, 26, 24, 20]
2.742[20, 26, 22, 20, 21, 27, 24, 20]
2.757[19, 26, 22, 21, 21, 27, 24, 19]
2.779[19, 27, 19, 21, 22, 28, 22, 19]
2.793[17, 24, 19, 21, 20, 27, 21, 19]
2.818[18, 22, 17, 21, 20, 27, 22, 19]
2.838[19, 21, 19, 22, 21, 27, 20, 19]
2.861[19, 21, 20, 21, 23, 25, 17, 18]
2.877[19, 19, 21, 20, 23, 23, 17, 18]
2.898[20, 19, 21, 21, 22, 24, 19, 18]
2.921[20, 18, 20, 21, 21, 27, 20, 19]
2.937[20, 19, 20, 18, 21, 27, 20, 19]
2.966[20, 20, 20, 18, 19, 28, 20, 19]
2.981[21, 20, 18, 17, 20, 32, 23, 19]
2.997[20, 20, 18, 17, 20, 33, 22, 18]
3.02[21, 23, 18, 18, 20, 30, 21, 19]
3.035[21, 22, 19, 18, 21, 31, 21, 21]
3.057[19, 21, 19, 18, 21, 30, 22, 22]
3.078[20, 21, 20, 19, 20, 26, 19, 23]
3.101[21, 22, 21, 20, 21, 26, 19, 24]
3.117[19, 20, 20, 19, 23, 26, 19, 23]
3.138[19, 20, 19, 20, 20, 26, 19, 22]
3.161[20, 18, 19, 19, 21, 27, 18, 22]
3.177[19, 23, 21, 22, 21, 25, 19, 20]
3.198[17, 22, 20, 21, 21, 25, 19, 20]
3.221[19, 24, 21, 24, 22, 30, 18, 20]
3.237[19, 25, 21, 24, 23, 32, 19, 17]
3.266[19, 25, 22, 25, 21, 31, 19, 14]
3.288[19, 22, 20, 22, 20, 34, 19, 15]
3.297[20, 23, 19, 22, 21, 36, 18, 15]
3.326[21, 22, 20, 22, 20, 31, 18, 17]
3.341[20, 22, 21, 22, 20, 29, 20, 18]
3.356[21, 24, 21, 22, 20, 29, 21, 19]
3.378[21, 23, 22, 22, 21, 32, 20, 19]
3.401[21, 23, 22, 22, 20, 30, 19, 18]
3.416[21, 24, 21, 21, 20, 30, 20, 18]
3.44[20, 25, 22, 19, 22, 29, 16, 20]
3.461[21, 23, 22, 20, 22, 32, 18, 20]
3.476[23, 23, 21, 22, 24, 27, 17, 21]
3.498[22, 22, 21, 24, 24, 30, 18, 21]
3.521[21, 23, 23, 24, 24, 30, 16, 21]
3.536[20, 22, 21, 23, 22, 31, 17, 20]
3.56[20, 22, 21, 22, 23, 30, 15, 19]
3.581[20, 21, 22, 21, 21, 33, 17, 18]
3.596[20, 22, 21, 21, 22, 36, 17, 18]
3.618[19, 18, 21, 22, 21, 35, 19, 17]
3.641[18, 18, 21, 22, 22, 38, 20, 17]
3.656[18, 20, 21, 22, 20, 37, 21, 17]
3.678[17, 21, 21, 20, 20, 35, 24, 19]
3.701[17, 19, 22, 18, 21, 30, 24, 21]
3.716[17, 21, 20, 18, 20, 29, 24, 23]
3.738[17, 21, 21, 18, 22, 34, 24, 22]
3.761[18, 20, 20, 19, 23, 37, 24, 23]
3.776[17, 21, 20, 19, 27, 39, 21, 21]
3.798[17, 22, 17, 19, 26, 39, 23, 22]
3.822[19, 21, 18, 19, 28, 40, 23, 21]
3.836[20, 20, 18, 20, 29, 43, 22, 21]
3.866[20, 21, 18, 22, 28, 43, 19, 20]
3.881[19, 20, 19, 22, 26, 41, 18, 20]
3.896[20, 20, 19, 24, 27, 42, 18, 20]
3.918[20, 19, 18, 24, 27, 40, 17, 18]
3.941[20, 19, 19, 22, 23, 30, 19, 18]
3.956[21, 18, 21, 21, 23, 24, 19, 18]
3.986[21, 19, 21, 21, 21, 26, 21, 17]
4.001[19, 17, 21, 22, 25, 40, 22, 15]
4.016[19, 19, 22, 22, 24, 43, 22, 15]
4.046[20, 19, 22, 23, 25, 43, 21, 16]
4.061[17, 21, 21, 23, 26, 44, 24, 18]
4.076[19, 22, 21, 22, 28, 50, 24, 18]
4.098[20, 22, 23, 21, 23, 41, 23, 19]
4.129[21, 22, 23, 20, 22, 40, 23, 21]
4.144[20, 23, 21, 21, 23, 40, 21, 21]
4.16[21, 22, 20, 24, 25, 40, 22, 20]
4.181[21, 20, 21, 24, 24, 32, 21, 22]
4.212[20, 21, 20, 23, 23, 31, 21, 22]
4.218[20, 22, 22, 24, 26, 30, 20, 23]
4.242[19, 21, 21, 23, 24, 32, 24, 22]
4.264[19, 21, 23, 20, 23, 30, 20, 22]
4.278[19, 22, 22, 21, 24, 38, 20, 20]
4.301[20, 23, 22, 22, 27, 38, 20, 19]
4.324[20, 21, 20, 23, 28, 38, 21, 17]
4.346[21, 21, 21, 25, 28, 38, 18, 17]
4.361[20, 23, 22, 26, 28, 39, 18, 15]
4.384[20, 22, 22, 25, 26, 31, 19, 15]
4.399[19, 20, 22, 25, 25, 34, 21, 17]
4.422[19, 19, 21, 24, 23, 35, 21, 18]
4.443[18, 19, 24, 23, 25, 36, 20, 20]
4.458[18, 21, 21, 23, 25, 37, 21, 21]
4.489[19, 21, 21, 24, 25, 36, 22, 20]
4.504[19, 22, 21, 24, 24, 34, 23, 20]
4.527[20, 23, 21, 24, 23, 31, 22, 21]
4.541[19, 23, 19, 22, 20, 29, 23, 21]
4.564[21, 21, 19, 22, 20, 28, 24, 21]
4.578[21, 21, 19, 20, 23, 39, 23, 23]
4.601[22, 21, 20, 21, 25, 40, 22, 22]
4.623[21, 21, 19, 24, 26, 41, 21, 21]
4.638[21, 21, 19, 24, 26, 47, 20, 18]
4.661[20, 19, 21, 23, 26, 47, 18, 18]
4.683[18, 20, 20, 25, 25, 42, 19, 18]
4.698[18, 21, 19, 24, 24, 40, 18, 20]
4.729[18, 21, 19, 21, 24, 39, 19, 19]
4.743[18, 21, 21, 23, 26, 35, 19, 19]
4.766[19, 21, 19, 25, 25, 35, 19, 20]
4.781[20, 22, 20, 24, 23, 32, 18, 21]
4.803[20, 22, 21, 24, 23, 33, 17, 19]
4.818[21, 22, 22, 25, 25, 35, 18, 19]
4.841[20, 23, 23, 23, 24, 32, 19, 21]
4.865[18, 24, 23, 19, 23, 31, 21, 20]
4.88[18, 24, 22, 20, 23, 30, 20, 19]
4.901[15, 24, 22, 19, 22, 28, 20, 19]
4.923[17, 22, 20, 19, 18, 26, 19, 20]
4.938[18, 23, 20, 20, 17, 27, 18, 19]
4.961[18, 21, 20, 21, 20, 27, 17, 21]
4.984[19, 21, 20, 23, 22, 27, 18, 21]
4.998[20, 20, 20, 23, 23, 30, 19, 20]
5.029[20, 23, 23, 22, 24, 29, 20, 19]
5.043[21, 22, 22, 24, 24, 30, 19, 18]
5.074[20, 22, 20, 25, 22, 34, 18, 16]
5.081[20, 23, 21, 24, 21, 34, 20, 18]
5.104[20, 25, 21, 24, 20, 33, 21, 19]
5.126[18, 22, 20, 25, 20, 35, 21, 21]
5.143[17, 21, 20, 22, 20, 35, 22, 21]
5.163[18, 22, 22, 22, 20, 33, 21, 21]
5.187[18, 20, 21, 20, 23, 32, 20, 23]
5.201[20, 18, 23, 22, 24, 32, 18, 23]
5.223[20, 20, 25, 23, 23, 30, 18, 23]
5.246[22, 21, 23, 22, 24, 29, 19, 24]
5.261[21, 22, 23, 22, 25, 29, 22, 24]
5.283[20, 23, 23, 25, 23, 31, 21, 23]
5.306[20, 24, 20, 24, 24, 31, 22, 23]
5.321[21, 21, 20, 25, 25, 32, 23, 22]
5.352[20, 23, 22, 24, 24, 30, 23, 21]
5.374[20, 22, 22, 25, 24, 30, 23, 21]
5.381[20, 22, 22, 22, 24, 29, 21, 20]
5.403[21, 23, 23, 21, 24, 27, 22, 20]
5.434[19, 23, 23, 21, 23, 27, 23, 20]
5.441[18, 22, 21, 22, 24, 28, 22, 20]
5.463[18, 23, 23, 22, 25, 32, 21, 22]
5.486[19, 23, 23, 22, 26, 32, 23, 21]
5.501[20, 23, 22, 22, 24, 38, 22, 20]
5.523[21, 25, 20, 21, 26, 39, 21, 19]
5.547[21, 24, 23, 21, 26, 38, 22, 19]
5.561[22, 24, 22, 21, 25, 34, 21, 17]
5.584[21, 22, 22, 21, 24, 34, 19, 17]
5.607[19, 21, 21, 20, 23, 27, 20, 19]
5.621[18, 20, 22, 20, 21, 23, 18, 20]
5.643[17, 20, 21, 22, 21, 30, 21, 21]
5.667[16, 20, 21, 21, 22, 31, 22, 21]
5.681[17, 19, 21, 20, 24, 36, 23, 21]
5.703[16, 21, 23, 22, 26, 37, 23, 19]
5.727[17, 21, 22, 24, 26, 44, 24, 20]
5.741[18, 21, 22, 22, 27, 39, 22, 18]
5.763[19, 22, 21, 22, 26, 39, 22, 20]
5.786[19, 23, 21, 23, 25, 34, 20, 21]
5.801[20, 22, 21, 22, 26, 34, 20, 21]
5.824[20, 21, 23, 22, 25, 27, 20, 21]
5.847[19, 21, 22, 24, 25, 27, 21, 22]
5.861[19, 21, 23, 23, 25, 25, 21, 22]
5.884[19, 20, 23, 23, 24, 29, 21, 20]
5.906[20, 21, 21, 23, 24, 35, 21, 21]
5.921[20, 21, 21, 22, 24, 36, 20, 22]
5.943[21, 20, 21, 23, 23, 35, 21, 21]
5.967[20, 20, 21, 24, 25, 42, 21, 21]
5.989[19, 20, 20, 25, 25, 44, 21, 23]
6.003[19, 19, 21, 25, 25, 38, 22, 23]
6.027[17, 18, 20, 24, 24, 38, 22, 22]
6.049[15, 22, 22, 23, 27, 39, 19, 22]
6.063[17, 22, 22, 21, 25, 33, 19, 21]
6.086[19, 21, 22, 20, 25, 28, 24, 20]
6.109[19, 22, 23, 19, 24, 30, 21, 18]
6.123[20, 23, 22, 22, 24, 26, 20, 18]
6.147[21, 20, 21, 20, 22, 25, 20, 18]
6.169[20, 19, 20, 22, 23, 30, 20, 19]
6.183[18, 20, 21, 24, 22, 32, 18, 15]
6.206[18, 19, 19, 25, 24, 31, 19, 18]
6.229[17, 19, 20, 24, 25, 35, 19, 18]
6.243[17, 20, 21, 26, 24, 37, 20, 20]
6.266[16, 23, 21, 27, 23, 34, 20, 20]
6.289[18, 22, 22, 25, 24, 34, 23, 22]
6.303[17, 24, 24, 25, 23, 34, 23, 22]
6.327[18, 23, 24, 25, 23, 33, 23, 21]
6.349[18, 22, 23, 24, 22, 32, 23, 23]
6.363[20, 20, 22, 24, 22, 30, 25, 21]
6.386[19, 21, 22, 24, 22, 34, 22, 21]
6.409[20, 20, 21, 24, 21, 34, 23, 20]
6.423[22, 22, 22, 22, 21, 31, 23, 21]
6.447[23, 22, 21, 22, 23, 31, 24, 18]
6.469[23, 22, 21, 21, 22, 35, 20, 19]
6.484[22, 23, 22, 21, 24, 30, 23, 18]
6.506[23, 22, 22, 22, 24, 31, 22, 18]
6.529[23, 21, 20, 23, 24, 30, 22, 17]
6.543[23, 19, 21, 24, 24, 30, 22, 17]
6.567[23, 19, 25, 23, 25, 28, 21, 17]
6.589[23, 17, 24, 24, 23, 27, 18, 17]
6.603[20, 18, 23, 22, 21, 27, 19, 20]
6.626[18, 18, 23, 22, 21, 31, 19, 20]
6.649[18, 19, 22, 22, 20, 30, 19, 21]
6.663[16, 21, 19, 20, 18, 31, 22, 21]
6.686[18, 23, 21, 22, 22, 63, 29, 20]
6.709[18, 22, 22, 22, 22, 65, 29, 20]
6.723[18, 21, 21, 22, 24, 66, 32, 20]
6.747[20, 21, 22, 22, 26, 73, 32, 20]
6.769[21, 20, 23, 24, 28, 72, 31, 19]
6.783[20, 20, 21, 23, 28, 49, 24, 20]
6.806[20, 21, 20, 23, 29, 45, 24, 17]
6.829[20, 23, 19, 24, 28, 43, 22, 19]
6.843[18, 23, 19, 23, 28, 31, 19, 20]
6.881[18, 22, 18, 22, 27, 31, 20, 21]
6.889[18, 22, 19, 21, 26, 28, 23, 20]
6.903[19, 22, 19, 21, 23, 28, 21, 21]
6.926[19, 22, 21, 19, 23, 26, 21, 20]
6.949[19, 22, 22, 20, 21, 27, 21, 18]
6.972[18, 22, 24, 20, 22, 26, 20, 18]
6.986[17, 20, 24, 20, 23, 45, 21, 21]
7.009[17, 20, 23, 21, 24, 48, 22, 22]
7.032[17, 19, 22, 21, 23, 48, 22, 21]
7.046[18, 20, 21, 22, 22, 47, 23, 22]
7.069[19, 21, 20, 22, 24, 48, 24, 21]
7.091[20, 22, 19, 21, 21, 32, 21, 17]
7.106[19, 20, 19, 19, 21, 28, 20, 19]
7.129[20, 21, 20, 19, 20, 28, 22, 20]
7.152[20, 20, 19, 18, 20, 28, 23, 20]
7.167[19, 21, 20, 19, 17, 30, 21, 20]
7.189[19, 21, 22, 20, 20, 29, 23, 20]
7.212[20, 22, 23, 22, 21, 31, 23, 18]
7.227[18, 21, 23, 23, 22, 33, 22, 18]
7.249[18, 21, 24, 24, 24, 33, 22, 19]
7.272[19, 21, 23, 23, 24, 29, 21, 18]
7.286[19, 20, 22, 22, 23, 27, 20, 18]
7.309[18, 21, 20, 21, 21, 28, 19, 20]
7.332[19, 20, 21, 21, 21, 29, 21, 19]
7.347[21, 21, 22, 21, 19, 28, 23, 19]
7.377[18, 21, 21, 20, 19, 27, 23, 21]
7.391[19, 20, 21, 20, 19, 28, 24, 22]
7.407[28, 21, 23, 20, 20, 29, 24, 21]
7.429[29, 21, 24, 19, 21, 27, 20, 22]
7.451[29, 21, 22, 18, 21, 28, 22, 21]
7.466[29, 23, 26, 21, 21, 31, 22, 21]
7.489[32, 25, 27, 22, 22, 36, 19, 19]
7.511[24, 24, 25, 22, 24, 34, 20, 19]
7.534[22, 24, 24, 22, 23, 32, 21, 18]
7.549[21, 24, 25, 22, 23, 32, 18, 18]
7.571[22, 21, 22, 22, 22, 30, 17, 16]
7.586[20, 20, 20, 23, 21, 25, 21, 18]
7.609[20, 19, 20, 23, 20, 25, 21, 17]
7.631[21, 18, 21, 24, 22, 28, 19, 18]
7.654[21, 21, 21, 23, 24, 27, 19, 19]
7.669[20, 21, 20, 22, 26, 27, 19, 19]
7.691[19, 21, 21, 21, 25, 25, 18, 19]
7.706[21, 23, 20, 20, 25, 26, 20, 18]
7.729[21, 24, 20, 20, 23, 25, 22, 19]
7.752[20, 21, 17, 24, 25, 31, 21, 19]
7.766[20, 22, 17, 23, 24, 32, 23, 20]
7.79[21, 23, 17, 25, 24, 31, 22, 20]
7.812[20, 21, 19, 25, 25, 30, 20, 19]
7.833[21, 22, 20, 25, 24, 34, 21, 20]
7.85[19, 25, 21, 22, 24, 30, 22, 19]
7.871[24, 36, 20, 22, 23, 28, 19, 20]
7.893[24, 36, 22, 21, 25, 33, 19, 21]
7.91[25, 36, 20, 21, 24, 36, 20, 22]
7.932[23, 37, 20, 21, 25, 33, 20, 22]
7.953[26, 36, 21, 22, 25, 36, 19, 23]
7.97[21, 23, 21, 23, 26, 40, 21, 21]
7.991[23, 38, 22, 23, 27, 37, 22, 21]
8.015[23, 38, 21, 24, 27, 35, 20, 22]
8.03[24, 38, 21, 24, 26, 35, 21, 20]
8.051[22, 37, 21, 24, 25, 31, 22, 21]
8.073[24, 38, 21, 22, 23, 25, 21, 22]
8.09[19, 25, 18, 20, 20, 25, 23, 20]
8.111[19, 22, 21, 21, 20, 24, 24, 20]
8.133[18, 21, 20, 20, 21, 27, 23, 19]
8.15[18, 20, 20, 20, 21, 26, 23, 19]
8.171[17, 20, 21, 22, 24, 32, 22, 20]
8.193[18, 19, 22, 23, 25, 33, 20, 20]
8.21[17, 20, 20, 24, 25, 32, 19, 21]
8.232[17, 20, 20, 25, 22, 31, 18, 22]
8.253[16, 22, 24, 24, 23, 32, 17, 21]
8.27[16, 26, 24, 23, 25, 29, 17, 20]
8.291[17, 36, 25, 21, 24, 27, 16, 22]
8.313[18, 42, 25, 20, 23, 28, 18, 20]
8.33[19, 41, 26, 18, 24, 27, 18, 20]
8.351[22, 40, 23, 18, 22, 28, 18, 19]
8.373[21, 38, 24, 19, 17, 27, 17, 18]
8.39[22, 30, 22, 19, 20, 28, 17, 17]
8.411[21, 22, 23, 21, 22, 29, 18, 19]
8.433[21, 24, 22, 23, 24, 29, 18, 19]
8.45[21, 24, 23, 23, 26, 27, 21, 19]
8.47[20, 23, 21, 22, 27, 31, 21, 21]
8.493[20, 23, 20, 23, 24, 35, 22, 20]
8.51[21, 22, 20, 23, 25, 36, 20, 20]
8.53[22, 22, 22, 20, 25, 38, 20, 21]
8.553[19, 22, 20, 21, 25, 38, 18, 21]
8.57[21, 21, 22, 21, 23, 33, 18, 19]
8.591[21, 20, 22, 21, 24, 28, 19, 19]
8.613[22, 19, 24, 22, 22, 28, 19, 18]
8.63[22, 19, 23, 23, 22, 29, 21, 19]
8.651[22, 18, 24, 23, 21, 31, 20, 19]
8.681[21, 19, 23, 24, 23, 33, 21, 19]
8.69[19, 21, 22, 23, 26, 36, 21, 17]
8.711[17, 21, 20, 22, 26, 38, 22, 19]
8.733[16, 20, 21, 22, 25, 37, 21, 19]
8.75[16, 22, 19, 22, 27, 38, 23, 19]
8.771[16, 22, 18, 22, 28, 37, 20, 20]
8.793[17, 19, 19, 23, 26, 34, 20, 20]
8.808[17, 20, 21, 23, 27, 33, 20, 19]
8.831[18, 20, 21, 23, 28, 34, 19, 17]
8.853[18, 19, 21, 22, 28, 32, 18, 16]
8.876[19, 19, 22, 22, 27, 33, 22, 15]
8.899[18, 20, 23, 21, 26, 34, 22, 16]
8.914[19, 21, 22, 21, 24, 30, 21, 17]
8.936[20, 22, 20, 21, 23, 28, 21, 17]
8.951[20, 20, 20, 21, 22, 30, 21, 18]
8.973[20, 20, 21, 22, 23, 30, 21, 19]
8.996[21, 20, 20, 21, 22, 29, 20, 18]
9.011[20, 20, 21, 21, 22, 32, 21, 18]
9.033[19, 22, 22, 22, 23, 34, 22, 18]
9.056[18, 22, 23, 22, 24, 36, 20, 19]
9.071[18, 23, 22, 21, 22, 35, 18, 18]
9.093[18, 22, 21, 21, 23, 34, 19, 20]
9.124[17, 20, 21, 20, 23, 34, 19, 19]
9.131[18, 19, 21, 19, 22, 31, 18, 19]
9.153[18, 17, 21, 21, 22, 31, 20, 20]
9.176[18, 18, 21, 21, 23, 32, 19, 21]
9.191[18, 19, 22, 23, 25, 36, 20, 20]
9.213[19, 20, 22, 22, 26, 33, 20, 21]
9.244[19, 21, 21, 21, 26, 32, 22, 22]
9.258[20, 21, 22, 21, 26, 28, 21, 23]
9.273[20, 22, 22, 25, 25, 29, 21, 24]
9.296[20, 21, 22, 23, 24, 27, 21, 24]
9.311[20, 22, 21, 22, 24, 27, 21, 23]
9.333[20, 23, 22, 24, 23, 27, 19, 20]
9.356[19, 23, 21, 25, 24, 33, 20, 20]
9.371[19, 22, 20, 22, 25, 37, 20, 19]
9.393[19, 21, 19, 21, 26, 35, 21, 20]
9.416[19, 19, 20, 23, 25, 36, 21, 20]
9.431[20, 19, 19, 24, 27, 40, 22, 20]
9.454[21, 20, 19, 22, 26, 36, 21, 19]
9.484[21, 20, 19, 22, 24, 31, 22, 19]
9.498[22, 23, 19, 21, 23, 34, 22, 17]
9.513[23, 24, 17, 22, 26, 32, 24, 16]
9.536[22, 23, 19, 21, 24, 33, 23, 16]
9.551[24, 24, 21, 24, 29, 39, 24, 18]
9.573[49, 35, 32, 33, 39, 43, 49, 41]
9.596[88, 58, 44, 50, 64, 184, 203, 101]
9.61[109, 70, 55, 61, 78, 231, 230, 118]
9.633[111, 70, 56, 61, 81, 239, 237, 122]
9.656[118, 74, 59, 64, 91, 283, 271, 151]
9.67[117, 75, 56, 65, 98, 298, 300, 150]
9.693[91, 61, 49, 55, 89, 248, 253, 123]
9.716[69, 49, 39, 47, 84, 218, 241, 110]
9.732[88, 58, 44, 56, 90, 264, 337, 147]
9.753[101, 62, 44, 61, 91, 266, 328, 126]
9.776[100, 61, 43, 63, 85, 252, 308, 123]
9.815[103, 59, 41, 62, 82, 250, 317, 136]
9.816[106, 60, 41, 60, 74, 277, 334, 193]
9.836[90, 54, 36, 52, 65, 234, 239, 166]
9.858[66, 44, 29, 42, 48, 182, 217, 165]
9.873[58, 45, 27, 32, 41, 197, 219, 172]
9.897[53, 46, 27, 30, 40, 211, 203, 173]
9.918[48, 44, 27, 29, 41, 171, 183, 111]
9.933[42, 41, 26, 30, 42, 179, 194, 111]
9.956[54, 49, 29, 31, 44, 192, 222, 307]
9.978[66, 43, 30, 36, 43, 190, 231, 313]
9.993[67, 42, 32, 39, 44, 179, 229, 323]
10.016[63, 43, 32, 41, 44, 183, 213, 331]
10.038[64, 45, 33, 42, 47, 195, 207, 356]
10.053[103, 47, 36, 47, 53, 202, 257, 246]
10.076[105, 50, 41, 49, 61, 221, 259, 268]
10.098[105, 50, 40, 48, 60, 224, 245, 282]
10.113[108, 50, 43, 58, 76, 271, 290, 311]
10.144[121, 55, 45, 62, 93, 269, 346, 374]
10.158[102, 50, 46, 69, 95, 354, 382, 474]
10.174[164, 60, 42, 71, 99, 361, 450, 483]
10.196[184, 71, 46, 71, 101, 364, 467, 471]
10.218[191, 75, 46, 66, 93, 380, 455, 458]
10.233[206, 82, 49, 69, 89, 393, 442, 501]
10.256[205, 83, 48, 59, 85, 312, 428, 395]
10.278[153, 74, 46, 53, 77, 318, 373, 376]
10.293[139, 65, 45, 56, 84, 331, 364, 379]
10.316[141, 61, 43, 55, 84, 272, 369, 404]
10.338[115, 47, 38, 50, 70, 247, 399, 311]
10.353[199, 58, 39, 69, 90, 253, 371, 363]
10.384[220, 64, 40, 71, 94, 245, 395, 397]
10.398[221, 63, 42, 69, 91, 223, 439, 398]
10.414[221, 63, 43, 68, 90, 224, 435, 380]
10.436[256, 67, 50, 74, 106, 226, 425, 440]
10.458[237, 75, 54, 69, 123, 249, 473, 412]
10.473[262, 83, 55, 76, 133, 235, 491, 409]
10.496[277, 93, 58, 83, 147, 241, 531, 445]
10.518[346, 105, 61, 89, 157, 243, 553, 445]
10.541[423, 118, 62, 96, 166, 234, 581, 389]
10.556[473, 123, 63, 94, 151, 241, 604, 393]
10.578[459, 120, 65, 90, 144, 243, 589, 393]
10.595[465, 119, 61, 83, 131, 232, 542, 384]
10.624[424, 112, 60, 79, 117, 233, 538, 429]
10.638[387, 109, 56, 65, 94, 239, 489, 410]
10.653[359, 106, 53, 58, 78, 210, 421, 439]
10.676[362, 104, 51, 57, 69, 188, 422, 427]
10.707[351, 97, 51, 62, 75, 188, 416, 398]
10.713[388, 99, 50, 60, 76, 179, 395, 400]
10.736[330, 87, 47, 57, 71, 172, 398, 403]
10.759[267, 65, 41, 59, 77, 176, 430, 354]
10.789[252, 61, 42, 60, 77, 167, 504, 377]
10.796[244, 63, 43, 55, 72, 161, 492, 369]
10.819[163, 54, 41, 58, 75, 157, 481, 315]
10.842[161, 51, 38, 56, 73, 152, 516, 315]
10.856[159, 60, 38, 53, 67, 118, 477, 406]
10.879[319, 80, 38, 63, 86, 128, 437, 377]
10.901[338, 89, 37, 61, 81, 124, 433, 392]
10.916[335, 88, 40, 59, 77, 128, 482, 381]
10.939[341, 89, 45, 60, 77, 135, 463, 395]
10.961[396, 85, 47, 62, 79, 153, 466, 431]
10.984[345, 69, 49, 64, 68, 144, 403, 473]
10.999[351, 57, 47, 62, 68, 140, 395, 470]
11.021[375, 62, 44, 61, 68, 141, 385, 512]
11.036[387, 63, 40, 59, 65, 128, 346, 510]
11.059[342, 62, 36, 55, 65, 108, 335, 430]
11.081[293, 59, 37, 43, 58, 131, 359, 418]
11.096[276, 56, 39, 43, 54, 132, 377, 428]
11.119[246, 53, 40, 44, 58, 125, 317, 376]
11.149[208, 50, 41, 47, 61, 120, 321, 344]
11.155[209, 50, 41, 48, 60, 119, 340, 333]
11.179[192, 48, 33, 43, 54, 88, 317, 272]
11.201[161, 49, 35, 43, 54, 81, 288, 229]
11.215[156, 46, 36, 43, 54, 85, 291, 223]
11.239[179, 44, 34, 38, 48, 83, 285, 281]
11.261[250, 56, 41, 47, 58, 89, 282, 327]
11.284[361, 62, 42, 49, 62, 92, 263, 424]
11.299[372, 63, 43, 54, 70, 97, 294, 453]
11.321[385, 66, 41, 55, 72, 98, 305, 496]
11.344[402, 66, 44, 57, 74, 100, 304, 496]
11.359[382, 59, 44, 59, 67, 112, 299, 472]
11.381[299, 60, 48, 64, 68, 137, 338, 427]
11.396[291, 58, 47, 62, 61, 139, 323, 413]
11.426[287, 59, 46, 60, 58, 140, 344, 383]
11.441[250, 58, 45, 59, 56, 148, 356, 344]
11.456[196, 53, 40, 49, 56, 132, 319, 332]
11.479[183, 47, 36, 38, 52, 115, 303, 304]
11.501[184, 51, 38, 38, 56, 122, 322, 319]
11.516[165, 54, 43, 45, 58, 118, 290, 295]
11.539[243, 55, 43, 47, 58, 108, 302, 392]
11.561[274, 54, 42, 47, 57, 112, 324, 464]
11.576[267, 54, 43, 51, 58, 113, 339, 456]
11.599[272, 50, 41, 48, 54, 101, 340, 441]
11.621[287, 52, 39, 40, 51, 102, 352, 468]
11.636[239, 52, 37, 39, 52, 99, 330, 405]
11.659[210, 52, 38, 35, 49, 94, 311, 312]
11.682[240, 50, 38, 36, 49, 75, 259, 342]
11.704[245, 53, 37, 42, 54, 93, 250, 362]
11.719[225, 45, 33, 43, 58, 98, 267, 350]
11.741[223, 44, 33, 43, 60, 99, 239, 342]
11.764[237, 50, 40, 47, 62, 109, 367, 381]
11.779[240, 50, 40, 47, 68, 122, 385, 413]
11.802[233, 48, 39, 44, 65, 111, 379, 407]
11.824[237, 46, 39, 42, 59, 110, 354, 391]
11.838[242, 45, 39, 43, 56, 116, 398, 384]
11.861[223, 37, 31, 40, 57, 110, 341, 370]
11.884[228, 40, 30, 40, 51, 103, 336, 313]
11.899[224, 42, 31, 42, 54, 99, 325, 315]
11.922[229, 43, 32, 46, 67, 95, 354, 316]
11.951[224, 44, 31, 46, 74, 93, 327, 325]
11.959[264, 47, 31, 45, 72, 97, 348, 345]
11.981[254, 44, 31, 42, 72, 93, 367, 348]
12.011[276, 50, 34, 43, 71, 98, 391, 349]
12.019[269, 50, 34, 41, 61, 110, 371, 345]
12.041[270, 53, 35, 41, 55, 112, 371, 358]
12.064[236, 53, 38, 43, 56, 104, 344, 311]
12.086[214, 56, 38, 43, 56, 107, 331, 335]
12.101[240, 58, 38, 42, 52, 104, 312, 334]
12.124[257, 60, 37, 44, 54, 99, 331, 337]
12.147[247, 58, 36, 44, 54, 93, 328, 302]
12.161[258, 59, 36, 42, 54, 91, 272, 333]
12.184[261, 56, 36, 46, 51, 83, 253, 291]
12.206[224, 50, 36, 45, 51, 98, 312, 346]
12.221[209, 49, 37, 43, 47, 88, 295, 349]
12.244[272, 56, 40, 47, 57, 115, 288, 420]
12.258[254, 51, 38, 47, 55, 114, 289, 390]
12.281[238, 50, 37, 44, 53, 117, 277, 391]
12.304[229, 45, 33, 43, 51, 106, 198, 342]
12.318[253, 45, 34, 42, 54, 115, 263, 387]
12.341[183, 36, 32, 37, 45, 89, 284, 324]
12.371[187, 35, 34, 36, 46, 96, 297, 323]
12.378[191, 38, 33, 35, 44, 96, 298, 312]
12.401[183, 40, 33, 35, 43, 89, 286, 291]
12.424[227, 47, 32, 39, 43, 79, 225, 252]
12.462[287, 55, 34, 46, 50, 106, 277, 395]
12.469[304, 57, 33, 50, 52, 116, 324, 405]
12.484[313, 57, 33, 54, 64, 119, 346, 416]
12.506[319, 57, 34, 53, 66, 122, 346, 415]
12.521[320, 51, 38, 55, 70, 130, 376, 512]
12.544[263, 43, 39, 55, 71, 111, 335, 406]
12.566[302, 59, 50, 72, 111, 182, 379, 447]
12.589[296, 59, 50, 71, 107, 183, 361, 445]
12.604[292, 59, 50, 70, 107, 184, 361, 448]
12.626[234, 56, 46, 65, 105, 181, 323, 373]
12.649[233, 56, 42, 60, 101, 181, 332, 400]
12.671[161, 41, 29, 37, 56, 99, 258, 342]
12.686[148, 40, 28, 35, 57, 102, 264, 335]
12.702[139, 41, 28, 38, 61, 108, 270, 384]
12.731[130, 42, 31, 38, 58, 108, 281, 369]
12.746[121, 41, 31, 38, 57, 100, 252, 336]
12.762[93, 44, 34, 37, 51, 94, 221, 341]
12.783[121, 49, 38, 45, 61, 96, 223, 367]
12.805[136, 53, 40, 47, 55, 101, 231, 326]
12.822[127, 55, 39, 50, 54, 104, 227, 279]
12.844[134, 53, 38, 49, 56, 104, 236, 276]
12.866[138, 47, 35, 49, 56, 108, 224, 282]
12.882[119, 48, 36, 38, 41, 94, 250, 303]
12.904[127, 46, 37, 33, 42, 80, 252, 296]
12.927[129, 48, 40, 32, 43, 78, 251, 314]
12.942[125, 49, 40, 33, 43, 78, 232, 313]
12.963[132, 50, 40, 33, 44, 77, 223, 310]
12.985[176, 46, 38, 35, 45, 84, 303, 264]
13.002[177, 42, 35, 34, 43, 88, 371, 262]
13.023[178, 39, 32, 38, 47, 84, 380, 257]
13.046[176, 38, 33, 40, 48, 84, 382, 248]
13.062[163, 38, 31, 39, 47, 82, 384, 261]
13.09[134, 34, 27, 38, 47, 73, 324, 266]
13.105[125, 37, 28, 38, 47, 75, 253, 269]
13.122[126, 40, 27, 32, 45, 69, 259, 270]
13.143[129, 43, 27, 27, 41, 69, 255, 278]
13.173[130, 43, 29, 30, 47, 69, 256, 304]
13.19[108, 44, 33, 37, 51, 83, 234, 286]
13.204[92, 45, 31, 42, 61, 82, 267, 314]
13.226[106, 43, 32, 42, 62, 85, 264, 287]
13.242[107, 43, 33, 46, 64, 89, 287, 283]
13.263[109, 45, 31, 49, 65, 92, 302, 248]
13.287[108, 43, 29, 46, 61, 81, 295, 263]
13.302[114, 42, 30, 48, 54, 79, 279, 220]
13.324[119, 43, 31, 48, 51, 76, 271, 245]
13.345[122, 42, 32, 51, 55, 83, 250, 259]
13.362[124, 38, 33, 46, 54, 86, 235, 289]
13.384[133, 44, 36, 47, 56, 91, 235, 282]
13.405[123, 45, 37, 46, 59, 90, 200, 274]
13.422[97, 47, 40, 51, 67, 98, 171, 246]
13.443[87, 52, 42, 48, 65, 112, 169, 223]
13.465[238, 107, 43, 50, 62, 126, 168, 212]
13.482[261, 120, 46, 53, 67, 169, 180, 203]
13.503[263, 119, 43, 50, 66, 171, 163, 214]
13.527[267, 120, 38, 46, 62, 194, 179, 216]
13.542[271, 120, 37, 50, 72, 196, 178, 222]
13.563[156, 85, 36, 52, 79, 194, 167, 152]
13.586[105, 63, 32, 49, 75, 161, 151, 212]
13.608[104, 64, 34, 53, 77, 178, 160, 239]
13.623[96, 61, 36, 53, 75, 149, 152, 244]
13.647[84, 59, 36, 50, 67, 131, 148, 246]
13.668[72, 48, 34, 44, 59, 124, 141, 248]
13.69[66, 47, 33, 45, 62, 122, 145, 251]
13.705[61, 43, 30, 42, 60, 101, 152, 224]
13.728[60, 43, 30, 40, 58, 96, 176, 228]
13.743[62, 40, 30, 37, 54, 98, 171, 231]
13.766[60, 36, 30, 37, 52, 86, 171, 228]
13.788[62, 37, 33, 39, 48, 79, 163, 176]
13.803[83, 47, 34, 38, 49, 79, 148, 215]
13.825[227, 77, 39, 41, 56, 104, 121, 213]
13.848[239, 78, 39, 42, 57, 112, 123, 217]
13.863[242, 80, 43, 50, 74, 126, 133, 231]
13.887[246, 80, 43, 53, 77, 143, 152, 260]
13.908[244, 82, 47, 53, 75, 153, 185, 253]
13.924[124, 56, 44, 51, 77, 163, 208, 258]
13.953[118, 59, 43, 54, 75, 162, 220, 258]
13.969[151, 84, 46, 53, 72, 166, 233, 276]
13.999[151, 88, 48, 49, 66, 155, 269, 261]
14.005[152, 88, 46, 51, 68, 146, 262, 236]
14.036[158, 93, 49, 57, 74, 129, 244, 264]
14.05[149, 93, 51, 55, 79, 125, 251, 297]
14.066[110, 70, 45, 52, 69, 116, 262, 279]
14.088[102, 64, 42, 51, 72, 112, 253, 266]
14.104[104, 59, 40, 49, 71, 99, 276, 298]
14.125[106, 55, 36, 40, 58, 106, 298, 273]
14.149[101, 49, 32, 40, 54, 106, 285, 243]
14.164[109, 52, 33, 40, 54, 103, 301, 239]
14.187[114, 52, 32, 40, 50, 122, 295, 241]
14.208[105, 53, 32, 41, 46, 123, 261, 227]
14.23[91, 47, 33, 43, 58, 112, 251, 257]
14.253[105, 57, 40, 51, 64, 120, 312, 244]
14.268[102, 57, 42, 54, 69, 126, 312, 256]
14.283[101, 59, 43, 56, 75, 118, 344, 274]
14.314[95, 56, 45, 64, 87, 120, 345, 242]
14.336[96, 57, 42, 62, 81, 116, 339, 213]
14.343[84, 47, 37, 57, 76, 119, 303, 232]
14.367[80, 45, 35, 51, 68, 114, 296, 231]
14.396[71, 41, 32, 49, 63, 109, 230, 206]
14.41[78, 38, 29, 49, 47, 108, 228, 248]
14.427[85, 37, 30, 57, 46, 110, 235, 313]
14.449[81, 38, 32, 58, 45, 97, 245, 327]
14.464[84, 37, 34, 62, 52, 100, 242, 315]
14.494[91, 38, 36, 65, 55, 94, 248, 345]
14.508[83, 38, 35, 71, 60, 90, 268, 354]
14.53[74, 38, 35, 71, 64, 91, 279, 326]
14.547[75, 39, 37, 73, 63, 108, 316, 301]
14.577[63, 36, 35, 69, 62, 99, 291, 303]
14.591[53, 39, 33, 66, 59, 107, 292, 286]
14.607[56, 39, 33, 53, 58, 111, 284, 285]
14.644[69, 36, 33, 47, 53, 110, 261, 245]
14.65[155, 64, 28, 40, 53, 93, 188, 250]
14.674[202, 72, 28, 41, 48, 91, 180, 265]
14.688[218, 78, 35, 40, 50, 94, 218, 242]
14.719[223, 79, 35, 39, 46, 91, 206, 229]
14.725[226, 84, 35, 37, 44, 83, 192, 227]
14.756[192, 68, 35, 37, 47, 86, 209, 216]
14.771[159, 74, 35, 35, 48, 91, 225, 206]
14.787[171, 68, 28, 39, 51, 92, 207, 241]
14.808[178, 77, 31, 38, 58, 104, 212, 210]
14.83[173, 72, 29, 38, 62, 106, 218, 202]
14.847[170, 68, 28, 36, 59, 98, 186, 209]
14.868[181, 55, 27, 40, 62, 102, 182, 213]
14.892[179, 62, 29, 38, 58, 101, 175, 182]
14.905[180, 54, 29, 37, 52, 87, 167, 162]
14.928[203, 60, 30, 37, 51, 90, 155, 204]
14.95[212, 65, 31, 37, 54, 90, 156, 191]
14.965[233, 82, 33, 35, 50, 78, 139, 190]
14.988[283, 106, 37, 34, 47, 65, 108, 190]
15.011[283, 108, 36, 34, 44, 73, 101, 187]
15.025[284, 107, 36, 32, 40, 65, 104, 140]
15.048[280, 112, 37, 35, 43, 64, 138, 187]
15.071[251, 102, 35, 33, 41, 63, 130, 163]
15.085[179, 76, 35, 36, 47, 63, 124, 164]
15.108[200, 78, 37, 37, 48, 58, 136, 239]
15.13[181, 76, 37, 39, 49, 60, 135, 246]
15.147[164, 66, 38, 41, 49, 72, 108, 214]
15.169[175, 66, 38, 42, 52, 75, 108, 253]
15.19[184, 69, 38, 41, 50, 94, 150, 249]
15.205[157, 63, 36, 44, 57, 98, 145, 192]
15.228[165, 68, 37, 44, 55, 97, 145, 185]
15.259[176, 70, 36, 40, 50, 88, 140, 204]
15.265[173, 68, 35, 40, 51, 109, 157, 199]
15.288[175, 76, 33, 38, 49, 110, 135, 199]
15.31[195, 85, 31, 33, 39, 106, 133, 187]
15.325[184, 80, 28, 29, 39, 107, 130, 188]
15.356[180, 79, 29, 28, 39, 110, 128, 163]
15.37[174, 81, 28, 28, 39, 93, 112, 105]
15.387[156, 65, 23, 27, 39, 75, 127, 191]
15.408[147, 64, 32, 28, 44, 77, 154, 223]
15.43[146, 67, 34, 33, 51, 81, 154, 225]
15.455[163, 71, 35, 34, 54, 91, 165, 231]
15.476[167, 67, 37, 39, 53, 87, 162, 229]
15.49[179, 78, 40, 39, 52, 81, 132, 170]
15.514[163, 64, 33, 37, 48, 75, 105, 161]
15.536[179, 75, 32, 35, 43, 76, 112, 167]
15.55[163, 71, 31, 35, 41, 62, 101, 237]
15.574[151, 70, 31, 31, 41, 85, 101, 242]
15.588[136, 56, 31, 32, 45, 92, 97, 234]
15.619[190, 76, 34, 33, 47, 96, 111, 242]
15.634[186, 70, 35, 33, 44, 117, 137, 232]
15.648[213, 71, 36, 34, 43, 122, 138, 190]
15.671[215, 72, 35, 34, 42, 107, 133, 225]
15.693[237, 74, 35, 35, 39, 104, 133, 229]
15.716[210, 56, 34, 35, 43, 103, 118, 205]
15.731[205, 48, 33, 35, 43, 78, 85, 212]
15.754[177, 51, 31, 32, 41, 67, 87, 220]
15.769[177, 52, 30, 31, 41, 67, 106, 241]
15.799[156, 57, 29, 29, 39, 67, 116, 243]
15.814[146, 62, 27, 29, 37, 67, 121, 237]
15.828[161, 67, 27, 28, 38, 69, 128, 240]
15.85[175, 72, 30, 31, 41, 76, 124, 253]
15.874[207, 73, 28, 30, 40, 75, 112, 229]
15.896[198, 71, 29, 30, 40, 71, 108, 272]
15.919[215, 67, 29, 32, 39, 71, 107, 286]
15.934[233, 67, 30, 38, 46, 73, 98, 285]
15.948[257, 70, 30, 37, 46, 64, 93, 247]
15.979[253, 72, 32, 39, 49, 74, 109, 215]
15.994[254, 73, 33, 41, 50, 74, 107, 142]
16.008[230, 72, 34, 39, 48, 71, 110, 227]
16.031[220, 85, 33, 39, 43, 66, 114, 304]
16.062[200, 77, 33, 40, 44, 68, 126, 329]
16.068[183, 83, 34, 42, 47, 70, 126, 345]
16.092[189, 90, 34, 41, 47, 71, 129, 355]
16.121[204, 103, 32, 43, 52, 74, 122, 294]
16.128[181, 90, 34, 37, 50, 73, 117, 221]
16.151[185, 96, 34, 36, 49, 73, 119, 224]
16.174[182, 94, 33, 30, 42, 59, 121, 219]
16.188[182, 85, 30, 29, 40, 60, 118, 216]
16.211[165, 72, 30, 26, 36, 63, 126, 229]
16.234[166, 74, 29, 29, 36, 62, 127, 219]
16.256[140, 70, 30, 29, 35, 61, 114, 173]
16.279[166, 68, 31, 28, 38, 66, 103, 163]
16.294[168, 72, 34, 36, 42, 71, 113, 249]
16.317[171, 71, 35, 34, 40, 75, 116, 245]
16.339[186, 77, 34, 33, 39, 84, 120, 250]
16.354[181, 73, 33, 35, 42, 91, 118, 253]
16.368[149, 69, 30, 36, 43, 89, 134, 252]
16.399[154, 63, 27, 29, 39, 90, 139, 259]
16.413[178, 72, 30, 31, 40, 80, 134, 259]
16.436[175, 69, 29, 30, 39, 78, 154, 259]
16.451[173, 68, 32, 28, 36, 68, 157, 265]
16.481[171, 67, 32, 30, 35, 68, 146, 260]
16.496[153, 70, 34, 29, 32, 61, 134, 181]
16.52[144, 68, 32, 27, 31, 63, 136, 223]
16.534[159, 62, 31, 29, 34, 62, 113, 216]
16.564[196, 72, 27, 31, 35, 66, 119, 211]
16.571[206, 72, 29, 29, 38, 77, 127, 212]
16.594[210, 69, 29, 29, 39, 77, 138, 191]
16.616[194, 59, 28, 31, 40, 77, 146, 187]
16.631[167, 59, 29, 30, 39, 68, 144, 235]
16.654[143, 57, 33, 29, 36, 69, 144, 237]
16.676[136, 57, 33, 28, 31, 60, 127, 237]
16.699[131, 57, 32, 28, 32, 62, 118, 245]
16.714[128, 56, 32, 28, 31, 61, 94, 200]
16.736[142, 65, 33, 31, 33, 69, 108, 221]
16.759[141, 60, 32, 34, 41, 75, 130, 232]
16.774[173, 67, 33, 35, 44, 75, 137, 261]
16.796[177, 70, 32, 36, 46, 77, 141, 267]
16.811[179, 70, 32, 37, 47, 78, 141, 276]
16.841[178, 57, 31, 36, 49, 73, 133, 239]
16.856[176, 59, 31, 34, 45, 61, 112, 223]
16.871[149, 51, 28, 32, 43, 55, 115, 196]
16.894[145, 47, 28, 29, 41, 55, 103, 181]
16.924[147, 49, 27, 29, 39, 54, 120, 197]
16.93[147, 49, 26, 32, 41, 54, 129, 198]
16.953[147, 47, 23, 32, 39, 60, 128, 257]
16.976[143, 48, 26, 43, 52, 83, 120, 255]
16.99[144, 49, 26, 43, 53, 80, 123, 255]
17.014[159, 52, 27, 44, 53, 82, 107, 240]
17.037[153, 58, 27, 42, 53, 89, 90, 213]
17.05[153, 64, 30, 41, 55, 88, 97, 131]
17.074[160, 63, 30, 32, 42, 71, 105, 155]
17.096[161, 63, 31, 33, 43, 70, 103, 164]
17.119[150, 63, 29, 34, 47, 68, 107, 160]
17.141[158, 68, 32, 34, 50, 65, 100, 167]
17.156[158, 63, 32, 35, 48, 65, 85, 175]
17.171[153, 62, 29, 33, 47, 61, 91, 140]
17.201[156, 66, 29, 34, 50, 75, 133, 146]
17.216[158, 65, 31, 32, 46, 75, 140, 178]
17.238[163, 65, 34, 33, 39, 69, 152, 232]
17.253[166, 69, 31, 32, 37, 66, 152, 236]
17.276[177, 71, 34, 36, 39, 64, 147, 240]
17.291[172, 66, 34, 36, 34, 43, 109, 233]
17.314[173, 67, 30, 35, 34, 38, 96, 204]
17.336[167, 60, 26, 33, 33, 37, 76, 157]
17.35[160, 61, 26, 34, 34, 43, 70, 143]
17.381[172, 63, 31, 49, 52, 70, 174, 222]
17.396[170, 64, 30, 49, 52, 71, 181, 219]
17.426[184, 69, 34, 52, 57, 85, 187, 245]
17.434[173, 63, 33, 54, 58, 89, 189, 241]
17.464[222, 75, 37, 61, 74, 102, 206, 267]
17.479[210, 72, 33, 48, 66, 89, 125, 208]
17.494[219, 72, 34, 49, 68, 91, 116, 204]
17.516[205, 68, 32, 46, 64, 82, 107, 184]
17.546[205, 69, 32, 43, 63, 77, 103, 175]
17.561[151, 48, 30, 32, 47, 54, 61, 158]
17.576[182, 70, 28, 30, 41, 50, 57, 152]
17.623[357, 130, 36, 30, 46, 88, 132, 185]
17.624[373, 133, 36, 30, 48, 90, 137, 180]
17.644[379, 135, 36, 32, 48, 97, 139, 176]
17.673[377, 134, 34, 30, 45, 97, 141, 151]
17.683[362, 124, 35, 30, 43, 96, 141, 152]
17.696[213, 65, 28, 33, 40, 66, 95, 163]
17.726[212, 63, 28, 35, 38, 62, 90, 158]
17.734[221, 66, 29, 35, 37, 54, 90, 172]
17.757[220, 66, 32, 41, 49, 60, 92, 181]
17.778[208, 66, 33, 41, 51, 61, 92, 193]
17.794[198, 69, 33, 39, 46, 52, 74, 170]
17.817[198, 70, 39, 38, 44, 46, 74, 204]
17.839[173, 63, 37, 39, 44, 49, 76, 203]
17.855[186, 70, 37, 33, 29, 43, 74, 212]
17.875[197, 70, 37, 34, 28, 46, 78, 226]
17.898[233, 83, 37, 36, 37, 53, 80, 251]
17.922[207, 77, 30, 37, 39, 54, 73, 221]
17.935[214, 89, 31, 35, 39, 53, 71, 233]
17.959[209, 83, 28, 36, 39, 51, 76, 226]
17.974[217, 94, 28, 34, 41, 52, 85, 238]
18.003[173, 77, 26, 30, 35, 53, 83, 217]
18.018[181, 79, 26, 27, 34, 57, 86, 235]
18.034[187, 70, 30, 30, 39, 58, 96, 254]
18.055[183, 70, 30, 30, 41, 59, 92, 258]
18.085[180, 57, 29, 32, 39, 57, 80, 226]
18.094[175, 66, 31, 31, 38, 54, 94, 272]
18.117[201, 64, 37, 39, 44, 63, 113, 329]
18.138[208, 71, 36, 40, 45, 73, 170, 329]
18.154[238, 72, 38, 42, 51, 89, 202, 379]
18.175[245, 81, 41, 43, 56, 101, 219, 392]
18.199[260, 76, 40, 46, 61, 116, 324, 395]
18.228[281, 86, 36, 40, 59, 122, 424, 359]
18.235[337, 92, 36, 39, 59, 133, 496, 373]
18.258[345, 97, 35, 42, 61, 131, 494, 399]
18.282[332, 89, 38, 45, 62, 138, 508, 396]
18.295[322, 88, 39, 44, 61, 129, 453, 361]
18.318[302, 84, 43, 47, 61, 138, 365, 364]
18.342[227, 76, 42, 48, 59, 134, 236, 339]
18.363[193, 67, 42, 43, 54, 139, 230, 273]
18.378[205, 69, 38, 38, 49, 135, 196, 289]
18.401[204, 70, 38, 44, 50, 146, 182, 284]
18.423[197, 73, 34, 43, 51, 140, 190, 282]
18.446[225, 69, 33, 43, 54, 140, 205, 324]
18.46[234, 72, 35, 47, 58, 146, 239, 372]
18.477[230, 75, 35, 48, 62, 140, 264, 359]
18.498[233, 74, 32, 40, 58, 135, 285, 371]
18.52[218, 64, 33, 38, 56, 125, 274, 364]
18.536[199, 59, 31, 34, 52, 118, 265, 355]
18.559[205, 63, 34, 34, 47, 113, 301, 364]
18.58[218, 59, 35, 35, 47, 110, 306, 385]
18.595[203, 58, 37, 38, 54, 103, 298, 397]
18.619[212, 54, 38, 38, 52, 99, 295, 384]
18.642[233, 77, 41, 40, 54, 113, 297, 381]
18.655[229, 80, 39, 41, 59, 108, 335, 367]
18.678[219, 79, 37, 39, 69, 118, 335, 414]
18.7[224, 78, 35, 37, 74, 122, 332, 401]
18.723[220, 84, 34, 37, 76, 123, 346, 411]
18.738[186, 65, 31, 37, 75, 131, 345, 381]
18.76[197, 65, 29, 32, 69, 153, 240, 326]
18.784[245, 75, 39, 36, 58, 182, 213, 306]
18.798[289, 79, 42, 41, 56, 183, 208, 299]
18.82[305, 75, 43, 42, 57, 188, 180, 296]
18.837[313, 76, 42, 42, 61, 178, 172, 293]
18.865[294, 67, 43, 45, 68, 153, 162, 296]
18.897[258, 64, 34, 41, 80, 126, 136, 245]
18.898[208, 58, 30, 38, 74, 118, 127, 242]
18.919[180, 60, 30, 39, 78, 120, 125, 280]
18.94[165, 60, 31, 41, 80, 150, 108, 297]
18.956[168, 59, 30, 40, 77, 155, 100, 284]
18.98[182, 60, 30, 40, 75, 141, 123, 258]
19.009[184, 67, 35, 44, 77, 143, 131, 283]
19.016[232, 69, 34, 44, 84, 194, 149, 254]
19.038[237, 69, 32, 43, 80, 178, 150, 267]
19.062[230, 71, 31, 43, 79, 178, 155, 264]
19.075[219, 82, 36, 44, 87, 198, 146, 259]
19.099[224, 78, 33, 41, 85, 215, 139, 225]
19.12[231, 77, 39, 46, 89, 181, 121, 223]
19.143[231, 76, 40, 45, 89, 190, 148, 181]
19.158[283, 95, 40, 42, 93, 223, 157, 253]
19.181[311, 84, 36, 41, 80, 206, 146, 250]
19.203[308, 83, 34, 40, 84, 206, 146, 250]
19.225[282, 84, 28, 39, 73, 212, 160, 238]
19.242[296, 89, 30, 41, 77, 209, 136, 254]
19.263[247, 67, 33, 43, 74, 173, 121, 176]
19.279[195, 61, 32, 43, 67, 179, 119, 164]
19.309[236, 68, 36, 51, 73, 168, 118, 154]
19.323[232, 65, 34, 46, 67, 175, 95, 141]
19.339[247, 65, 35, 47, 64, 181, 99, 131]
19.369[260, 77, 34, 49, 64, 191, 121, 177]
19.391[267, 78, 33, 48, 67, 207, 119, 202]
19.398[252, 86, 31, 42, 53, 276, 139, 211]
19.422[271, 91, 37, 47, 65, 371, 204, 224]
19.452[238, 85, 36, 43, 61, 366, 201, 209]
19.458[252, 81, 35, 39, 58, 361, 191, 212]
19.48[268, 85, 39, 39, 55, 350, 206, 288]
19.503[252, 76, 37, 36, 56, 323, 192, 294]
19.518[236, 73, 35, 33, 48, 207, 141, 357]
19.54[243, 73, 35, 33, 51, 203, 139, 363]
19.563[221, 68, 37, 38, 55, 201, 135, 355]
19.586[235, 59, 35, 40, 58, 201, 114, 291]
19.6[241, 64, 35, 41, 59, 151, 123, 312]
19.623[233, 59, 34, 41, 56, 117, 104, 232]
19.648[230, 64, 31, 41, 56, 101, 109, 251]
19.668[254, 70, 30, 38, 51, 135, 113, 303]
19.683[247, 79, 31, 37, 52, 160, 111, 330]
19.699[259, 73, 31, 37, 48, 175, 102, 325]
19.728[252, 75, 32, 35, 49, 174, 99, 350]
19.751[296, 77, 35, 36, 47, 175, 90, 332]
19.758[272, 74, 34, 35, 45, 147, 81, 318]
19.78[256, 63, 30, 31, 39, 114, 77, 287]
19.811[228, 60, 31, 31, 43, 79, 67, 261]
19.818[224, 56, 27, 30, 41, 70, 59, 228]
19.841[155, 51, 24, 27, 38, 67, 62, 244]
19.863[187, 48, 22, 27, 40, 59, 76, 248]
19.893[171, 52, 22, 26, 40, 59, 87, 237]
19.9[172, 52, 23, 24, 33, 53, 92, 238]
19.923[182, 54, 28, 19, 28, 51, 96, 232]
19.946[179, 51, 28, 22, 30, 44, 94, 212]
19.96[141, 53, 31, 24, 26, 41, 82, 131]
19.983[129, 50, 32, 26, 34, 32, 76, 223]
20.006[126, 49, 32, 29, 41, 34, 69, 222]
20.02[109, 51, 28, 30, 44, 35, 65, 225]
20.043[112, 65, 28, 31, 46, 34, 61, 224]
20.059[117, 67, 25, 33, 57, 36, 88, 304]
20.089[116, 67, 24, 37, 56, 37, 85, 250]
20.104[111, 69, 24, 39, 58, 34, 95, 276]
20.118[104, 65, 26, 42, 73, 33, 100, 292]
20.14[82, 49, 27, 49, 81, 33, 103, 296]
20.171[52, 41, 27, 50, 83, 32, 88, 248]
20.178[45, 37, 28, 51, 91, 32, 83, 244]
20.209[41, 29, 28, 48, 87, 32, 79, 225]
20.223[38, 29, 25, 47, 77, 30, 70, 199]
20.253[35, 27, 22, 41, 68, 31, 66, 193]
20.26[37, 25, 24, 44, 74, 33, 86, 271]
20.283[37, 24, 24, 40, 64, 30, 87, 275]
20.313[35, 24, 23, 45, 69, 31, 81, 267]
20.321[33, 22, 24, 55, 80, 35, 82, 268]
20.351[33, 20, 26, 58, 93, 38, 82, 267]
20.366[27, 20, 27, 67, 108, 38, 44, 123]
20.38[28, 20, 26, 76, 114, 43, 57, 170]
20.403[26, 20, 27, 74, 114, 42, 56, 163]
20.426[25, 21, 27, 75, 113, 40, 54, 160]
20.448[30, 24, 31, 103, 123, 48, 71, 213]
20.463[35, 25, 31, 103, 111, 51, 76, 236]
20.487[36, 24, 31, 97, 109, 48, 76, 236]
20.5[38, 26, 30, 97, 108, 49, 77, 243]
20.532[50, 25, 30, 92, 107, 50, 95, 308]
20.546[51, 25, 29, 75, 115, 39, 87, 302]
20.56[51, 21, 27, 69, 114, 32, 82, 287]
20.583[50, 24, 28, 86, 120, 34, 76, 262]
20.613[51, 25, 30, 93, 140, 39, 79, 270]
20.62[40, 26, 33, 95, 135, 39, 60, 202]
20.644[40, 26, 31, 89, 116, 45, 65, 205]
20.673[37, 28, 32, 91, 109, 45, 81, 245]
20.681[34, 29, 31, 91, 119, 43, 77, 240]
20.704[33, 28, 29, 84, 94, 37, 73, 225]
20.726[29, 26, 25, 81, 92, 34, 70, 215]
20.741[25, 24, 25, 71, 84, 24, 60, 171]
20.763[21, 22, 22, 62, 79, 23, 34, 95]
20.786[20, 20, 21, 30, 34, 20, 31, 79]
20.808[26, 19, 22, 31, 31, 23, 47, 157]
20.823[29, 22, 23, 28, 28, 27, 49, 161]
20.846[31, 23, 22, 30, 32, 28, 62, 206]
20.86[32, 24, 22, 33, 34, 27, 65, 207]
20.891[32, 23, 23, 33, 31, 28, 67, 212]
20.913[26, 22, 23, 33, 31, 27, 55, 157]
20.92[25, 22, 22, 32, 30, 25, 57, 162]
20.943[25, 20, 21, 29, 28, 24, 57, 164]
20.974[26, 19, 22, 28, 27, 30, 55, 167]
20.981[30, 21, 22, 29, 29, 34, 69, 211]
21.003[31, 22, 21, 27, 30, 33, 69, 215]
21.026[32, 21, 22, 29, 34, 31, 70, 210]
21.04[30, 23, 21, 29, 35, 30, 59, 163]
21.063[29, 23, 22, 27, 36, 29, 67, 198]
21.086[26, 24, 20, 24, 37, 28, 52, 156]
21.1[26, 24, 22, 26, 37, 29, 52, 152]
21.123[29, 23, 20, 23, 32, 28, 59, 177]
21.146[28, 23, 22, 24, 30, 30, 61, 195]
21.168[27, 23, 21, 24, 28, 26, 54, 163]
21.183[27, 21, 21, 25, 26, 21, 54, 153]
21.206[30, 19, 20, 23, 25, 21, 57, 186]
21.229[28, 19, 22, 22, 27, 23, 50, 187]
21.251[30, 20, 21, 22, 25, 23, 54, 195]
21.274[30, 20, 22, 21, 24, 25, 54, 193]
21.288[31, 21, 21, 21, 23, 24, 52, 198]
21.303[28, 23, 20, 21, 23, 23, 49, 170]
21.333[25, 24, 19, 22, 21, 23, 43, 143]
21.349[29, 25, 20, 22, 22, 22, 56, 157]
21.363[35, 23, 20, 23, 22, 26, 84, 223]
21.386[35, 23, 21, 23, 22, 27, 87, 229]
21.408[34, 22, 20, 23, 21, 28, 88, 226]
21.423[35, 21, 21, 23, 21, 29, 90, 228]
21.446[30, 19, 21, 22, 21, 28, 78, 193]
21.468[25, 18, 19, 20, 20, 24, 44, 101]
21.484[24, 20, 20, 21, 21, 23, 37, 70]
21.506[28, 18, 22, 20, 23, 21, 53, 141]
21.529[27, 21, 21, 19, 24, 21, 52, 156]
21.543[27, 22, 21, 22, 25, 27, 55, 161]
21.566[29, 24, 22, 23, 29, 30, 74, 222]
21.589[30, 25, 20, 21, 28, 30, 75, 224]
21.611[27, 25, 20, 21, 27, 31, 72, 205]
21.626[27, 21, 20, 21, 28, 31, 72, 192]
21.649[28, 22, 19, 19, 26, 26, 76, 220]
21.663[27, 21, 17, 17, 22, 23, 57, 163]
21.686[26, 20, 20, 18, 24, 25, 58, 165]
21.709[27, 20, 20, 19, 24, 25, 45, 143]
21.723[27, 20, 20, 21, 22, 26, 44, 143]
21.746[25, 18, 20, 20, 24, 24, 34, 91]
21.769[23, 20, 20, 21, 25, 24, 32, 75]
21.783[22, 19, 19, 21, 23, 23, 29, 65]
21.806[26, 20, 19, 21, 24, 22, 45, 142]
21.828[31, 22, 18, 20, 24, 22, 66, 209]
21.843[32, 23, 18, 21, 21, 23, 71, 217]
21.866[33, 20, 17, 22, 20, 25, 74, 225]
21.888[33, 21, 19, 23, 20, 25, 75, 226]
21.903[29, 19, 20, 22, 19, 26, 68, 188]
21.926[23, 19, 20, 22, 19, 25, 45, 105]
21.948[30, 18, 21, 19, 20, 25, 72, 241]
21.971[30, 20, 22, 19, 19, 23, 75, 250]
21.986[33, 20, 21, 19, 19, 21, 80, 258]
22.008[34, 21, 21, 19, 21, 22, 81, 261]
22.031[33, 20, 22, 20, 19, 25, 81, 264]
22.046[25, 19, 21, 21, 20, 26, 55, 143]
22.068[24, 18, 23, 20, 20, 26, 49, 114]
22.083[23, 19, 22, 19, 20, 26, 41, 95]
22.106[25, 19, 22, 19, 19, 26, 49, 158]
22.128[29, 20, 22, 19, 22, 27, 64, 195]
22.151[29, 20, 22, 19, 21, 28, 62, 198]
22.166[29, 21, 21, 19, 22, 30, 61, 201]
22.196[29, 23, 20, 19, 22, 30, 61, 203]
22.211[25, 24, 20, 19, 23, 30, 53, 156]
22.226[22, 23, 19, 19, 20, 27, 34, 97]
22.248[25, 25, 19, 18, 21, 25, 46, 152]
22.279[23, 23, 18, 18, 20, 23, 47, 156]
22.286[32, 21, 18, 19, 22, 27, 94, 270]
22.308[32, 22, 18, 20, 21, 27, 96, 274]
22.331[33, 22, 19, 19, 21, 28, 98, 277]
22.347[31, 21, 18, 19, 20, 30, 93, 250]
22.369[33, 21, 19, 19, 21, 29, 93, 246]
22.391[27, 21, 20, 20, 19, 25, 55, 141]
22.406[29, 22, 21, 19, 20, 29, 56, 171]
22.428[31, 21, 20, 20, 23, 29, 73, 222]
22.451[36, 22, 22, 22, 24, 30, 81, 243]
22.466[35, 22, 20, 23, 24, 30, 82, 244]
22.496[32, 22, 20, 22, 25, 30, 74, 224]
22.511[29, 20, 19, 22, 24, 27, 72, 194]
22.526[26, 18, 20, 21, 23, 24, 51, 125]
22.548[23, 18, 18, 23, 23, 24, 50, 147]
22.579[26, 18, 19, 21, 20, 25, 62, 174]
22.585[29, 18, 19, 21, 20, 26, 79, 200]
22.608[31, 18, 21, 21, 21, 27, 81, 208]
22.638[31, 19, 20, 22, 21, 29, 82, 212]
22.645[29, 19, 20, 18, 21, 27, 74, 170]
22.668[25, 19, 21, 20, 22, 27, 63, 139]
22.691[26, 20, 22, 20, 22, 25, 53, 159]
22.72[28, 20, 22, 19, 22, 24, 67, 198]
22.729[28, 20, 21, 18, 20, 25, 68, 202]
22.752[28, 19, 23, 18, 22, 25, 67, 201]
22.774[29, 19, 24, 19, 21, 25, 73, 206]
22.789[26, 17, 24, 20, 23, 26, 64, 169]
22.811[23, 17, 23, 21, 22, 24, 47, 110]
22.833[21, 17, 23, 21, 21, 21, 43, 94]
22.857[20, 18, 23, 20, 18, 21, 48, 89]
22.87[19, 19, 22, 18, 22, 20, 41, 82]
22.893[21, 18, 21, 18, 19, 22, 48, 150]
22.917[21, 19, 20, 19, 20, 23, 50, 157]
22.93[22, 19, 21, 20, 20, 24, 51, 160]
22.953[22, 19, 22, 21, 22, 24, 46, 159]
22.969[22, 19, 21, 19, 19, 23, 50, 159]
22.99[20, 21, 21, 21, 19, 21, 41, 87]
23.007[19, 21, 21, 19, 19, 20, 35, 66]
23.029[18, 20, 21, 18, 20, 20, 35, 57]
23.05[18, 19, 20, 19, 19, 19, 33, 51]
23.073[19, 19, 21, 22, 20, 18, 24, 33]
23.089[18, 17, 22, 20, 21, 18, 25, 26]
23.112[21, 18, 23, 23, 20, 20, 48, 139]
23.133[23, 19, 22, 23, 20, 18, 50, 146]
23.149[25, 21, 22, 20, 21, 19, 51, 150]
23.178[23, 21, 22, 19, 19, 20, 52, 153]
23.194[23, 22, 21, 18, 19, 19, 51, 155]
23.209[21, 20, 22, 18, 20, 17, 31, 76]
23.23[20, 21, 22, 17, 20, 17, 25, 62]
23.253[18, 20, 21, 18, 20, 19, 29, 53]
23.277[18, 22, 20, 18, 21, 19, 29, 44]
23.29[23, 22, 21, 18, 21, 20, 27, 37]
23.313[21, 22, 20, 18, 20, 22, 27, 31]
23.328[21, 21, 21, 20, 20, 22, 27, 29]
23.351[21, 22, 21, 19, 20, 20, 22, 25]
23.373[22, 20, 21, 20, 20, 20, 26, 27]
23.388[17, 19, 20, 21, 21, 20, 27, 25]
23.41[23, 21, 21, 20, 21, 20, 41, 138]
23.433[22, 19, 22, 18, 21, 20, 44, 146]
23.448[23, 20, 22, 19, 22, 20, 44, 151]
23.472[24, 21, 24, 18, 23, 20, 41, 153]
23.493[25, 20, 24, 18, 22, 20, 40, 155]
23.509[20, 18, 24, 19, 23, 20, 35, 80]
23.53[20, 18, 22, 20, 23, 20, 32, 66]
23.554[20, 18, 22, 19, 21, 20, 30, 55]
23.568[18, 20, 21, 18, 20, 20, 29, 46]
23.59[18, 20, 21, 18, 19, 20, 29, 39]
23.613[25, 22, 20, 17, 18, 20, 42, 142]
23.628[25, 22, 21, 16, 20, 20, 46, 150]
23.65[24, 22, 21, 17, 21, 19, 48, 155]
23.673[25, 20, 18, 19, 21, 20, 50, 158]
23.688[27, 21, 19, 19, 22, 20, 50, 161]
23.71[21, 18, 18, 19, 21, 17, 34, 84]
23.733[23, 18, 18, 19, 19, 21, 38, 69]
23.749[22, 18, 17, 19, 16, 21, 36, 59]
23.771[27, 19, 19, 17, 16, 20, 50, 155]
23.793[27, 19, 18, 17, 18, 22, 52, 159]
23.816[28, 20, 18, 17, 19, 22, 51, 161]
23.832[27, 21, 17, 18, 19, 19, 46, 162]
23.853[29, 21, 21, 19, 20, 21, 49, 166]
23.868[24, 20, 20, 20, 22, 21, 33, 77]
23.89[21, 21, 22, 19, 20, 21, 30, 64]
23.914[19, 19, 22, 19, 21, 21, 27, 53]
23.928[18, 21, 24, 19, 22, 21, 30, 46]
23.95[20, 20, 23, 19, 21, 20, 30, 99]
23.973[23, 20, 23, 19, 21, 20, 41, 142]
23.995[24, 20, 21, 20, 21, 20, 42, 148]
24.012[25, 23, 21, 20, 21, 20, 45, 153]
24.033[24, 23, 20, 21, 21, 19, 44, 155]
24.055[23, 24, 18, 19, 21, 19, 41, 128]
24.07[24, 24, 20, 22, 21, 21, 53, 122]
24.093[29, 24, 21, 23, 20, 24, 74, 214]
24.115[30, 24, 22, 23, 20, 22, 76, 221]
24.13[32, 22, 22, 22, 20, 25, 77, 227]
24.153[32, 22, 22, 22, 21, 25, 78, 229]
24.175[31, 22, 21, 21, 20, 24, 68, 210]
24.192[26, 22, 20, 21, 21, 20, 47, 111]
24.221[25, 20, 19, 22, 21, 21, 41, 89]
24.235[23, 21, 18, 23, 20, 19, 39, 70]
24.251[22, 20, 19, 24, 20, 18, 33, 54]
24.273[21, 19, 18, 24, 21, 18, 28, 48]
24.304[20, 16, 18, 23, 20, 18, 23, 34]
24.31[18, 17, 18, 23, 21, 19, 22, 32]
24.333[20, 16, 19, 23, 20, 18, 28, 36]
24.356[21, 17, 21, 23, 20, 18, 28, 32]
24.37[21, 18, 21, 22, 21, 19, 28, 31]
24.393[21, 19, 20, 20, 22, 20, 27, 31]
24.415[22, 19, 22, 19, 21, 20, 28, 30]
24.43[22, 22, 22, 19, 23, 19, 32, 129]
24.453[23, 21, 19, 19, 23, 20, 36, 138]
24.475[22, 23, 20, 20, 21, 20, 38, 142]
24.498[23, 24, 20, 21, 21, 20, 41, 145]
24.513[22, 23, 21, 20, 23, 20, 40, 147]
24.535[20, 22, 20, 20, 22, 20, 31, 75]
24.55[19, 22, 22, 19, 22, 19, 27, 57]
24.581[20, 22, 23, 18, 22, 16, 25, 48]
24.604[19, 22, 23, 19, 23, 19, 26, 44]
24.61[20, 24, 23, 19, 20, 17, 26, 38]
24.633[20, 22, 22, 18, 19, 18, 28, 35]
24.664[20, 22, 20, 18, 19, 18, 28, 32]
24.67[21, 20, 19, 19, 19, 19, 29, 32]
24.693[21, 19, 19, 18, 19, 15, 22, 20]
24.715[20, 18, 19, 19, 18, 16, 22, 21]
24.73[21, 19, 19, 21, 19, 17, 27, 26]
24.753[22, 18, 20, 21, 20, 17, 27, 25]
24.776[19, 19, 22, 21, 21, 16, 27, 24]
24.798[19, 19, 22, 20, 21, 19, 28, 25]
24.813[19, 18, 21, 22, 22, 20, 29, 26]
24.835[19, 19, 22, 22, 22, 20, 21, 20]
24.85[16, 20, 21, 22, 22, 19, 23, 20]
24.881[17, 21, 18, 21, 19, 20, 31, 25]
24.895[19, 20, 21, 22, 19, 18, 32, 28]
24.91[18, 20, 21, 20, 20, 18, 33, 28]
24.941[18, 20, 22, 20, 19, 19, 34, 27]
24.955[19, 20, 22, 18, 20, 22, 33, 28]
24.978[20, 22, 24, 19, 21, 22, 25, 24]
25.001[18, 24, 21, 20, 21, 23, 24, 20]
25.016[19, 27, 22, 20, 19, 23, 31, 27]
25.038[19, 26, 20, 21, 21, 20, 31, 28]
25.054[20, 26, 21, 21, 20, 19, 31, 29]
25.076[18, 24, 19, 22, 20, 18, 30, 28]
25.098[20, 23, 20, 20, 20, 19, 29, 27]
25.113[19, 20, 18, 21, 21, 19, 23, 22]
25.135[18, 20, 18, 20, 19, 20, 23, 21]
25.158[19, 19, 18, 20, 19, 20, 23, 20]
25.173[20, 20, 20, 21, 19, 19, 27, 26]
25.195[20, 19, 21, 20, 19, 19, 25, 25]
25.218[19, 19, 22, 20, 20, 18, 23, 26]
25.232[21, 22, 21, 19, 21, 19, 22, 27]
25.255[20, 23, 21, 19, 22, 19, 23, 27]
25.278[20, 22, 21, 18, 23, 21, 20, 22]
25.293[19, 22, 20, 19, 22, 20, 20, 23]
25.324[19, 22, 20, 18, 21, 21, 26, 24]
25.338[17, 20, 19, 19, 21, 21, 28, 26]
25.353[19, 18, 18, 20, 20, 20, 28, 26]
25.375[19, 19, 20, 20, 19, 19, 28, 26]
25.398[19, 20, 20, 20, 19, 21, 28, 28]
25.414[20, 19, 20, 18, 18, 21, 23, 25]
25.435[21, 20, 22, 19, 17, 21, 23, 23]
25.458[18, 20, 22, 18, 17, 22, 21, 24]
25.473[19, 20, 20, 18, 17, 21, 20, 22]
25.495[20, 20, 21, 17, 16, 19, 20, 19]
25.526[19, 21, 22, 18, 18, 19, 21, 20]
25.533[19, 21, 21, 18, 17, 19, 20, 19]
25.555[20, 21, 22, 19, 18, 18, 26, 25]
25.578[20, 21, 23, 19, 18, 18, 31, 27]
25.593[19, 21, 21, 20, 19, 19, 30, 28]
25.615[20, 19, 20, 19, 19, 18, 30, 28]
25.639[20, 19, 20, 19, 21, 19, 30, 27]
25.653[20, 19, 18, 18, 21, 18, 25, 22]
25.675[20, 18, 19, 19, 21, 18, 20, 21]
25.698[21, 19, 19, 20, 20, 20, 20, 23]
25.713[20, 18, 19, 21, 19, 20, 22, 22]
25.735[20, 19, 20, 21, 18, 19, 25, 29]
25.758[20, 20, 22, 21, 18, 19, 26, 29]
25.773[21, 20, 20, 21, 18, 19, 27, 30]
25.795[18, 19, 21, 21, 20, 21, 28, 29]
25.842[20, 21, 21, 21, 20, 21, 27, 29]
25.844[20, 20, 21, 21, 20, 21, 23, 22]
25.856[20, 20, 21, 21, 20, 21, 24, 21]
25.886[20, 19, 21, 21, 19, 22, 22, 19]
25.901[21, 20, 22, 22, 18, 18, 20, 19]
25.915[20, 19, 22, 22, 16, 17, 18, 18]
25.938[19, 23, 22, 21, 18, 17, 18, 19]
25.961[20, 23, 22, 21, 18, 17, 16, 20]
25.983[18, 25, 23, 21, 20, 16, 16, 20]
25.998[18, 24, 23, 19, 20, 18, 24, 25]
26.021[19, 24, 22, 18, 20, 19, 24, 26]
26.035[19, 21, 22, 20, 18, 19, 25, 25]
26.059[19, 20, 21, 21, 19, 20, 25, 25]
26.081[20, 19, 18, 21, 19, 21, 26, 26]
26.104[21, 20, 18, 21, 20, 20, 19, 21]
26.119[19, 19, 19, 23, 22, 20, 20, 20]
26.148[18, 20, 19, 23, 23, 19, 20, 22]
26.164[19, 22, 21, 22, 23, 18, 19, 23]
26.178[17, 23, 26, 22, 20, 19, 17, 22]
26.201[19, 23, 25, 22, 21, 19, 19, 22]
26.216[19, 21, 26, 19, 19, 19, 19, 22]
26.246[19, 21, 27, 19, 20, 19, 18, 20]
26.268[19, 20, 26, 18, 19, 18, 19, 20]
26.275[19, 20, 23, 18, 22, 18, 25, 26]
26.299[17, 23, 23, 18, 22, 19, 24, 28]
26.329[18, 23, 21, 20, 22, 20, 25, 28]
26.336[19, 25, 20, 21, 22, 20, 25, 28]
26.358[18, 25, 21, 20, 22, 20, 26, 28]
26.381[18, 25, 19, 19, 21, 18, 20, 21]
26.395[17, 20, 19, 20, 21, 17, 21, 20]
26.418[17, 22, 18, 19, 21, 15, 20, 20]
26.441[16, 18, 19, 20, 22, 16, 28, 28]
26.463[17, 19, 20, 21, 21, 16, 28, 30]
26.478[16, 18, 19, 23, 22, 17, 29, 32]
26.501[16, 21, 18, 21, 20, 17, 28, 31]
26.524[15, 21, 19, 22, 19, 18, 29, 31]
26.538[16, 22, 18, 21, 18, 19, 21, 23]
26.561[16, 21, 18, 21, 19, 19, 20, 21]
26.575[18, 21, 19, 19, 20, 19, 20, 20]
26.606[19, 21, 21, 21, 20, 19, 21, 21]
26.621[20, 19, 21, 20, 20, 18, 20, 20]
26.635[20, 20, 20, 22, 20, 16, 20, 20]
26.658[20, 20, 20, 21, 20, 17, 21, 22]
26.681[19, 18, 19, 21, 18, 17, 20, 20]
26.696[19, 18, 18, 20, 19, 18, 20, 19]
26.719[19, 18, 19, 21, 20, 18, 20, 18]
26.741[19, 17, 19, 17, 19, 18, 20, 18]
26.755[18, 18, 21, 17, 18, 18, 27, 32]
26.778[19, 21, 21, 20, 21, 18, 27, 33]
26.801[20, 22, 22, 20, 22, 17, 28, 33]
26.815[19, 22, 21, 19, 22, 22, 27, 35]
26.838[19, 22, 22, 19, 23, 22, 27, 35]
26.861[19, 24, 19, 18, 23, 23, 18, 23]
26.883[17, 21, 18, 15, 21, 23, 21, 23]
26.898[18, 20, 17, 17, 18, 22, 20, 23]
26.921[18, 20, 19, 17, 20, 18, 22, 20]
26.943[17, 20, 19, 17, 18, 18, 27, 26]
26.958[18, 18, 19, 19, 18, 16, 28, 25]
26.981[20, 20, 20, 18, 19, 16, 26, 23]
27.003[20, 20, 21, 18, 19, 18, 29, 25]
27.018[20, 22, 19, 20, 18, 20, 29, 26]
27.041[20, 21, 18, 19, 20, 19, 24, 19]
27.064[21, 21, 20, 20, 22, 21, 23, 20]
27.078[20, 20, 19, 21, 22, 20, 22, 21]
27.101[20, 19, 17, 21, 22, 20, 22, 19]
27.123[20, 18, 17, 20, 21, 18, 27, 29]
27.138[21, 20, 17, 21, 20, 19, 29, 29]
27.161[19, 19, 16, 20, 19, 18, 29, 31]
27.183[19, 18, 17, 20, 19, 19, 30, 32]
27.198[18, 20, 20, 18, 20, 18, 27, 32]
27.221[17, 19, 20, 20, 20, 17, 21, 25]
27.244[17, 17, 20, 19, 21, 17, 19, 24]
27.258[17, 18, 21, 19, 21, 18, 19, 22]
27.281[17, 19, 23, 19, 20, 18, 22, 21]
27.303[18, 18, 22, 20, 19, 18, 28, 26]
27.318[18, 19, 21, 19, 19, 19, 27, 26]
27.341[17, 20, 21, 18, 18, 19, 29, 28]
27.364[19, 20, 22, 18, 18, 18, 29, 28]
27.378[19, 20, 20, 19, 17, 18, 26, 28]
27.401[19, 19, 20, 18, 18, 17, 20, 22]
27.424[19, 20, 20, 18, 18, 18, 22, 21]
27.438[19, 21, 20, 21, 19, 16, 19, 17]
27.461[18, 20, 19, 21, 19, 18, 26, 23]
27.484[18, 19, 18, 22, 20, 19, 25, 22]
27.497[19, 19, 18, 22, 19, 20, 26, 22]
27.521[18, 19, 19, 21, 19, 19, 25, 22]
27.551[18, 19, 20, 19, 17, 20, 27, 24]
27.558[17, 19, 19, 18, 17, 19, 21, 18]
27.581[18, 18, 19, 16, 17, 18, 24, 18]
27.604[17, 19, 17, 15, 17, 16, 22, 19]
27.618[18, 19, 18, 16, 20, 18, 29, 26]
27.641[19, 18, 18, 17, 22, 19, 29, 26]
27.664[20, 21, 19, 18, 22, 18, 29, 27]
27.678[22, 22, 21, 19, 22, 19, 29, 28]
27.702[22, 21, 21, 20, 22, 19, 29, 28]
27.723[23, 20, 22, 20, 20, 19, 24, 22]
27.745[24, 21, 21, 19, 19, 19, 23, 22]
27.777[23, 19, 22, 20, 19, 20, 23, 21]
27.782[21, 19, 21, 20, 18, 20, 27, 25]
27.805[24, 19, 22, 20, 17, 21, 26, 25]
27.829[23, 19, 20, 20, 19, 20, 26, 25]
27.85[22, 20, 22, 20, 19, 21, 27, 26]
27.866[22, 18, 21, 19, 20, 21, 27, 27]
27.882[22, 17, 21, 21, 20, 21, 21, 24]
27.91[20, 21, 20, 20, 23, 18, 21, 25]
27.925[18, 21, 21, 20, 23, 18, 21, 28]
27.942[19, 19, 20, 20, 23, 19, 25, 30]
27.963[18, 20, 19, 19, 22, 20, 25, 29]
27.993[16, 21, 19, 16, 22, 21, 27, 28]
28.009[15, 19, 20, 17, 22, 21, 28, 30]
28.024[16, 18, 18, 18, 20, 21, 27, 26]
28.045[15, 19, 19, 18, 21, 20, 24, 25]
28.062[15, 19, 19, 19, 21, 21, 33, 30]
28.083[16, 18, 20, 21, 21, 20, 31, 28]
28.106[20, 18, 19, 20, 17, 20, 32, 29]
28.129[20, 20, 21, 19, 18, 19, 32, 28]
28.144[22, 20, 22, 19, 17, 19, 32, 27]
28.165[21, 20, 22, 18, 18, 19, 22, 20]
28.189[23, 20, 20, 17, 17, 18, 21, 21]
28.21[20, 22, 22, 17, 19, 19, 21, 20]
28.225[21, 22, 22, 16, 21, 20, 26, 28]
28.241[18, 22, 22, 18, 21, 21, 26, 29]
28.27[20, 22, 24, 20, 19, 20, 26, 29]
28.285[19, 23, 26, 22, 19, 21, 27, 29]
28.302[21, 19, 23, 21, 18, 19, 27, 29]
28.323[21, 19, 22, 22, 18, 21, 23, 22]
28.345[21, 18, 22, 21, 18, 20, 21, 21]
28.362[21, 20, 20, 20, 18, 21, 23, 22]
28.407[21, 19, 19, 20, 20, 20, 28, 28]
28.408[19, 20, 19, 20, 20, 21, 27, 30]
28.422[20, 22, 20, 20, 19, 19, 26, 31]
28.45[20, 25, 21, 20, 20, 20, 26, 31]
28.466[20, 23, 21, 21, 22, 20, 24, 30]
28.482[19, 23, 23, 20, 19, 20, 19, 24]
28.503[19, 23, 23, 21, 19, 21, 20, 21]
28.525[18, 22, 22, 20, 20, 22, 20, 21]
28.549[18, 21, 20, 20, 20, 20, 20, 19]
28.562[18, 22, 20, 20, 19, 20, 25, 25]
28.587[18, 23, 18, 21, 20, 20, 24, 25]
28.602[18, 24, 19, 21, 22, 19, 26, 27]
28.63[19, 23, 19, 22, 23, 18, 26, 26]
28.645[18, 23, 19, 22, 22, 19, 26, 27]
28.662[16, 23, 20, 22, 22, 19, 21, 21]
28.684[17, 22, 20, 22, 24, 21, 21, 19]
28.705[18, 21, 21, 20, 25, 22, 20, 23]
28.721[16, 22, 22, 20, 24, 21, 22, 25]
28.744[17, 21, 22, 19, 25, 24, 24, 29]
28.765[19, 22, 21, 19, 25, 24, 25, 30]
28.788[19, 23, 24, 19, 23, 22, 27, 30]
28.802[19, 23, 24, 21, 23, 20, 26, 30]
28.827[21, 21, 23, 22, 22, 20, 26, 27]
28.848[22, 21, 23, 21, 21, 16, 23, 23]
28.862[22, 21, 23, 21, 22, 15, 21, 23]
28.885[21, 19, 21, 21, 23, 17, 20, 21]
28.908[21, 20, 20, 20, 20, 16, 20, 18]
28.923[20, 21, 20, 18, 22, 18, 19, 17]
28.945[19, 21, 21, 20, 22, 18, 22, 17]
28.968[18, 20, 20, 20, 21, 20, 28, 22]
28.982[19, 19, 20, 20, 20, 19, 27, 22]
29.005[19, 18, 18, 20, 20, 19, 28, 24]
29.028[19, 19, 18, 20, 20, 19, 27, 26]
29.043[19, 18, 18, 19, 19, 20, 25, 26]
29.065[20, 18, 19, 18, 19, 19, 21, 24]
29.088[19, 21, 20, 16, 19, 19, 21, 25]
29.104[17, 20, 22, 15, 19, 18, 20, 22]
29.134[16, 19, 23, 16, 19, 18, 19, 20]
29.156[18, 20, 22, 18, 19, 19, 22, 19]
29.163[18, 22, 24, 20, 18, 19, 22, 25]
29.185[18, 19, 24, 22, 17, 19, 24, 25]
29.216[19, 21, 22, 21, 17, 21, 24, 26]
29.223[21, 21, 21, 21, 18, 20, 24, 26]
29.245[20, 20, 22, 20, 18, 20, 23, 28]
29.268[19, 19, 19, 19, 19, 20, 20, 20]
29.283[19, 21, 21, 18, 19, 20, 18, 20]
29.305[19, 20, 20, 20, 21, 20, 21, 20]
29.328[18, 23, 22, 20, 20, 20, 22, 20]
29.343[18, 22, 23, 20, 19, 19, 21, 18]
29.365[18, 22, 24, 21, 19, 20, 27, 24]
29.388[20, 21, 23, 21, 21, 21, 27, 25]
29.41[19, 21, 23, 20, 20, 20, 27, 26]
29.434[20, 20, 22, 20, 20, 20, 28, 29]
29.448[20, 21, 23, 20, 22, 19, 28, 28]
29.463[20, 22, 21, 20, 21, 19, 22, 24]
29.493[19, 21, 20, 21, 20, 18, 23, 25]
29.516[18, 22, 21, 21, 20, 18, 21, 24]
29.522[17, 21, 21, 21, 21, 22, 21, 22]
29.545[17, 21, 19, 21, 21, 21, 22, 24]
29.576[18, 20, 22, 21, 22, 22, 22, 23]
29.583[19, 22, 23, 19, 21, 23, 29, 28]
29.605[19, 22, 23, 20, 20, 24, 30, 29]
29.628[19, 21, 24, 20, 18, 22, 28, 29]
29.643[20, 21, 23, 20, 18, 22, 28, 31]
29.673[20, 20, 21, 19, 18, 22, 30, 31]
29.688[19, 18, 20, 20, 19, 20, 22, 25]
29.71[20, 18, 22, 20, 19, 22, 23, 24]
29.725[20, 20, 20, 20, 19, 21, 31, 30]
29.748[19, 18, 21, 21, 20, 20, 31, 25]
29.77[17, 18, 22, 21, 19, 19, 29, 27]
29.785[18, 19, 22, 20, 19, 19, 31, 28]
29.816[18, 20, 21, 19, 21, 18, 31, 27]
29.83[19, 18, 21, 20, 21, 19, 29, 26]
29.853[20, 20, 20, 19, 20, 21, 28, 29]
29.868[21, 21, 19, 19, 20, 20, 29, 29]
29.89[21, 20, 19, 19, 21, 19, 27, 29]
29.906[21, 20, 19, 18, 19, 18, 27, 29]
29.936[21, 20, 20, 18, 20, 19, 28, 30]
29.95[20, 20, 21, 18, 19, 18, 32, 31]
29.965[19, 18, 20, 19, 20, 18, 32, 31]
29.988[19, 19, 21, 21, 20, 18, 32, 31]
30.01[16, 19, 20, 22, 21, 19, 32, 31]
30.025[16, 19, 20, 22, 22, 16, 24, 24]
30.048[17, 20, 20, 22, 22, 15, 21, 22]
30.071[18, 21, 20, 22, 21, 18, 19, 20]
30.085[19, 20, 20, 20, 21, 19, 27, 27]
30.108[19, 23, 21, 21, 23, 18, 27, 28]
30.13[19, 22, 21, 20, 22, 21, 28, 28]
30.145[20, 19, 20, 19, 23, 21, 27, 29]
30.168[19, 22, 21, 20, 22, 20, 28, 29]
30.19[21, 21, 22, 20, 24, 20, 24, 22]
30.213[21, 21, 21, 18, 22, 20, 23, 20]
30.228[22, 20, 21, 19, 22, 18, 28, 24]
30.25[20, 22, 21, 20, 23, 18, 29, 24]
30.267[19, 19, 20, 18, 24, 18, 28, 25]
30.288[17, 21, 19, 18, 21, 21, 27, 26]
30.31[19, 21, 16, 20, 21, 21, 29, 26]
30.326[19, 22, 16, 21, 20, 21, 25, 21]
30.348[20, 21, 16, 20, 20, 22, 24, 19]
30.37[21, 22, 16, 19, 19, 22, 31, 28]
30.385[21, 21, 18, 20, 19, 20, 29, 27]
30.408[20, 20, 18, 18, 18, 20, 29, 28]
30.431[19, 19, 18, 17, 19, 18, 28, 29]
30.445[19, 21, 19, 18, 20, 18, 28, 31]
30.467[20, 22, 19, 18, 21, 18, 22, 22]
30.49[20, 23, 18, 18, 22, 17, 23, 22]
30.505[19, 21, 20, 18, 22, 20, 31, 29]
30.528[19, 23, 22, 17, 23, 24, 30, 29]
30.551[18, 21, 23, 19, 23, 27, 29, 28]
30.565[17, 22, 23, 22, 27, 45, 34, 29]
30.587[19, 22, 25, 26, 31, 55, 45, 30]
30.611[31, 25, 23, 29, 34, 68, 49, 27]
30.634[53, 33, 22, 30, 34, 73, 65, 28]
30.648[123, 48, 24, 34, 38, 86, 75, 41]
30.671[147, 55, 25, 34, 38, 95, 91, 126]
30.693[171, 61, 26, 33, 36, 106, 108, 135]
30.708[171, 63, 29, 31, 34, 110, 149, 200]
30.731[193, 63, 29, 32, 38, 117, 168, 329]
30.753[201, 83, 34, 33, 44, 130, 276, 372]
30.768[252, 94, 42, 33, 43, 129, 339, 376]
30.79[260, 94, 41, 35, 47, 147, 383, 391]
30.821[280, 99, 42, 35, 50, 152, 372, 390]
30.828[317, 108, 42, 36, 48, 158, 405, 339]
30.85[395, 109, 39, 34, 47, 150, 375, 351]
30.881[364, 100, 36, 36, 51, 160, 333, 344]
30.888[356, 99, 37, 37, 56, 152, 321, 373]
30.91[369, 95, 35, 38, 56, 154, 337, 353]
30.934[353, 94, 39, 42, 68, 182, 321, 380]
30.948[270, 72, 40, 42, 66, 176, 300, 348]
30.97[322, 107, 44, 43, 70, 204, 324, 338]
30.993[324, 112, 43, 43, 69, 215, 351, 318]
31.008[306, 117, 44, 48, 78, 207, 347, 314]
31.031[278, 112, 41, 45, 73, 193, 327, 225]
31.054[252, 111, 37, 45, 73, 199, 335, 205]
31.076[179, 76, 28, 41, 66, 156, 333, 218]
31.091[170, 64, 29, 44, 68, 139, 295, 190]
31.113[145, 51, 28, 37, 57, 137, 296, 259]
31.128[144, 46, 32, 46, 68, 123, 298, 276]
31.158[129, 41, 33, 49, 73, 129, 284, 279]
31.173[112, 37, 31, 50, 75, 142, 271, 266]
31.188[106, 40, 30, 48, 70, 137, 251, 284]
31.211[126, 45, 33, 52, 74, 142, 306, 246]
31.241[122, 51, 32, 43, 64, 148, 323, 257]
31.248[146, 55, 31, 43, 60, 161, 383, 301]
31.271[165, 59, 33, 50, 69, 178, 391, 363]
31.293[164, 61, 38, 52, 71, 203, 443, 427]
31.308[151, 62, 36, 50, 69, 256, 577, 495]
31.331[148, 61, 38, 54, 77, 291, 612, 538]
31.353[158, 64, 41, 57, 86, 291, 623, 537]
31.376[173, 90, 58, 68, 108, 310, 638, 614]
31.391[258, 106, 72, 86, 124, 336, 624, 663]
31.413[285, 127, 89, 103, 156, 374, 611, 644]
31.436[299, 134, 92, 106, 165, 377, 680, 684]
31.452[330, 141, 95, 109, 167, 405, 737, 707]
31.473[360, 139, 90, 104, 155, 405, 799, 664]
31.488[365, 138, 81, 96, 148, 384, 831, 655]
31.518[466, 137, 70, 88, 127, 356, 851, 641]
31.533[469, 133, 66, 84, 110, 352, 842, 572]
31.547[476, 144, 62, 82, 113, 370, 813, 572]
31.571[508, 135, 57, 81, 112, 351, 748, 532]
31.601[506, 139, 60, 79, 117, 362, 792, 458]
31.616[421, 128, 55, 69, 110, 345, 699, 486]
31.631[422, 127, 59, 72, 111, 334, 659, 498]
31.653[441, 110, 61, 67, 101, 278, 611, 516]
31.676[393, 113, 64, 67, 101, 297, 623, 539]
31.691[396, 105, 67, 78, 104, 314, 495, 572]
31.714[411, 105, 69, 83, 109, 398, 477, 570]
31.736[413, 112, 66, 85, 116, 466, 476, 597]
31.751[413, 118, 66, 89, 127, 493, 513, 570]
31.781[421, 118, 65, 86, 125, 492, 492, 609]
31.796[462, 114, 60, 80, 119, 477, 520, 572]
31.811[447, 115, 58, 73, 108, 411, 549, 540]
31.833[463, 129, 59, 65, 98, 317, 540, 608]
31.856[485, 136, 56, 58, 81, 283, 553, 613]
31.87[514, 139, 57, 65, 80, 258, 563, 563]
31.893[562, 146, 54, 53, 70, 285, 564, 593]
31.916[570, 140, 52, 61, 75, 283, 542, 601]
31.931[596, 132, 51, 63, 73, 283, 502, 503]
31.961[566, 124, 59, 71, 94, 321, 484, 457]
31.976[555, 118, 61, 70, 137, 320, 464, 483]
31.99[503, 121, 64, 84, 145, 296, 443, 478]
32.013[502, 120, 65, 82, 160, 276, 442, 492]
32.036[492, 113, 66, 84, 167, 270, 465, 525]
32.05[476, 107, 62, 80, 161, 203, 429, 534]
32.074[463, 108, 57, 75, 123, 206, 453, 543]
32.096[412, 91, 49, 59, 113, 202, 447, 547]
32.118[415, 99, 46, 51, 89, 198, 405, 510]
32.133[367, 102, 43, 49, 82, 210, 433, 462]
32.156[382, 105, 40, 43, 78, 216, 415, 525]
32.17[408, 121, 40, 39, 82, 216, 369, 549]
32.193[386, 120, 43, 41, 83, 197, 361, 544]
32.216[364, 114, 44, 42, 130, 182, 358, 577]
32.23[376, 106, 45, 43, 133, 173, 257, 573]
32.253[477, 117, 49, 49, 140, 166, 249, 557]
32.276[425, 105, 48, 54, 153, 153, 348, 526]
32.29[510, 124, 47, 55, 163, 136, 345, 515]
32.321[518, 121, 47, 57, 134, 149, 378, 496]
32.336[513, 120, 41, 56, 131, 137, 400, 500]
32.35[426, 106, 43, 56, 132, 127, 406, 545]
32.373[473, 101, 43, 51, 120, 141, 349, 498]
32.396[470, 111, 50, 55, 109, 162, 376, 533]
32.41[474, 115, 50, 54, 107, 154, 345, 527]
32.433[459, 113, 56, 66, 116, 153, 331, 519]
32.456[480, 134, 54, 64, 104, 162, 317, 481]
32.47[485, 151, 59, 66, 105, 153, 348, 549]
32.493[408, 132, 55, 60, 115, 136, 378, 488]
32.516[392, 134, 56, 58, 113, 131, 385, 476]
32.538[428, 145, 51, 51, 122, 124, 371, 469]
32.553[413, 129, 48, 51, 130, 111, 353, 408]
32.583[408, 131, 45, 49, 132, 122, 347, 458]
32.599[439, 129, 45, 52, 125, 120, 292, 452]
32.613[487, 134, 45, 56, 125, 120, 315, 499]
32.636[457, 127, 46, 53, 123, 159, 329, 516]
32.659[459, 121, 47, 52, 111, 168, 343, 533]
32.674[436, 98, 48, 54, 104, 153, 303, 431]
32.695[422, 124, 47, 53, 109, 173, 361, 423]
32.725[365, 115, 46, 50, 104, 180, 334, 391]
32.734[378, 114, 42, 46, 84, 155, 331, 363]
32.755[433, 118, 44, 48, 96, 151, 330, 338]
32.777[461, 117, 37, 49, 96, 159, 333, 332]
32.794[456, 85, 35, 59, 88, 134, 261, 332]
32.815[502, 90, 37, 63, 97, 148, 279, 345]
32.838[508, 92, 40, 63, 102, 149, 294, 361]
32.854[484, 96, 41, 65, 97, 162, 311, 387]
32.876[554, 152, 54, 64, 98, 185, 329, 405]
32.905[560, 155, 53, 56, 102, 206, 324, 472]
32.914[568, 167, 54, 54, 96, 201, 345, 463]
32.935[587, 166, 54, 57, 89, 194, 321, 466]
32.965[549, 160, 54, 53, 89, 178, 292, 426]
32.974[460, 111, 40, 48, 81, 155, 255, 426]
32.995[495, 121, 43, 49, 79, 199, 280, 447]
33.018[464, 107, 42, 57, 81, 261, 224, 435]
33.034[429, 101, 42, 55, 101, 282, 233, 421]
33.055[467, 98, 39, 58, 102, 286, 263, 475]
33.077[465, 104, 39, 59, 105, 293, 332, 473]
33.101[398, 95, 39, 58, 105, 252, 314, 378]
33.124[469, 105, 48, 53, 107, 203, 319, 436]
33.137[483, 118, 48, 55, 107, 187, 309, 440]
33.154[475, 123, 50, 52, 101, 187, 296, 413]
33.176[457, 115, 54, 57, 102, 174, 282, 419]
33.197[452, 110, 53, 60, 101, 183, 282, 435]
33.214[358, 91, 43, 56, 101, 158, 297, 370]
33.235[348, 80, 40, 54, 78, 143, 295, 357]
33.265[301, 78, 38, 55, 86, 137, 278, 348]
33.274[333, 81, 37, 55, 83, 130, 201, 366]
33.295[412, 94, 38, 52, 86, 110, 187, 357]
33.317[401, 92, 38, 53, 87, 109, 152, 361]
33.334[393, 85, 37, 53, 87, 105, 150, 380]
33.355[396, 94, 39, 53, 98, 118, 186, 375]
33.379[370, 91, 36, 46, 100, 120, 191, 340]
33.394[300, 77, 35, 53, 109, 137, 196, 322]
33.415[342, 90, 36, 55, 108, 135, 193, 347]
33.438[420, 107, 40, 56, 116, 134, 208, 360]
33.461[396, 97, 39, 56, 109, 135, 209, 395]
33.475[382, 94, 41, 60, 114, 134, 218, 356]
33.497[419, 98, 47, 61, 106, 126, 219, 390]
33.52[394, 91, 47, 62, 103, 129, 218, 375]
33.542[329, 78, 46, 61, 97, 147, 216, 379]
33.558[425, 105, 48, 62, 92, 139, 196, 352]
33.58[447, 103, 46, 57, 86, 147, 205, 355]
33.595[417, 107, 40, 49, 83, 136, 213, 341]
33.625[415, 106, 42, 45, 95, 141, 237, 327]
33.64[409, 106, 41, 43, 97, 129, 256, 323]
33.656[426, 89, 42, 43, 93, 127, 266, 363]
33.677[441, 95, 42, 44, 91, 134, 285, 374]
33.7[533, 139, 48, 43, 86, 136, 292, 345]
33.715[549, 150, 50, 45, 72, 137, 371, 357]
33.739[619, 180, 56, 47, 64, 154, 425, 389]
33.76[594, 185, 54, 44, 63, 156, 441, 340]
33.775[580, 182, 54, 46, 57, 150, 424, 350]
33.797[491, 147, 46, 43, 56, 166, 441, 369]
33.82[484, 140, 43, 41, 54, 157, 373, 413]
33.835[405, 97, 36, 40, 54, 137, 309, 367]
33.857[397, 101, 37, 38, 54, 145, 336, 399]
33.88[404, 106, 36, 38, 53, 144, 355, 382]
33.895[416, 113, 36, 38, 51, 120, 326, 415]
33.917[397, 105, 37, 37, 50, 114, 317, 356]
33.94[373, 107, 35, 32, 47, 123, 310, 349]
33.955[334, 90, 33, 32, 44, 115, 258, 311]
33.979[299, 86, 35, 31, 41, 112, 221, 300]
34.0[281, 73, 37, 30, 40, 118, 212, 226]
34.016[360, 82, 38, 34, 46, 120, 226, 261]
34.037[381, 88, 40, 37, 46, 107, 212, 279]
34.06[402, 95, 40, 41, 51, 116, 199, 284]
34.075[411, 95, 39, 42, 53, 111, 191, 283]
34.098[457, 102, 38, 44, 53, 103, 175, 291]
34.12[492, 134, 41, 40, 53, 109, 268, 279]
34.135[548, 165, 39, 37, 53, 113, 278, 250]
34.157[518, 158, 40, 37, 51, 118, 363, 258]
34.18[538, 161, 42, 39, 53, 142, 397, 287]
34.195[493, 159, 42, 39, 52, 152, 495, 342]
34.217[442, 133, 37, 40, 55, 154, 551, 403]
34.24[384, 97, 38, 42, 54, 162, 592, 421]
34.255[378, 101, 38, 41, 55, 149, 553, 451]
34.279[332, 93, 35, 40, 53, 132, 541, 438]
34.3[322, 92, 35, 40, 54, 126, 488, 415]
34.315[329, 103, 39, 43, 53, 126, 392, 382]
34.337[342, 106, 36, 43, 55, 118, 353, 395]
34.36[350, 113, 35, 41, 52, 119, 337, 341]
34.375[376, 113, 36, 40, 53, 112, 338, 340]
34.397[422, 120, 37, 41, 52, 166, 371, 328]
34.42[382, 109, 33, 38, 49, 202, 385, 320]
34.443[324, 90, 32, 38, 46, 213, 410, 315]
34.458[305, 77, 33, 41, 50, 211, 418, 317]
34.48[295, 85, 34, 42, 50, 212, 415, 316]
34.503[226, 69, 33, 43, 54, 181, 383, 384]
34.517[248, 66, 34, 43, 52, 147, 420, 376]
34.54[248, 66, 36, 43, 53, 152, 480, 410]
34.571[280, 75, 34, 40, 49, 156, 483, 408]
34.578[256, 66, 33, 40, 50, 158, 491, 467]
34.6[250, 66, 32, 37, 45, 161, 492, 412]
34.623[336, 90, 36, 40, 49, 162, 463, 431]
34.637[370, 92, 36, 39, 55, 164, 369, 387]
34.66[351, 85, 37, 44, 85, 211, 361, 400]
34.683[386, 98, 37, 45, 98, 241, 359, 344]
34.706[421, 112, 40, 50, 131, 260, 352, 336]
34.72[339, 95, 42, 53, 138, 265, 327, 330]
34.743[356, 105, 39, 55, 138, 300, 364, 436]
34.757[365, 108, 39, 55, 125, 332, 367, 458]
34.789[329, 97, 40, 55, 129, 372, 359, 447]
34.803[378, 82, 38, 53, 111, 494, 357, 453]
34.817[401, 81, 33, 49, 115, 565, 341, 433]
34.84[368, 74, 35, 54, 120, 634, 334, 342]
34.863[383, 85, 38, 57, 121, 622, 374, 287]
34.879[397, 93, 35, 55, 106, 598, 390, 305]
34.9[388, 107, 35, 52, 88, 513, 365, 318]
34.922[367, 113, 37, 54, 90, 456, 373, 317]
34.938[395, 111, 40, 46, 95, 325, 328, 288]
34.96[454, 122, 44, 39, 97, 287, 266, 285]
34.982[458, 118, 44, 39, 104, 293, 240, 264]
34.997[459, 120, 45, 44, 114, 260, 253, 227]
35.02[552, 141, 45, 43, 119, 240, 226, 187]
35.043[564, 144, 42, 44, 131, 245, 240, 162]
35.066[504, 127, 36, 45, 133, 262, 245, 162]
35.08[504, 127, 39, 47, 134, 319, 269, 200]
35.103[468, 117, 39, 46, 132, 364, 266, 204]
35.117[397, 108, 42, 54, 131, 385, 267, 244]
35.148[401, 114, 45, 59, 131, 388, 244, 265]
35.162[422, 114, 45, 59, 127, 430, 254, 257]
35.177[482, 131, 44, 59, 122, 391, 227, 223]
35.208[482, 133, 43, 63, 133, 375, 207, 213]
35.222[464, 122, 42, 62, 137, 370, 203, 204]
35.237[485, 142, 43, 60, 134, 393, 193, 181]
35.261[479, 144, 45, 61, 138, 362, 186, 191]
35.282[437, 132, 43, 62, 145, 352, 170, 185]
35.297[477, 144, 45, 58, 136, 328, 164, 184]
35.32[471, 137, 40, 51, 123, 304, 169, 223]
35.342[452, 110, 40, 53, 105, 280, 174, 253]
35.366[455, 106, 40, 54, 102, 280, 157, 266]
35.38[425, 103, 41, 52, 96, 297, 187, 278]
35.402[427, 104, 41, 50, 103, 299, 197, 287]
35.426[415, 101, 40, 48, 94, 329, 187, 238]
35.44[410, 109, 40, 43, 95, 315, 190, 236]
35.471[449, 113, 39, 40, 103, 319, 242, 293]
35.486[456, 114, 40, 39, 107, 325, 224, 316]
35.5[421, 96, 37, 40, 98, 353, 223, 324]
35.523[509, 117, 41, 44, 112, 311, 229, 340]
35.546[501, 122, 37, 42, 110, 307, 266, 434]
35.56[460, 129, 40, 44, 104, 276, 239, 427]
35.582[493, 148, 44, 44, 107, 232, 230, 416]
35.606[528, 161, 43, 43, 111, 159, 217, 406]
35.621[506, 158, 40, 37, 102, 149, 205, 387]
35.642[530, 159, 41, 35, 98, 150, 154, 250]
35.666[560, 153, 39, 34, 100, 149, 124, 185]
35.68[534, 146, 38, 38, 85, 141, 128, 170]
35.702[497, 138, 43, 41, 82, 152, 127, 184]
35.726[484, 155, 46, 45, 79, 211, 130, 181]
35.74[473, 150, 45, 47, 85, 214, 118, 259]
35.762[546, 157, 48, 50, 88, 202, 122, 350]
35.786[622, 149, 43, 46, 90, 207, 147, 505]
35.8[635, 147, 39, 45, 101, 197, 152, 545]
35.823[621, 119, 39, 44, 105, 161, 156, 619]
35.846[612, 113, 42, 47, 109, 149, 206, 645]
35.86[544, 109, 38, 47, 100, 141, 195, 609]
35.882[552, 120, 47, 50, 102, 141, 183, 573]
35.906[536, 118, 53, 51, 89, 164, 188, 551]
35.92[532, 115, 53, 50, 89, 148, 200, 576]
35.943[535, 116, 54, 50, 81, 165, 203, 607]
35.966[531, 125, 56, 47, 80, 177, 218, 620]
35.98[433, 118, 53, 44, 79, 170, 226, 570]
36.003[475, 119, 49, 41, 75, 151, 229, 577]
36.026[580, 148, 53, 47, 72, 138, 223, 493]
36.04[550, 145, 50, 44, 75, 113, 173, 375]
36.064[550, 145, 50, 49, 81, 116, 172, 376]
36.086[545, 137, 49, 48, 89, 110, 152, 346]
36.1[542, 150, 48, 47, 103, 108, 151, 352]
36.123[542, 131, 43, 44, 103, 106, 155, 490]
36.146[586, 148, 45, 46, 111, 118, 198, 566]
36.16[574, 137, 44, 45, 108, 114, 190, 570]
36.183[644, 158, 51, 51, 103, 131, 183, 562]
36.206[623, 145, 52, 51, 91, 145, 178, 600]
36.22[515, 150, 55, 48, 84, 144, 187, 567]
36.243[672, 182, 59, 53, 84, 146, 194, 621]
36.266[725, 186, 58, 51, 98, 155, 216, 610]
36.28[734, 172, 51, 46, 98, 151, 231, 632]
36.303[726, 168, 49, 46, 101, 139, 227, 569]
36.326[719, 163, 47, 49, 102, 139, 227, 496]
36.348[731, 164, 47, 45, 89, 133, 214, 516]
36.363[693, 169, 45, 43, 70, 144, 202, 548]
36.386[639, 175, 49, 42, 71, 157, 193, 561]
36.408[639, 175, 49, 43, 68, 155, 191, 563]
36.423[655, 169, 47, 42, 74, 153, 167, 585]
36.446[476, 156, 44, 45, 99, 156, 164, 468]
36.468[517, 153, 45, 47, 112, 130, 173, 493]
36.483[516, 146, 41, 52, 117, 117, 168, 487]
36.506[561, 168, 42, 53, 113, 113, 178, 515]
36.536[591, 175, 47, 54, 113, 127, 198, 532]
36.543[586, 165, 51, 56, 99, 135, 193, 534]
36.566[574, 173, 55, 58, 109, 155, 208, 497]
36.596[666, 183, 56, 55, 104, 154, 216, 546]
36.604[629, 170, 60, 62, 106, 170, 219, 543]
36.626[611, 187, 61, 61, 102, 162, 224, 537]
36.648[633, 178, 55, 56, 107, 154, 205, 516]
36.663[667, 203, 56, 55, 92, 139, 210, 592]
36.686[617, 208, 56, 55, 97, 131, 204, 565]
36.709[617, 206, 52, 48, 114, 134, 219, 590]
36.723[612, 197, 49, 48, 117, 151, 232, 616]
36.745[554, 188, 46, 47, 138, 154, 234, 625]
36.768[590, 165, 45, 46, 141, 152, 196, 534]
36.782[683, 183, 52, 54, 136, 188, 287, 501]
36.813[718, 189, 51, 54, 124, 199, 284, 502]
36.828[707, 181, 51, 57, 125, 187, 265, 413]
36.842[716, 186, 52, 56, 103, 179, 267, 431]
36.866[651, 175, 53, 56, 92, 175, 286, 474]
36.888[559, 169, 52, 61, 137, 148, 226, 520]
36.902[532, 176, 55, 64, 146, 120, 217, 469]
36.925[526, 182, 65, 74, 156, 121, 216, 475]
36.948[538, 195, 77, 81, 155, 128, 233, 442]
36.962[575, 207, 82, 90, 164, 130, 262, 466]
36.986[503, 179, 79, 82, 139, 119, 253, 449]
37.008[550, 204, 82, 89, 138, 110, 251, 485]
37.023[550, 200, 74, 78, 122, 116, 258, 498]
37.046[519, 178, 60, 73, 117, 106, 237, 472]
37.068[417, 156, 48, 62, 103, 104, 173, 394]
37.092[429, 159, 48, 60, 90, 102, 178, 370]
37.106[334, 96, 37, 45, 70, 110, 199, 406]
37.128[442, 93, 40, 47, 70, 100, 198, 405]
37.151[451, 93, 41, 48, 67, 106, 217, 446]
37.166[458, 90, 42, 45, 69, 106, 218, 450]
37.188[453, 96, 46, 54, 95, 141, 219, 528]
37.203[566, 155, 60, 53, 99, 136, 222, 566]
37.226[491, 159, 59, 58, 104, 147, 223, 628]
37.248[524, 162, 62, 60, 103, 147, 205, 613]
37.271[522, 173, 66, 67, 106, 151, 212, 645]
37.286[540, 169, 65, 68, 82, 125, 219, 603]
37.308[453, 123, 58, 69, 80, 125, 191, 517]
37.331[481, 114, 56, 67, 99, 118, 174, 413]
37.345[461, 114, 52, 64, 106, 121, 181, 431]
37.368[455, 100, 48, 58, 108, 129, 178, 372]
37.39[509, 122, 43, 50, 109, 124, 132, 378]
37.406[529, 133, 39, 46, 119, 128, 144, 440]
37.428[492, 130, 38, 44, 118, 122, 145, 445]
37.451[485, 141, 39, 42, 116, 139, 141, 414]
37.466[489, 141, 36, 39, 113, 138, 133, 412]
37.488[507, 141, 40, 58, 126, 146, 197, 524]
37.511[456, 129, 36, 58, 115, 143, 187, 467]
37.526[545, 155, 42, 62, 119, 152, 188, 496]
37.548[547, 151, 41, 67, 118, 131, 186, 498]
37.571[593, 167, 46, 73, 122, 119, 216, 495]
37.586[506, 153, 43, 58, 116, 112, 163, 283]
37.608[580, 179, 51, 66, 122, 136, 204, 389]
37.631[523, 168, 47, 61, 102, 128, 210, 365]
37.646[621, 184, 54, 67, 101, 137, 224, 493]
37.669[586, 176, 55, 68, 106, 139, 221, 500]
37.69[614, 185, 58, 67, 105, 147, 268, 516]
37.706[552, 162, 54, 61, 98, 123, 244, 442]
37.729[529, 150, 54, 62, 96, 116, 235, 422]
37.75[470, 130, 47, 51, 94, 106, 215, 252]
37.767[490, 130, 43, 52, 95, 125, 192, 256]
37.789[466, 116, 42, 55, 94, 124, 128, 271]
37.81[453, 113, 38, 58, 101, 126, 128, 271]
37.827[499, 122, 37, 58, 102, 129, 134, 322]
37.847[509, 117, 37, 60, 100, 134, 152, 357]
37.87[497, 108, 42, 60, 91, 124, 167, 396]
37.886[501, 104, 41, 57, 84, 117, 175, 390]
37.908[520, 98, 43, 54, 74, 116, 194, 389]
37.93[498, 92, 44, 52, 71, 114, 190, 358]
37.946[403, 79, 43, 48, 65, 105, 178, 322]
37.968[440, 99, 38, 38, 61, 91, 167, 277]
37.99[465, 102, 37, 36, 68, 86, 184, 372]
38.006[504, 117, 35, 34, 71, 92, 185, 376]
38.028[520, 128, 40, 47, 88, 121, 195, 384]
38.05[551, 134, 42, 51, 101, 123, 201, 395]
38.066[522, 129, 44, 52, 103, 120, 199, 392]
38.088[653, 179, 48, 52, 96, 118, 163, 308]
38.11[618, 177, 48, 54, 102, 111, 124, 292]
38.127[611, 171, 48, 46, 104, 83, 125, 292]
38.148[589, 168, 49, 44, 101, 78, 113, 298]
38.177[571, 165, 49, 52, 99, 96, 122, 325]
38.193[418, 117, 48, 57, 101, 104, 122, 329]
38.207[421, 112, 48, 55, 94, 109, 126, 366]
38.23[380, 105, 45, 53, 80, 104, 137, 362]
38.261[394, 121, 43, 55, 72, 109, 146, 362]
38.267[383, 113, 39, 47, 77, 115, 166, 331]
38.29[378, 110, 35, 41, 81, 122, 165, 293]
38.312[600, 222, 49, 42, 83, 125, 180, 381]
38.328[644, 244, 50, 42, 75, 132, 162, 369]
38.35[650, 242, 50, 36, 71, 130, 155, 360]
38.374[690, 255, 52, 36, 64, 115, 124, 372]
38.387[697, 262, 55, 43, 59, 117, 120, 397]
38.41[555, 192, 47, 47, 70, 138, 91, 264]
38.433[501, 162, 46, 52, 85, 142, 102, 281]
38.455[540, 171, 48, 56, 94, 152, 104, 283]
38.478[491, 153, 44, 57, 105, 151, 101, 259]
38.493[431, 137, 41, 52, 106, 140, 118, 230]
38.507[475, 151, 38, 47, 100, 134, 148, 243]
38.537[464, 152, 37, 42, 90, 139, 140, 227]
38.552[384, 133, 40, 39, 80, 137, 153, 224]
38.568[581, 203, 44, 34, 68, 136, 155, 229]
38.59[659, 214, 47, 41, 79, 141, 152, 256]
38.613[597, 193, 48, 44, 78, 139, 125, 265]
38.627[633, 208, 51, 45, 80, 130, 131, 269]
38.65[743, 271, 59, 46, 79, 132, 129, 306]
38.672[617, 229, 57, 46, 79, 134, 146, 351]
38.688[694, 267, 59, 39, 74, 130, 177, 445]
38.71[689, 265, 56, 36, 70, 127, 172, 434]
38.732[693, 270, 54, 37, 68, 125, 171, 474]
38.747[608, 215, 41, 32, 67, 122, 162, 448]
38.77[632, 219, 42, 37, 70, 124, 158, 444]
38.793[469, 155, 34, 37, 70, 118, 127, 349]
38.815[522, 163, 32, 39, 74, 106, 132, 363]
38.83[496, 137, 31, 37, 75, 106, 127, 306]
38.852[471, 126, 33, 40, 74, 97, 120, 297]
38.868[472, 125, 30, 38, 70, 88, 109, 249]
38.897[537, 134, 31, 38, 67, 95, 105, 216]
38.913[510, 123, 30, 37, 66, 112, 107, 272]
38.929[605, 155, 33, 43, 69, 118, 110, 320]
38.95[613, 154, 29, 43, 85, 116, 110, 319]
38.972[602, 149, 35, 46, 89, 163, 201, 424]
38.987[617, 161, 40, 49, 95, 182, 194, 424]
39.01[649, 169, 41, 61, 107, 177, 232, 526]
39.032[545, 139, 42, 58, 105, 170, 231, 506]
39.048[541, 145, 43, 58, 97, 175, 235, 522]
39.07[525, 143, 43, 54, 95, 134, 161, 449]
39.092[432, 115, 39, 54, 90, 106, 167, 451]
39.108[371, 110, 40, 38, 70, 93, 102, 264]
39.131[470, 137, 37, 38, 68, 97, 117, 306]
39.152[461, 130, 39, 40, 61, 84, 120, 295]
39.175[456, 130, 38, 40, 58, 93, 116, 272]
39.19[541, 149, 42, 35, 56, 117, 148, 332]
39.212[522, 141, 41, 38, 60, 119, 145, 331]
39.235[459, 115, 42, 36, 59, 113, 142, 284]
39.258[476, 120, 41, 35, 63, 119, 139, 281]
39.272[516, 124, 40, 38, 70, 111, 139, 323]
39.295[446, 105, 39, 40, 69, 81, 92, 277]
39.31[504, 126, 42, 43, 70, 80, 97, 296]
39.332[673, 172, 44, 45, 82, 101, 109, 372]
39.355[722, 178, 42, 46, 82, 98, 134, 377]
39.37[753, 190, 43, 44, 77, 102, 140, 347]
39.392[793, 205, 42, 44, 73, 106, 147, 339]
39.415[810, 207, 42, 42, 69, 106, 154, 328]
39.43[709, 171, 40, 43, 55, 91, 162, 256]
39.452[763, 163, 41, 40, 48, 101, 154, 301]
39.483[704, 143, 39, 38, 52, 107, 152, 327]
39.49[645, 120, 37, 35, 51, 100, 170, 315]
39.512[587, 106, 36, 36, 59, 125, 173, 307]
39.535[560, 102, 35, 35, 62, 136, 167, 300]
39.55[493, 128, 42, 36, 66, 137, 195, 290]
39.572[481, 132, 43, 36, 70, 134, 197, 261]
39.595[469, 126, 45, 39, 71, 143, 176, 289]
39.61[542, 132, 43, 35, 67, 122, 171, 319]
39.632[534, 136, 43, 33, 71, 110, 157, 307]
39.663[593, 254, 45, 50, 90, 154, 307, 452]
39.678[616, 265, 43, 51, 89, 160, 326, 461]
39.693[721, 303, 45, 60, 95, 186, 403, 570]
39.715[664, 306, 44, 60, 96, 189, 404, 571]
39.73[708, 310, 44, 61, 96, 198, 410, 576]
39.752[661, 234, 36, 49, 79, 175, 313, 470]
39.775[722, 253, 44, 50, 80, 185, 301, 487]
39.79[692, 216, 40, 41, 73, 162, 203, 354]
39.813[678, 203, 43, 43, 79, 161, 208, 349]
39.835[605, 196, 47, 45, 72, 159, 203, 336]
39.85[514, 169, 46, 44, 75, 154, 175, 329]
39.872[527, 134, 45, 48, 72, 158, 173, 292]
39.895[446, 129, 47, 49, 71, 155, 171, 265]
39.911[451, 126, 45, 47, 63, 155, 182, 249]
39.932[455, 123, 40, 46, 90, 148, 180, 260]
39.955[446, 115, 40, 47, 92, 137, 179, 213]
39.978[284, 86, 36, 42, 94, 132, 179, 221]
39.992[310, 84, 34, 41, 100, 125, 192, 237]
40.016[308, 87, 35, 44, 105, 140, 191, 222]
40.038[347, 92, 35, 44, 89, 133, 185, 204]
40.052[388, 99, 37, 45, 86, 128, 191, 214]
40.075[423, 102, 36, 45, 92, 106, 186, 222]
40.098[455, 119, 39, 45, 90, 146, 181, 338]
40.12[455, 121, 37, 42, 81, 128, 160, 337]
40.135[435, 120, 36, 40, 75, 133, 159, 350]
40.158[434, 124, 33, 34, 70, 142, 140, 352]
40.172[438, 137, 35, 34, 57, 142, 148, 371]
40.195[382, 118, 34, 32, 50, 98, 134, 255]
40.218[393, 115, 34, 31, 51, 96, 149, 252]
40.232[406, 116, 34, 34, 50, 87, 148, 277]
40.255[421, 121, 39, 36, 50, 75, 147, 316]
40.286[399, 109, 37, 35, 47, 72, 125, 287]
40.293[378, 101, 31, 32, 49, 72, 112, 300]
40.315[361, 100, 31, 31, 51, 74, 85, 298]
40.338[325, 94, 31, 29, 55, 78, 80, 265]
40.352[288, 79, 27, 26, 52, 76, 94, 215]
40.376[259, 79, 25, 28, 49, 68, 97, 212]
40.398[249, 81, 26, 33, 42, 61, 114, 238]
40.421[270, 88, 26, 34, 41, 63, 113, 243]
40.435[317, 91, 25, 34, 42, 71, 114, 237]
40.458[311, 89, 26, 33, 40, 69, 105, 228]
40.472[292, 83, 29, 30, 39, 70, 110, 213]
40.495[286, 78, 32, 24, 46, 73, 90, 147]
40.518[255, 69, 32, 24, 41, 66, 90, 123]
40.532[195, 70, 34, 24, 38, 53, 88, 113]
40.555[199, 74, 32, 27, 38, 54, 85, 192]
40.578[250, 79, 30, 28, 39, 57, 74, 199]
40.592[257, 83, 27, 28, 30, 49, 67, 199]
40.623[255, 89, 30, 28, 32, 50, 57, 200]
40.638[250, 109, 28, 27, 30, 45, 56, 200]
40.653[220, 113, 28, 26, 28, 41, 54, 193]
40.675[171, 108, 28, 24, 26, 35, 52, 184]
40.699[163, 109, 29, 25, 25, 33, 54, 184]
40.721[158, 103, 27, 23, 22, 23, 70, 183]
40.735[157, 75, 25, 21, 20, 21, 78, 181]
40.758[131, 56, 24, 19, 19, 21, 70, 95]
40.773[92, 48, 22, 18, 19, 19, 67, 74]
40.795[69, 35, 21, 17, 19, 20, 64, 54]
40.818[58, 36, 20, 18, 20, 21, 47, 46]
40.832[53, 40, 24, 18, 20, 23, 48, 153]
40.855[41, 41, 23, 19, 24, 22, 50, 158]
40.878[38, 35, 24, 28, 31, 23, 52, 175]
40.892[37, 34, 24, 32, 37, 23, 53, 178]
40.915[38, 30, 25, 32, 38, 22, 53, 189]
40.938[33, 33, 24, 32, 37, 21, 35, 134]
40.952[31, 32, 26, 33, 36, 25, 33, 126]
40.975[34, 33, 27, 27, 33, 27, 55, 174]
40.998[34, 33, 27, 26, 29, 28, 60, 196]
41.02[34, 33, 28, 32, 44, 33, 72, 227]
41.035[33, 25, 26, 32, 48, 32, 81, 246]
41.058[37, 25, 27, 33, 49, 32, 94, 289]
41.081[32, 25, 26, 33, 49, 33, 84, 260]
41.095[32, 25, 25, 34, 51, 35, 88, 272]
41.118[31, 28, 22, 33, 39, 31, 83, 247]
41.148[31, 27, 23, 34, 54, 32, 82, 262]
41.155[29, 25, 23, 37, 72, 31, 69, 223]
41.178[31, 26, 24, 39, 76, 28, 69, 223]
41.201[37, 25, 23, 37, 76, 27, 73, 225]
41.215[43, 23, 23, 41, 77, 29, 88, 285]
41.238[41, 22, 22, 40, 65, 29, 84, 254]
41.26[40, 23, 21, 37, 43, 28, 83, 251]
41.275[39, 22, 20, 34, 36, 27, 80, 246]
41.298[40, 22, 21, 36, 53, 31, 104, 314]
41.321[33, 22, 22, 30, 52, 28, 91, 265]
41.335[33, 21, 23, 44, 54, 29, 91, 263]
41.358[34, 21, 23, 46, 56, 28, 91, 261]
41.38[33, 21, 22, 47, 56, 32, 91, 261]
41.395[36, 22, 22, 45, 43, 28, 88, 288]
41.418[37, 22, 21, 44, 42, 29, 87, 287]
41.44[38, 24, 19, 32, 39, 28, 87, 290]
41.455[39, 27, 20, 30, 43, 31, 87, 292]
41.479[38, 26, 22, 31, 42, 29, 88, 292]
41.5[28, 25, 20, 33, 40, 31, 63, 185]
41.515[32, 24, 19, 34, 39, 30, 71, 231]
41.538[30, 23, 22, 31, 38, 29, 73, 237]
41.56[29, 19, 21, 29, 30, 26, 72, 232]
41.575[30, 18, 19, 27, 31, 26, 72, 235]
41.598[27, 17, 19, 22, 24, 22, 58, 197]
41.621[37, 18, 22, 21, 22, 36, 102, 293]
41.635[39, 23, 22, 22, 21, 37, 105, 297]
41.658[41, 24, 23, 21, 21, 37, 107, 306]
41.681[42, 24, 22, 20, 24, 38, 109, 309]
41.703[43, 26, 23, 23, 31, 41, 117, 332]
41.726[31, 25, 20, 26, 35, 31, 73, 218]
41.741[30, 22, 19, 25, 35, 30, 74, 224]
41.755[27, 21, 19, 25, 36, 29, 72, 222]
41.778[26, 22, 21, 26, 35, 28, 70, 218]
41.801[25, 21, 20, 24, 29, 26, 56, 182]
41.815[25, 22, 21, 19, 25, 27, 60, 173]
41.838[27, 23, 22, 20, 24, 27, 59, 179]
41.86[31, 23, 20, 20, 22, 27, 69, 210]
41.875[32, 23, 18, 18, 20, 28, 70, 213]
41.898[32, 21, 19, 22, 23, 27, 70, 212]
41.921[32, 20, 20, 22, 21, 26, 67, 201]
41.935[34, 20, 19, 22, 23, 28, 72, 219]
41.958[32, 20, 22, 22, 25, 29, 66, 193]
41.981[31, 19, 22, 22, 26, 27, 65, 187]
42.003[31, 21, 23, 16, 24, 28, 65, 186]
42.018[32, 23, 21, 17, 25, 31, 66, 212]
42.04[27, 23, 20, 17, 24, 32, 52, 157]
42.063[28, 23, 20, 34, 22, 34, 53, 177]
42.078[27, 25, 21, 42, 22, 34, 51, 179]
42.1[28, 24, 19, 44, 21, 33, 55, 188]
42.123[28, 22, 20, 44, 20, 29, 57, 164]
42.138[33, 22, 20, 46, 20, 27, 65, 209]
42.16[37, 25, 19, 35, 21, 25, 69, 211]
42.183[39, 25, 19, 28, 25, 26, 69, 208]
42.198[40, 24, 19, 27, 25, 26, 66, 207]
42.221[39, 24, 20, 26, 25, 27, 59, 201]
42.243[34, 25, 21, 22, 25, 27, 49, 152]
42.258[26, 21, 22, 22, 24, 26, 34, 100]
42.281[40, 21, 20, 19, 21, 39, 101, 307]
42.303[41, 22, 23, 20, 21, 41, 108, 318]
42.325[40, 23, 21, 20, 22, 41, 110, 322]
42.34[42, 20, 22, 20, 21, 41, 114, 329]
42.363[43, 19, 21, 19, 21, 41, 114, 331]
42.378[28, 21, 23, 18, 20, 26, 64, 161]
42.4[25, 21, 20, 14, 19, 24, 51, 125]
42.423[25, 20, 21, 15, 19, 22, 48, 107]
42.439[24, 23, 20, 16, 22, 23, 51, 152]
42.46[28, 25, 20, 17, 23, 23, 61, 191]
42.483[30, 23, 18, 18, 22, 25, 64, 196]
42.497[30, 23, 20, 21, 23, 22, 65, 198]
42.52[28, 24, 21, 21, 24, 23, 65, 199]
42.543[25, 23, 22, 20, 22, 20, 53, 151]
42.557[20, 21, 23, 21, 23, 20, 37, 86]
42.58[16, 19, 23, 21, 22, 18, 28, 56]
42.603[24, 19, 22, 20, 22, 19, 44, 139]
42.617[27, 21, 21, 21, 23, 20, 45, 143]
42.641[28, 20, 20, 21, 23, 19, 46, 145]
42.662[34, 21, 18, 20, 23, 22, 86, 235]
42.685[34, 23, 18, 21, 22, 23, 90, 243]
42.701[31, 23, 18, 21, 22, 25, 86, 216]
42.723[28, 20, 15, 19, 19, 26, 87, 215]
42.745[30, 21, 16, 21, 20, 27, 91, 231]
42.761[25, 19, 16, 21, 19, 24, 65, 193]
42.782[26, 21, 16, 20, 19, 24, 62, 187]
42.805[24, 23, 18, 20, 20, 24, 57, 174]
42.821[24, 22, 20, 21, 20, 22, 55, 172]
42.842[25, 23, 19, 19, 19, 22, 53, 150]
42.865[24, 24, 21, 19, 19, 24, 41, 80]
42.881[24, 21, 21, 19, 19, 24, 41, 76]
42.902[22, 20, 20, 19, 19, 22, 42, 77]
42.925[24, 21, 19, 19, 19, 22, 45, 83]
42.941[24, 21, 22, 20, 19, 23, 50, 144]
42.962[24, 22, 23, 19, 19, 23, 55, 154]
42.985[23, 23, 23, 21, 19, 22, 54, 154]
43.001[23, 21, 23, 22, 19, 21, 54, 153]
43.03[21, 22, 23, 22, 18, 21, 51, 149]
43.045[18, 20, 21, 21, 18, 20, 38, 89]
43.061[21, 20, 20, 22, 19, 17, 38, 94]
43.082[26, 21, 22, 24, 18, 18, 46, 146]
43.105[33, 23, 23, 23, 19, 18, 64, 208]
43.121[36, 22, 22, 22, 18, 19, 67, 215]
43.142[35, 21, 22, 23, 18, 18, 67, 215]
43.172[33, 20, 22, 25, 18, 18, 61, 206]
43.182[29, 19, 20, 20, 19, 19, 55, 172]
43.202[25, 19, 22, 20, 19, 19, 45, 125]
43.225[23, 20, 22, 22, 20, 21, 52, 159]
43.241[26, 20, 23, 22, 20, 22, 60, 169]
43.262[26, 21, 22, 20, 21, 23, 60, 171]
43.285[26, 21, 22, 21, 21, 24, 61, 171]
43.3[24, 21, 19, 21, 21, 24, 53, 147]
43.322[35, 22, 21, 19, 22, 20, 48, 97]
43.345[81, 34, 17, 18, 22, 19, 37, 77]
43.36[116, 46, 23, 20, 22, 20, 50, 154]
43.383[119, 47, 26, 21, 22, 19, 49, 157]
43.405[123, 47, 25, 21, 21, 19, 49, 158]
43.42[123, 47, 25, 22, 21, 20, 45, 156]
43.442[101, 39, 27, 23, 20, 21, 45, 156]
43.465[60, 26, 23, 21, 20, 20, 27, 72]
43.48[56, 23, 21, 19, 21, 22, 38, 83]
43.502[47, 22, 22, 19, 22, 23, 37, 79]
43.525[55, 21, 22, 18, 22, 22, 54, 162]
43.54[53, 21, 21, 17, 23, 22, 54, 166]
43.562[49, 20, 23, 17, 21, 22, 57, 168]
43.585[47, 20, 23, 18, 20, 19, 51, 161]
43.6[47, 21, 23, 19, 19, 18, 50, 162]
43.622[26, 22, 23, 21, 18, 20, 34, 78]
43.645[23, 21, 22, 21, 19, 21, 33, 65]
43.669[21, 22, 21, 22, 20, 19, 26, 53]
43.682[29, 24, 21, 21, 20, 20, 38, 136]
43.705[30, 23, 22, 20, 21, 23, 41, 142]
43.72[30, 22, 21, 19, 22, 22, 53, 167]
43.75[30, 22, 21, 19, 23, 22, 54, 169]
43.765[31, 22, 21, 20, 22, 22, 54, 172]
43.78[24, 18, 20, 20, 21, 21, 47, 116]
43.802[23, 18, 21, 20, 21, 19, 44, 107]
43.825[33, 19, 21, 20, 19, 18, 34, 63]
43.84[32, 19, 21, 22, 17, 19, 34, 56]
43.864[40, 19, 22, 21, 18, 20, 45, 144]
43.885[39, 21, 24, 23, 17, 22, 44, 148]
43.907[40, 20, 22, 22, 17, 23, 45, 152]
43.924[31, 21, 23, 23, 20, 22, 41, 154]
43.946[33, 21, 24, 21, 21, 22, 45, 159]
43.968[35, 22, 23, 20, 22, 22, 32, 84]
43.982[35, 22, 23, 21, 21, 21, 31, 72]
44.005[35, 23, 24, 22, 21, 21, 28, 59]
44.027[34, 20, 22, 20, 19, 23, 28, 49]
44.043[32, 20, 22, 20, 19, 21, 17, 32]
44.073[22, 21, 22, 22, 18, 22, 25, 77]
44.087[24, 20, 21, 20, 19, 22, 39, 135]
44.102[25, 21, 22, 20, 21, 22, 41, 144]
44.125[25, 21, 23, 20, 21, 21, 42, 147]
44.147[34, 22, 24, 21, 21, 23, 44, 150]
44.163[34, 21, 23, 18, 22, 21, 40, 132]
44.185[34, 20, 23, 18, 21, 20, 26, 72]
44.216[32, 19, 23, 19, 20, 20, 31, 58]
44.223[33, 19, 23, 21, 21, 18, 30, 47]
44.245[24, 19, 21, 20, 22, 19, 30, 39]
44.268[22, 19, 21, 21, 23, 19, 33, 38]
44.284[21, 20, 22, 22, 23, 19, 32, 36]
44.305[25, 20, 22, 22, 23, 19, 40, 135]
44.327[35, 21, 21, 21, 21, 21, 41, 142]
44.342[35, 22, 22, 20, 22, 21, 46, 151]
44.365[34, 21, 23, 19, 21, 21, 46, 154]
44.387[35, 20, 22, 18, 20, 21, 47, 155]
44.402[32, 19, 21, 18, 21, 23, 35, 82]
44.425[21, 20, 20, 20, 21, 21, 35, 70]
44.447[20, 19, 22, 21, 20, 20, 25, 46]
44.462[35, 20, 21, 21, 19, 20, 25, 73]
44.485[39, 21, 19, 20, 22, 20, 43, 130]
44.507[41, 23, 20, 21, 20, 20, 46, 137]
44.522[41, 22, 22, 19, 20, 19, 46, 140]
44.545[42, 22, 20, 19, 20, 21, 48, 143]
44.567[32, 22, 22, 19, 21, 22, 46, 128]
44.584[27, 22, 23, 20, 21, 22, 29, 69]
44.605[26, 20, 22, 21, 22, 21, 29, 53]
44.627[27, 20, 22, 21, 22, 20, 45, 149]
44.642[36, 20, 23, 21, 22, 18, 46, 154]
44.665[35, 20, 21, 21, 23, 17, 47, 157]
44.688[35, 20, 22, 21, 22, 20, 47, 159]
44.702[34, 20, 21, 20, 21, 20, 45, 160]
44.725[31, 20, 22, 18, 23, 21, 28, 77]
44.748[21, 19, 19, 17, 21, 21, 29, 64]
44.762[20, 20, 18, 19, 21, 22, 28, 51]
44.785[22, 20, 20, 20, 20, 20, 27, 44]
44.807[25, 21, 22, 20, 21, 20, 27, 37]
44.83[31, 22, 21, 22, 20, 19, 28, 59]
44.845[32, 23, 23, 22, 19, 21, 38, 142]
44.867[33, 22, 22, 20, 20, 19, 43, 149]
44.89[33, 22, 21, 19, 21, 19, 45, 155]
44.906[31, 22, 20, 18, 21, 19, 45, 157]
44.927[25, 21, 22, 16, 22, 18, 44, 150]
44.95[24, 23, 19, 17, 22, 17, 36, 77]
44.973[33, 25, 22, 16, 21, 18, 29, 64]
44.987[35, 24, 22, 18, 20, 17, 27, 50]
45.009[35, 25, 21, 21, 18, 17, 33, 46]
45.025[36, 24, 19, 20, 18, 21, 48, 141]
45.047[35, 22, 22, 20, 17, 20, 47, 146]
45.07[26, 19, 23, 22, 17, 20, 48, 148]
45.085[21, 20, 22, 20, 18, 20, 48, 150]
45.107[27, 17, 22, 19, 21, 21, 45, 152]
45.131[33, 19, 23, 20, 21, 20, 33, 75]
45.145[35, 20, 22, 21, 21, 20, 31, 62]
45.167[37, 21, 19, 19, 20, 19, 31, 54]
45.198[37, 21, 21, 20, 20, 19, 31, 48]
45.205[34, 21, 21, 20, 18, 16, 30, 42]
45.228[31, 21, 20, 21, 20, 19, 38, 133]
45.251[41, 23, 21, 21, 21, 20, 38, 139]
45.265[41, 21, 22, 21, 25, 20, 37, 145]
45.296[41, 21, 21, 20, 24, 21, 37, 148]
45.311[40, 20, 20, 20, 23, 22, 37, 148]
45.333[36, 19, 21, 20, 23, 19, 23, 73]
45.347[21, 18, 19, 20, 21, 20, 29, 62]
45.37[18, 19, 18, 19, 20, 21, 30, 47]
45.385[20, 20, 18, 21, 20, 19, 30, 39]
45.407[29, 25, 19, 21, 22, 19, 29, 38]
45.43[30, 25, 19, 19, 21, 18, 44, 142]
45.445[31, 24, 19, 19, 23, 19, 43, 148]
45.467[33, 24, 19, 21, 21, 18, 46, 151]
45.491[33, 23, 19, 19, 20, 20, 47, 154]
45.505[26, 18, 18, 17, 19, 19, 48, 155]
45.527[26, 19, 19, 19, 19, 21, 34, 76]
45.55[31, 22, 19, 19, 18, 19, 31, 62]
45.565[30, 22, 21, 19, 19, 20, 27, 54]
45.588[29, 24, 22, 19, 22, 20, 26, 43]
45.611[33, 24, 22, 21, 20, 20, 47, 157]
45.625[32, 25, 23, 19, 20, 19, 47, 162]
45.647[26, 24, 23, 19, 20, 20, 48, 166]
45.671[25, 23, 21, 18, 20, 19, 47, 170]
45.685[30, 23, 21, 18, 17, 18, 48, 173]
45.708[27, 23, 21, 18, 18, 19, 27, 86]
45.731[25, 20, 20, 18, 18, 20, 33, 73]
45.745[28, 20, 21, 18, 17, 21, 38, 109]
45.768[28, 21, 21, 19, 16, 20, 44, 149]
45.79[23, 20, 21, 19, 17, 20, 45, 153]
45.813[24, 21, 22, 20, 17, 21, 46, 155]
45.828[32, 23, 21, 19, 19, 20, 43, 155]
45.851[29, 23, 21, 19, 20, 18, 37, 128]
45.873[29, 23, 21, 18, 21, 19, 33, 72]
45.887[30, 24, 20, 20, 21, 18, 30, 54]
45.91[30, 22, 21, 18, 22, 17, 30, 42]
45.933[23, 20, 21, 20, 22, 17, 26, 38]
45.947[29, 20, 20, 20, 21, 17, 41, 142]
45.97[32, 19, 21, 20, 20, 18, 44, 148]
45.993[35, 19, 21, 18, 21, 20, 46, 153]
46.007[35, 19, 21, 18, 20, 18, 45, 155]
46.03[35, 20, 21, 19, 20, 18, 46, 157]
46.053[30, 20, 22, 18, 20, 18, 34, 75]
46.067[28, 20, 21, 20, 20, 18, 26, 60]
46.091[22, 20, 24, 21, 20, 16, 23, 46]
46.113[27, 20, 23, 21, 21, 18, 44, 118]
46.127[28, 21, 24, 19, 21, 17, 49, 148]
46.15[29, 20, 24, 20, 23, 17, 51, 152]
46.174[28, 21, 24, 17, 23, 18, 51, 156]
46.187[29, 23, 21, 18, 23, 18, 52, 157]
46.21[24, 22, 22, 18, 23, 20, 37, 113]
46.233[23, 22, 21, 18, 22, 20, 35, 68]
46.248[28, 24, 19, 19, 22, 20, 32, 55]
46.27[29, 24, 20, 19, 23, 20, 31, 45]
46.293[28, 23, 20, 17, 22, 19, 30, 40]
46.307[33, 26, 20, 18, 22, 21, 42, 142]
46.33[34, 26, 19, 18, 24, 20, 40, 146]
46.353[29, 24, 20, 17, 22, 20, 40, 150]
46.367[28, 24, 20, 16, 22, 21, 44, 153]
46.39[27, 24, 22, 18, 22, 23, 43, 154]
46.413[31, 22, 25, 16, 22, 20, 31, 74]
46.427[30, 22, 26, 19, 19, 22, 30, 62]
46.451[31, 22, 26, 20, 18, 22, 29, 52]
46.473[32, 21, 26, 20, 18, 22, 23, 45]
46.487[33, 20, 25, 19, 20, 20, 31, 44]
46.51[28, 20, 22, 21, 21, 21, 46, 146]
46.533[30, 21, 21, 21, 22, 20, 47, 153]
46.547[30, 21, 23, 21, 23, 23, 47, 157]
46.57[29, 21, 21, 21, 23, 22, 48, 159]
46.593[38, 21, 20, 21, 22, 23, 44, 161]
46.607[34, 20, 20, 19, 21, 23, 25, 78]
46.63[33, 21, 23, 19, 21, 22, 24, 61]
46.653[33, 21, 19, 19, 22, 19, 30, 52]
46.667[32, 20, 21, 19, 20, 18, 28, 44]
46.691[22, 19, 23, 18, 20, 19, 27, 36]
46.721[22, 21, 23, 20, 20, 17, 28, 30]
46.735[20, 21, 20, 18, 19, 20, 28, 28]
46.75[18, 20, 20, 17, 19, 19, 19, 24]
46.781[20, 21, 18, 17, 19, 18, 20, 23]
46.795[28, 21, 20, 19, 19, 20, 28, 31]
46.81[29, 20, 20, 19, 20, 21, 28, 30]
46.833[30, 16, 18, 19, 19, 20, 27, 29]
46.856[32, 20, 20, 20, 19, 20, 28, 30]
46.878[31, 20, 22, 23, 20, 21, 28, 30]
46.893[24, 20, 21, 21, 19, 20, 21, 22]
46.916[22, 20, 23, 20, 20, 21, 22, 22]
46.938[20, 22, 24, 21, 21, 20, 25, 27]
46.953[19, 21, 24, 21, 23, 19, 26, 25]
46.976[19, 21, 24, 18, 22, 19, 26, 27]
46.998[19, 21, 22, 19, 23, 18, 26, 26]
47.013[32, 23, 23, 19, 21, 17, 27, 25]
47.035[32, 22, 23, 18, 19, 17, 23, 20]
47.058[33, 22, 21, 18, 19, 19, 29, 26]
47.073[32, 22, 23, 19, 19, 18, 28, 24]
47.096[32, 22, 23, 19, 18, 19, 28, 24]
47.11[21, 20, 22, 18, 19, 18, 27, 25]
47.133[20, 19, 23, 19, 21, 19, 27, 24]
47.155[17, 19, 23, 20, 21, 19, 20, 18]
47.17[18, 19, 20, 19, 23, 19, 22, 19]
47.193[18, 19, 24, 19, 23, 19, 29, 26]
47.215[17, 19, 22, 21, 23, 19, 30, 27]
47.23[26, 20, 21, 21, 23, 18, 32, 29]
47.253[27, 18, 20, 21, 22, 17, 31, 29]
47.276[26, 20, 22, 22, 20, 19, 30, 29]
47.29[27, 18, 20, 21, 22, 17, 22, 24]
47.313[27, 20, 20, 19, 21, 17, 21, 22]
47.336[20, 21, 20, 19, 20, 19, 25, 27]
47.35[18, 22, 21, 18, 20, 20, 25, 27]
47.373[24, 22, 21, 20, 21, 18, 26, 30]
47.396[30, 23, 20, 21, 19, 19, 27, 29]
47.41[30, 25, 21, 21, 18, 19, 27, 31]
47.433[31, 23, 21, 21, 19, 19, 22, 27]
47.456[33, 23, 20, 22, 19, 19, 24, 27]
47.47[30, 23, 19, 22, 18, 20, 28, 31]
47.493[25, 25, 20, 23, 19, 20, 28, 30]
47.515[24, 22, 20, 22, 19, 20, 29, 31]
47.53[25, 22, 20, 22, 20, 20, 41, 140]
47.553[23, 22, 22, 21, 19, 19, 42, 149]
47.575[21, 21, 22, 19, 19, 19, 38, 152]
47.59[20, 19, 20, 19, 23, 18, 41, 154]
47.613[21, 20, 19, 19, 24, 18, 41, 155]
47.635[18, 20, 20, 20, 23, 18, 30, 78]
47.657[18, 20, 19, 18, 24, 19, 30, 60]
47.674[21, 21, 20, 20, 24, 18, 30, 50]
47.696[34, 21, 19, 19, 20, 19, 27, 43]
47.718[34, 20, 20, 18, 21, 19, 34, 40]
47.74[35, 19, 21, 18, 21, 18, 32, 31]
47.754[35, 20, 21, 18, 20, 17, 31, 30]
47.777[34, 19, 20, 17, 21, 18, 30, 29]
47.794[22, 18, 21, 16, 20, 20, 30, 28]
47.815[21, 19, 20, 20, 22, 19, 20, 24]
47.838[19, 20, 21, 21, 22, 20, 21, 21]
47.854[31, 18, 20, 20, 22, 21, 29, 25]
47.877[33, 18, 21, 22, 23, 21, 45, 138]
47.897[33, 18, 21, 22, 24, 19, 46, 145]
47.914[35, 20, 21, 20, 19, 19, 48, 149]
47.934[36, 19, 21, 20, 18, 19, 49, 152]
47.959[26, 20, 20, 21, 18, 18, 44, 152]
47.974[23, 20, 20, 19, 17, 19, 28, 70]
47.995[24, 21, 21, 19, 18, 20, 31, 57]
48.019[21, 20, 21, 17, 19, 21, 31, 47]
48.034[19, 19, 20, 16, 19, 20, 31, 39]
48.055[19, 19, 22, 15, 19, 21, 31, 35]
48.077[18, 19, 23, 17, 19, 18, 29, 29]
48.108[17, 16, 22, 17, 19, 18, 22, 26]
48.115[17, 15, 21, 17, 21, 17, 20, 24]
48.137[18, 17, 21, 17, 21, 17, 25, 28]
48.153[18, 17, 20, 20, 21, 19, 24, 28]
48.175[19, 17, 21, 18, 21, 20, 25, 27]
48.205[19, 17, 20, 20, 20, 20, 26, 26]
48.213[20, 17, 20, 22, 17, 20, 25, 25]
48.235[21, 17, 21, 22, 18, 20, 19, 19]
48.257[22, 17, 20, 20, 17, 18, 21, 22]
48.274[22, 18, 20, 21, 18, 16, 21, 23]
48.295[24, 20, 22, 19, 20, 18, 26, 28]
48.317[22, 21, 20, 18, 20, 17, 26, 29]
48.334[20, 20, 20, 18, 20, 18, 25, 29]
48.362[21, 21, 21, 18, 21, 18, 25, 28]
48.377[20, 19, 19, 17, 20, 19, 25, 28]
48.395[18, 18, 17, 20, 19, 17, 20, 23]
48.414[19, 18, 18, 21, 20, 19, 25, 32]
48.445[19, 18, 21, 21, 20, 18, 25, 31]
48.454[19, 17, 21, 21, 19, 18, 25, 33]
48.475[18, 19, 22, 24, 19, 17, 26, 32]
48.497[20, 20, 21, 23, 18, 18, 26, 35]
48.513[20, 19, 20, 22, 17, 16, 21, 26]
48.535[20, 20, 17, 23, 18, 17, 21, 25]
48.558[21, 21, 18, 23, 19, 16, 29, 31]
48.58[22, 20, 17, 20, 18, 17, 28, 30]
48.594[21, 20, 20, 21, 19, 17, 30, 30]
48.617[21, 21, 23, 21, 19, 18, 32, 30]
48.641[21, 20, 23, 21, 21, 18, 32, 30]
48.679[20, 21, 23, 21, 21, 19, 26, 22]
48.68[19, 22, 24, 21, 22, 20, 26, 23]
48.7[20, 22, 23, 21, 21, 22, 22, 20]
48.722[20, 21, 21, 20, 22, 22, 22, 19]
48.745[20, 22, 22, 20, 20, 22, 21, 19]
48.76[20, 22, 23, 18, 21, 22, 19, 19]
48.775[21, 22, 23, 19, 21, 23, 28, 25]
48.805[19, 22, 23, 18, 20, 21, 28, 25]
48.82[20, 21, 22, 18, 21, 20, 27, 25]
48.836[20, 21, 20, 18, 20, 20, 28, 25]
48.857[20, 22, 21, 18, 21, 18, 27, 26]
48.879[18, 23, 21, 18, 21, 18, 19, 21]
48.895[18, 22, 20, 18, 22, 18, 19, 22]
48.919[17, 24, 20, 18, 22, 17, 19, 20]
48.94[16, 24, 21, 19, 22, 18, 29, 27]
48.955[16, 23, 20, 19, 22, 17, 29, 26]
48.977[17, 22, 21, 18, 21, 16, 29, 26]
49.0[18, 23, 20, 18, 21, 17, 31, 29]
49.015[18, 22, 21, 18, 22, 22, 30, 29]
49.037[19, 21, 22, 17, 21, 21, 19, 23]
49.06[20, 23, 22, 18, 21, 22, 20, 23]
49.082[19, 22, 19, 18, 22, 22, 19, 22]
49.097[19, 21, 21, 19, 22, 21, 17, 20]
49.12[19, 20, 19, 20, 21, 18, 18, 20]
49.142[18, 21, 19, 20, 21, 20, 22, 20]
49.157[18, 19, 20, 20, 20, 21, 28, 26]
49.18[19, 18, 20, 20, 21, 21, 29, 26]
49.196[20, 19, 21, 20, 20, 19, 28, 26]
49.217[19, 19, 20, 19, 19, 20, 28, 25]
49.24[20, 19, 20, 20, 22, 19, 28, 24]
49.255[19, 19, 19, 19, 21, 18, 21, 17]
49.279[19, 20, 20, 20, 20, 19, 21, 20]
49.308[20, 19, 20, 19, 19, 19, 21, 19]
49.315[22, 19, 21, 21, 20, 19, 30, 25]
49.337[20, 17, 21, 21, 19, 20, 28, 25]
49.36[19, 20, 22, 22, 19, 22, 29, 27]
49.375[19, 19, 20, 22, 18, 22, 30, 26]
49.397[20, 20, 21, 22, 18, 22, 30, 25]
49.42[19, 20, 21, 21, 19, 21, 21, 21]
49.435[21, 21, 21, 19, 19, 19, 23, 22]
49.457[21, 21, 20, 18, 19, 18, 21, 20]
49.481[21, 22, 20, 19, 20, 17, 21, 21]
49.494[18, 23, 18, 19, 21, 18, 25, 25]
49.517[18, 22, 16, 20, 20, 18, 27, 26]
49.54[17, 23, 18, 19, 19, 18, 26, 25]
49.555[17, 21, 18, 18, 19, 17, 27, 26]
49.578[17, 21, 18, 19, 19, 18, 26, 28]
49.6[17, 21, 19, 17, 19, 19, 22, 23]
49.622[16, 21, 22, 17, 19, 19, 19, 22]
49.639[17, 19, 21, 19, 20, 19, 21, 22]
49.676[17, 21, 21, 21, 19, 23, 19, 21]
49.682[20, 20, 20, 20, 20, 24, 27, 25]
49.698[21, 21, 21, 22, 19, 23, 27, 26]
49.72[22, 23, 21, 21, 20, 23, 29, 27]
49.759[22, 22, 21, 21, 19, 23, 29, 27]
49.76[22, 23, 22, 20, 19, 20, 31, 29]
49.78[20, 23, 24, 22, 20, 19, 24, 24]
49.802[20, 23, 23, 22, 21, 18, 23, 24]
49.817[20, 22, 23, 23, 19, 17, 21, 22]
49.84[19, 22, 24, 22, 18, 18, 21, 23]
49.87[20, 20, 25, 22, 20, 16, 24, 28]
49.877[21, 19, 25, 21, 20, 17, 26, 28]
49.9[21, 19, 26, 18, 21, 17, 28, 29]
49.922[22, 18, 24, 16, 22, 18, 28, 29]
49.946[21, 18, 24, 16, 23, 17, 28, 28]
49.96[20, 20, 23, 17, 23, 19, 22, 22]
49.99[21, 19, 22, 14, 22, 19, 21, 21]
49.997[20, 20, 20, 17, 21, 20, 21, 20]
50.02[20, 20, 21, 18, 22, 20, 23, 22]
50.042[21, 20, 20, 19, 21, 22, 28, 32]
50.058[21, 19, 21, 19, 20, 21, 29, 31]
50.08[19, 21, 21, 20, 21, 21, 29, 31]
50.11[20, 21, 22, 19, 20, 20, 29, 32]
50.117[20, 22, 22, 18, 20, 20, 28, 32]
50.14[18, 23, 24, 20, 22, 18, 22, 22]
50.162[17, 25, 24, 20, 21, 19, 23, 23]
50.177[18, 23, 22, 21, 21, 18, 23, 23]
50.2[16, 22, 22, 20, 22, 21, 28, 26]
50.222[17, 21, 21, 22, 23, 20, 27, 26]
50.237[19, 21, 19, 20, 22, 19, 27, 25]
50.26[19, 20, 17, 20, 22, 18, 27, 25]
50.282[19, 22, 18, 19, 24, 19, 27, 25]
50.297[20, 22, 18, 22, 24, 19, 22, 19]
50.32[20, 22, 18, 21, 22, 20, 23, 21]
50.342[19, 24, 18, 21, 21, 19, 22, 22]
50.357[19, 22, 18, 20, 22, 20, 26, 26]
50.38[20, 20, 20, 21, 19, 20, 25, 25]
50.402[19, 22, 20, 19, 19, 19, 23, 27]
50.417[18, 23, 20, 20, 21, 19, 21, 25]
50.44[21, 21, 22, 22, 21, 20, 23, 25]
50.462[22, 22, 22, 21, 21, 19, 20, 20]
50.477[22, 22, 20, 22, 21, 20, 20, 22]
50.5[21, 22, 21, 21, 22, 20, 20, 23]
50.53[20, 23, 22, 20, 20, 19, 21, 23]
50.545[18, 24, 20, 20, 20, 21, 28, 30]
50.56[18, 24, 20, 21, 21, 20, 27, 30]
50.591[17, 24, 20, 20, 22, 19, 28, 29]
50.605[17, 23, 20, 21, 20, 18, 29, 27]
50.62[18, 22, 20, 22, 21, 21, 29, 28]
50.643[16, 22, 20, 21, 21, 19, 22, 18]
50.665[16, 21, 21, 21, 20, 19, 20, 19]
50.68[17, 22, 22, 21, 22, 18, 26, 24]
50.703[18, 19, 22, 22, 24, 17, 26, 25]
50.725[19, 19, 21, 20, 23, 16, 28, 27]
50.74[18, 19, 22, 20, 23, 14, 28, 27]
50.763[20, 20, 21, 20, 22, 17, 29, 27]
50.785[20, 18, 21, 19, 21, 20, 23, 24]
50.808[19, 21, 21, 18, 18, 20, 22, 21]
50.823[18, 20, 20, 19, 18, 20, 19, 19]
50.845[18, 21, 20, 21, 18, 23, 19, 18]
50.86[17, 19, 20, 19, 18, 21, 25, 18]
50.89[17, 20, 19, 19, 18, 19, 26, 18]
50.905