[20, 23, 22, 24, 17, 25, 27, 48]
1.175[22, 22, 21, 23, 16, 25, 36, 33]
1.2[21, 23, 22, 26, 16, 25, 31, 32]
1.214[21, 23, 21, 27, 16, 23, 31, 32]
1.236[25, 31, 19, 26, 16, 19, 32, 29]
1.252[26, 39, 22, 23, 16, 17, 32, 26]
1.275[24, 40, 22, 24, 17, 17, 24, 24]
1.298[24, 40, 21, 21, 17, 20, 23, 25]
1.312[23, 38, 21, 20, 17, 23, 23, 23]
1.334[21, 32, 23, 23, 20, 22, 24, 24]
1.355[20, 22, 20, 21, 21, 23, 23, 24]
1.372[20, 20, 21, 20, 25, 24, 22, 27]
1.402[22, 21, 20, 21, 26, 22, 25, 28]
1.415[26, 23, 24, 21, 25, 19, 25, 30]
1.438[25, 26, 23, 19, 24, 21, 24, 31]
1.455[25, 37, 23, 24, 25, 24, 25, 28]
1.476[26, 40, 24, 24, 21, 24, 24, 26]
1.492[25, 41, 24, 25, 21, 26, 25, 26]
1.515[22, 41, 25, 26, 21, 26, 26, 28]
1.535[22, 40, 24, 26, 24, 26, 26, 28]
1.552[21, 41, 23, 21, 23, 24, 27, 30]
1.574[22, 43, 23, 22, 24, 24, 28, 31]
1.596[22, 43, 25, 20, 24, 27, 27, 32]
1.612[22, 42, 22, 18, 25, 29, 27, 29]
1.634[22, 42, 24, 18, 24, 29, 27, 27]
1.656[24, 31, 27, 19, 24, 30, 27, 28]
1.672[23, 26, 28, 19, 24, 31, 28, 29]
1.694[24, 22, 26, 20, 25, 28, 27, 25]
1.716[23, 23, 26, 19, 25, 28, 26, 24]
1.732[21, 23, 24, 21, 24, 27, 26, 26]
1.754[20, 21, 21, 21, 25, 24, 24, 24]
1.783[18, 21, 19, 25, 24, 26, 26, 25]
1.792[18, 26, 20, 24, 24, 26, 27, 26]
1.814[19, 23, 19, 25, 24, 24, 27, 26]
1.836[19, 24, 19, 23, 23, 34, 27, 26]
1.852[18, 27, 21, 24, 21, 36, 28, 32]
1.872[20, 25, 21, 20, 22, 34, 24, 28]
1.895[20, 21, 20, 23, 21, 34, 25, 28]
1.911[19, 23, 20, 23, 19, 34, 24, 28]
1.932[19, 21, 20, 25, 20, 25, 24, 31]
1.955[20, 18, 19, 23, 20, 27, 22, 25]
1.977[18, 19, 21, 22, 17, 27, 23, 25]
1.992[18, 19, 20, 22, 19, 28, 21, 26]
2.015[18, 19, 23, 22, 19, 28, 22, 26]
2.037[18, 20, 22, 21, 20, 29, 21, 19]
2.052[16, 22, 23, 22, 21, 25, 22, 20]
2.075[18, 24, 22, 22, 23, 25, 21, 21]
2.097[17, 24, 23, 21, 22, 21, 20, 19]
2.12[18, 23, 22, 19, 23, 26, 21, 19]
2.135[18, 25, 22, 19, 24, 28, 21, 20]
2.157[18, 23, 23, 19, 23, 27, 22, 18]
2.18[15, 21, 22, 20, 21, 26, 22, 20]
2.195[16, 21, 22, 20, 22, 28, 21, 19]
2.217[18, 26, 23, 23, 20, 24, 21, 23]
2.24[19, 24, 23, 22, 19, 19, 21, 21]
2.255[21, 24, 22, 22, 19, 19, 20, 22]
2.277[21, 23, 24, 22, 20, 20, 20, 20]
2.3[21, 24, 25, 22, 21, 21, 20, 21]
2.315[18, 21, 24, 20, 19, 22, 18, 19]
2.337[18, 22, 24, 23, 21, 22, 22, 25]
2.36[18, 25, 24, 24, 23, 22, 21, 26]
2.376[21, 25, 23, 24, 23, 21, 22, 29]
2.405[21, 27, 21, 24, 21, 19, 30, 29]
2.42[22, 25, 22, 24, 23, 21, 31, 30]
2.435[23, 23, 21, 22, 23, 22, 29, 25]
2.457[22, 21, 22, 22, 22, 22, 29, 23]
2.48[20, 23, 22, 22, 22, 26, 29, 18]
2.502[18, 20, 21, 23, 23, 25, 22, 17]
2.517[17, 19, 21, 23, 21, 24, 19, 15]
2.54[19, 20, 24, 23, 21, 23, 19, 17]
2.562[19, 21, 22, 21, 21, 24, 22, 17]
2.577[22, 22, 22, 23, 20, 20, 23, 20]
2.601[22, 22, 24, 22, 19, 21, 23, 24]
2.622[24, 23, 25, 21, 20, 25, 24, 23]
2.637[22, 22, 23, 20, 19, 24, 25, 23]
2.66[21, 20, 23, 19, 18, 23, 21, 26]
2.683[18, 20, 23, 16, 18, 24, 23, 27]
2.697[20, 23, 21, 17, 19, 23, 26, 24]
2.72[17, 20, 21, 17, 19, 18, 26, 25]
2.742[17, 24, 19, 19, 19, 17, 25, 24]
2.757[19, 25, 20, 21, 19, 16, 27, 23]
2.78[18, 25, 21, 22, 19, 15, 27, 20]
2.802[17, 22, 21, 19, 18, 18, 24, 21]
2.817[16, 23, 24, 20, 20, 18, 24, 20]
2.84[18, 22, 23, 20, 21, 19, 25, 23]
2.862[19, 21, 24, 18, 22, 25, 23, 20]
2.877[20, 20, 22, 19, 23, 27, 22, 24]
2.9[21, 23, 24, 19, 23, 25, 21, 23]
2.922[21, 22, 20, 21, 21, 27, 20, 25]
2.939[20, 20, 22, 22, 21, 30, 21, 22]
2.96[18, 20, 22, 22, 21, 26, 24, 24]
2.982[17, 21, 24, 22, 19, 27, 20, 21]
2.999[18, 19, 21, 22, 19, 28, 21, 21]
3.02[17, 21, 23, 20, 21, 27, 22, 20]
3.042[17, 21, 22, 19, 20, 22, 22, 22]
3.057[16, 22, 23, 21, 21, 24, 20, 21]
3.08[17, 20, 21, 21, 25, 24, 22, 24]
3.102[16, 23, 23, 21, 25, 25, 23, 24]
3.117[17, 22, 22, 22, 23, 25, 24, 25]
3.14[21, 22, 21, 24, 25, 34, 22, 25]
3.162[21, 22, 22, 23, 26, 33, 24, 25]
3.177[21, 22, 24, 22, 24, 31, 22, 25]
3.2[21, 19, 25, 22, 25, 30, 22, 23]
3.222[22, 20, 25, 24, 25, 31, 22, 22]
3.237[18, 20, 25, 23, 24, 23, 22, 21]
3.26[19, 20, 26, 22, 21, 24, 24, 22]
3.282[17, 22, 24, 22, 22, 25, 25, 19]
3.297[17, 23, 22, 22, 19, 28, 25, 20]
3.32[15, 27, 23, 23, 21, 36, 24, 20]
3.343[18, 28, 24, 22, 25, 38, 24, 19]
3.357[19, 27, 26, 24, 32, 49, 27, 18]
3.38[20, 26, 26, 24, 32, 55, 33, 21]
3.402[20, 26, 29, 30, 41, 84, 34, 23]
3.425[21, 24, 30, 30, 43, 97, 33, 23]
3.44[20, 22, 29, 30, 41, 99, 34, 24]
3.462[17, 21, 25, 29, 37, 97, 30, 24]
3.493[21, 21, 26, 30, 38, 95, 23, 24]
3.5[23, 20, 23, 24, 28, 72, 23, 22]
3.522[23, 18, 20, 21, 24, 51, 24, 21]
3.545[23, 18, 21, 23, 23, 45, 23, 21]
3.561[23, 23, 21, 21, 22, 38, 24, 25]
3.582[21, 22, 18, 22, 20, 35, 22, 22]
3.605[19, 23, 18, 22, 20, 30, 22, 24]
3.62[22, 23, 19, 22, 22, 26, 22, 25]
3.642[23, 23, 20, 21, 21, 25, 22, 25]
3.665[22, 19, 20, 20, 20, 26, 23, 20]
3.68[23, 21, 21, 19, 20, 25, 22, 24]
3.703[25, 20, 21, 20, 23, 23, 24, 22]
3.725[22, 20, 21, 21, 22, 23, 23, 19]
3.74[22, 21, 21, 21, 25, 30, 25, 21]
3.763[22, 22, 23, 23, 27, 31, 24, 23]
3.793[21, 20, 21, 27, 31, 40, 26, 19]
3.8[19, 20, 20, 28, 31, 40, 24, 19]
3.823[20, 22, 20, 26, 31, 41, 24, 21]
3.853[19, 22, 20, 29, 31, 36, 24, 22]
3.86[20, 22, 20, 26, 30, 34, 24, 24]
3.883[20, 23, 22, 24, 27, 25, 24, 24]
3.905[20, 22, 24, 24, 25, 27, 25, 25]
3.92[19, 20, 25, 25, 24, 24, 26, 24]
3.943[20, 20, 25, 24, 22, 28, 27, 26]
3.966[18, 24, 23, 25, 22, 28, 25, 22]
3.98[19, 23, 24, 25, 19, 25, 24, 25]
4.003[21, 24, 23, 24, 21, 25, 23, 25]
4.025[22, 24, 23, 24, 23, 25, 23, 28]
4.04[20, 24, 22, 22, 21, 24, 21, 24]
4.063[20, 22, 23, 27, 24, 24, 21, 25]
4.085[21, 22, 23, 27, 26, 27, 20, 24]
4.1[19, 22, 24, 27, 24, 26, 19, 22]
4.123[17, 22, 23, 26, 25, 27, 19, 20]
4.145[19, 22, 24, 26, 25, 26, 20, 20]
4.16[18, 22, 22, 21, 25, 27, 22, 22]
4.183[16, 23, 20, 20, 24, 28, 21, 20]
4.206[15, 22, 19, 19, 24, 29, 24, 20]
4.22[17, 21, 21, 20, 21, 31, 28, 22]
4.243[17, 24, 20, 21, 24, 37, 26, 22]
4.266[18, 25, 22, 24, 22, 38, 25, 22]
4.28[18, 26, 23, 25, 21, 38, 24, 25]
4.304[18, 26, 21, 25, 21, 38, 24, 26]
4.325[17, 28, 21, 25, 20, 35, 20, 22]
4.34[15, 23, 20, 23, 19, 30, 24, 24]
4.363[17, 22, 21, 19, 20, 32, 25, 22]
4.386[16, 21, 22, 20, 20, 31, 25, 24]
4.408[17, 22, 23, 21, 21, 32, 23, 25]
4.423[17, 19, 22, 20, 23, 32, 24, 25]
4.445[17, 22, 26, 21, 21, 32, 21, 24]
4.468[20, 21, 26, 21, 20, 28, 22, 26]
4.483[23, 21, 25, 19, 21, 28, 24, 24]
4.505[22, 24, 25, 22, 21, 28, 22, 22]
4.528[22, 23, 26, 21, 19, 28, 23, 22]
4.543[23, 21, 22, 21, 21, 28, 22, 23]
4.565[20, 22, 22, 26, 24, 29, 22, 25]
4.588[17, 22, 22, 32, 23, 27, 21, 23]
4.611[17, 19, 22, 33, 24, 25, 22, 25]
4.626[18, 21, 21, 34, 25, 36, 21, 27]
4.648[17, 22, 24, 33, 24, 36, 26, 26]
4.663[18, 23, 23, 31, 23, 36, 26, 23]
4.685[17, 22, 23, 25, 25, 36, 26, 24]
4.708[17, 21, 23, 19, 26, 36, 28, 24]
4.723[18, 19, 21, 19, 26, 27, 27, 20]
4.745[18, 18, 22, 20, 27, 30, 24, 21]
4.768[18, 18, 22, 18, 25, 28, 22, 24]
4.783[19, 20, 22, 19, 24, 29, 22, 23]
4.806[19, 21, 22, 24, 23, 30, 19, 21]
4.828[22, 23, 22, 24, 21, 27, 19, 22]
4.843[21, 22, 23, 26, 20, 23, 20, 23]
4.873[21, 23, 23, 26, 22, 27, 21, 21]
4.888[21, 21, 24, 25, 24, 27, 24, 20]
4.903[23, 23, 23, 24, 22, 28, 27, 21]
4.926[21, 22, 24, 23, 24, 31, 27, 23]
4.948[22, 21, 20, 21, 23, 32, 28, 22]
4.962[22, 19, 23, 21, 23, 30, 29, 24]
4.985[22, 26, 23, 21, 24, 35, 25, 25]
5.008[21, 24, 23, 20, 25, 36, 27, 26]
5.022[19, 24, 24, 20, 24, 34, 28, 26]
5.046[21, 25, 25, 20, 25, 33, 25, 25]
5.068[20, 27, 23, 20, 23, 34, 24, 23]
5.082[21, 20, 22, 20, 21, 33, 25, 22]
5.106[21, 21, 25, 21, 22, 32, 22, 20]
5.128[20, 22, 23, 22, 25, 34, 22, 21]
5.143[20, 22, 22, 22, 25, 33, 22, 24]
5.165[20, 20, 23, 23, 27, 32, 23, 24]
5.188[18, 22, 22, 23, 26, 30, 25, 25]
5.202[19, 23, 23, 23, 26, 28, 23, 25]
5.226[20, 23, 24, 22, 24, 26, 21, 24]
5.248[19, 22, 23, 26, 25, 27, 24, 21]
5.262[20, 23, 22, 25, 22, 26, 25, 21]
5.285[20, 23, 22, 24, 22, 24, 24, 19]
5.308[20, 20, 19, 24, 22, 26, 25, 19]
5.331[19, 20, 19, 23, 23, 24, 24, 17]
5.345[20, 23, 21, 20, 22, 22, 22, 18]
5.368[20, 21, 21, 20, 24, 25, 18, 18]
5.391[20, 21, 21, 20, 24, 26, 19, 18]
5.405[19, 22, 22, 19, 25, 26, 20, 20]
5.436[19, 22, 23, 19, 24, 29, 23, 22]
5.45[17, 21, 21, 17, 24, 28, 23, 21]
5.465[18, 23, 22, 19, 24, 27, 24, 20]
5.488[18, 21, 22, 20, 24, 25, 24, 22]
5.51[19, 23, 23, 21, 22, 24, 23, 23]
5.525[21, 24, 21, 22, 22, 22, 22, 23]
5.548[21, 23, 22, 21, 23, 22, 21, 24]
5.57[21, 23, 22, 21, 22, 24, 20, 24]
5.593[21, 24, 23, 21, 21, 25, 20, 23]
5.608[20, 23, 20, 20, 21, 24, 20, 23]
5.631[19, 23, 23, 20, 22, 24, 19, 23]
5.646[21, 24, 24, 22, 21, 24, 25, 22]
5.667[21, 22, 23, 22, 22, 27, 25, 23]
5.69[21, 23, 22, 21, 24, 27, 27, 23]
5.706[20, 23, 23, 23, 24, 27, 26, 21]
5.727[20, 23, 22, 23, 22, 28, 28, 24]
5.75[22, 21, 17, 22, 23, 27, 23, 23]
5.766[21, 22, 17, 21, 22, 22, 21, 21]
5.787[21, 20, 17, 21, 21, 23, 18, 22]
5.81[23, 19, 20, 18, 22, 23, 19, 23]
5.826[23, 19, 20, 17, 23, 22, 21, 19]
5.847[19, 19, 20, 17, 22, 25, 20, 20]
5.87[18, 19, 20, 17, 22, 26, 21, 20]
5.886[20, 19, 19, 16, 22, 24, 23, 23]
5.907[19, 18, 15, 16, 19, 23, 24, 21]
5.93[17, 19, 15, 18, 19, 25, 22, 22]
5.946[19, 21, 16, 19, 19, 24, 24, 23]
5.967[19, 21, 19, 21, 20, 25, 26, 23]
5.99[16, 24, 20, 20, 21, 26, 25, 23]
6.006[16, 24, 20, 21, 22, 27, 24, 22]
6.027[17, 23, 22, 19, 21, 25, 22, 22]
6.05[17, 22, 22, 21, 22, 26, 22, 22]
6.066[19, 22, 20, 20, 21, 26, 21, 21]
6.087[20, 21, 22, 21, 19, 25, 23, 20]
6.117[20, 22, 22, 21, 20, 25, 22, 21]
6.126[21, 23, 19, 23, 20, 25, 23, 20]
6.147[20, 23, 21, 22, 21, 23, 22, 20]
6.17[19, 22, 22, 21, 21, 26, 22, 22]
6.186[19, 23, 21, 22, 21, 25, 17, 21]
6.207[19, 20, 21, 21, 21, 27, 22, 23]
6.23[19, 21, 23, 20, 21, 30, 22, 22]
6.252[19, 20, 22, 21, 20, 31, 23, 21]
6.269[19, 21, 21, 22, 20, 29, 24, 22]
6.29[20, 19, 23, 21, 21, 30, 24, 21]
6.312[21, 22, 23, 21, 19, 29, 24, 20]
6.327[20, 20, 26, 22, 18, 25, 25, 21]
6.35[21, 21, 26, 21, 20, 24, 29, 21]
6.372[21, 21, 26, 21, 19, 23, 26, 21]
6.387[20, 21, 23, 20, 20, 22, 27, 25]
6.41[20, 19, 22, 20, 20, 24, 26, 23]
6.432[19, 21, 18, 20, 21, 25, 27, 23]
6.447[18, 21, 18, 21, 21, 23, 23, 23]
6.47[19, 26, 20, 19, 20, 25, 22, 22]
6.492[19, 27, 21, 19, 19, 25, 26, 19]
6.507[20, 26, 21, 19, 20, 22, 24, 19]
6.537[20, 27, 23, 20, 21, 23, 21, 21]
6.552[22, 26, 21, 21, 21, 23, 23, 21]
6.567[21, 23, 21, 22, 23, 21, 24, 20]
6.59[24, 23, 19, 22, 25, 22, 22, 19]
6.612[23, 23, 20, 22, 27, 24, 25, 19]
6.627[23, 21, 19, 23, 26, 25, 25, 21]
6.65[22, 21, 21, 23, 27, 26, 23, 21]
6.672[22, 19, 21, 23, 27, 25, 25, 23]
6.687[18, 20, 22, 22, 26, 27, 25, 24]
6.709[19, 21, 22, 22, 24, 25, 25, 25]
6.732[18, 22, 22, 21, 26, 23, 27, 24]
6.747[18, 23, 22, 20, 25, 23, 27, 23]
6.77[19, 24, 21, 19, 23, 22, 25, 23]
6.792[19, 22, 21, 21, 24, 23, 23, 23]
6.815[19, 22, 20, 21, 23, 25, 22, 22]
6.83[22, 21, 22, 23, 20, 26, 21, 22]
6.852[22, 19, 20, 24, 21, 27, 21, 23]
6.867[22, 19, 21, 25, 22, 30, 22, 21]
6.89[22, 20, 22, 23, 20, 25, 23, 22]
6.912[22, 22, 24, 26, 21, 26, 23, 20]
6.928[21, 22, 21, 24, 20, 26, 21, 18]
6.95[23, 23, 24, 21, 19, 27, 25, 22]
6.972[22, 24, 23, 22, 18, 23, 23, 21]
6.987[22, 24, 22, 21, 20, 24, 22, 21]
7.01[21, 21, 21, 16, 20, 22, 21, 22]
7.032[21, 22, 21, 17, 21, 22, 22, 23]
7.047[21, 22, 19, 18, 23, 21, 21, 22]
7.07[20, 21, 21, 20, 24, 24, 23, 22]
7.092[20, 22, 22, 21, 21, 25, 22, 23]
7.109[24, 23, 21, 21, 22, 24, 23, 24]
7.137[23, 23, 21, 21, 23, 25, 23, 23]
7.152[23, 23, 22, 21, 21, 27, 20, 24]
7.167[22, 21, 22, 20, 21, 24, 20, 24]
7.19[22, 21, 21, 19, 23, 22, 21, 23]
7.212[17, 20, 22, 18, 23, 24, 21, 21]
7.235[16, 18, 23, 21, 22, 23, 20, 21]
7.25[14, 19, 22, 22, 23, 20, 21, 21]
7.272[16, 19, 21, 20, 23, 22, 22, 20]
7.295[16, 20, 21, 21, 21, 27, 21, 19]
7.31[18, 58, 41, 22, 21, 27, 21, 19]
7.332[27, 97, 58, 24, 25, 27, 25, 22]
7.355[27, 100, 58, 22, 24, 27, 24, 22]
7.37[27, 101, 58, 23, 24, 28, 22, 22]
7.392[27, 102, 60, 23, 25, 23, 21, 22]
7.415[28, 95, 49, 23, 26, 23, 25, 23]
7.43[19, 55, 28, 19, 21, 21, 22, 21]
7.452[21, 50, 29, 22, 21, 21, 23, 19]
7.475[21, 48, 28, 22, 23, 20, 24, 19]
7.49[21, 50, 26, 22, 21, 22, 27, 19]
7.512[21, 50, 25, 21, 20, 21, 23, 20]
7.535[20, 53, 26, 22, 20, 24, 24, 18]
7.549[18, 54, 25, 20, 20, 24, 26, 17]
7.573[17, 55, 24, 19, 22, 26, 24, 19]
7.595[17, 53, 23, 19, 24, 26, 24, 22]
7.609[18, 33, 22, 20, 23, 29, 23, 22]
7.632[19, 27, 20, 20, 24, 28, 24, 22]
7.655[21, 24, 20, 18, 25, 26, 20, 24]
7.67[24, 31, 20, 22, 22, 25, 21, 22]
7.692[25, 38, 23, 21, 20, 24, 20, 20]
7.715[23, 57, 24, 23, 22, 22, 24, 19]
7.729[24, 61, 26, 21, 21, 21, 26, 19]
7.752[24, 69, 32, 23, 22, 21, 26, 21]
7.775[23, 89, 35, 20, 23, 24, 25, 21]
7.79[23, 93, 44, 22, 24, 27, 25, 22]
7.812[24, 101, 56, 20, 22, 25, 23, 21]
7.835[26, 160, 104, 23, 22, 26, 20, 26]
7.851[27, 168, 114, 26, 22, 25, 22, 26]
7.872[26, 163, 115, 26, 22, 22, 22, 27]
7.895[26, 162, 113, 26, 23, 19, 22, 26]
7.91[27, 154, 108, 26, 25, 21, 23, 26]
7.932[24, 94, 67, 24, 24, 23, 25, 24]
7.955[21, 75, 43, 20, 26, 26, 24, 20]
7.97[24, 80, 43, 23, 25, 25, 24, 21]
7.992[27, 95, 62, 21, 25, 27, 24, 21]
8.023[24, 94, 63, 20, 24, 26, 22, 23]
8.038[25, 88, 60, 19, 24, 25, 21, 22]
8.052[26, 86, 61, 18, 21, 22, 20, 23]
8.074[23, 67, 59, 18, 21, 24, 20, 26]
8.09[21, 57, 41, 17, 20, 23, 20, 24]
8.112[24, 78, 52, 19, 20, 21, 22, 24]
8.135[23, 80, 54, 19, 21, 23, 20, 25]
8.158[24, 90, 54, 20, 23, 24, 21, 26]
8.172[24, 91, 53, 19, 22, 23, 23, 22]
8.203[27, 80, 48, 19, 21, 24, 34, 123]
8.218[26, 72, 67, 19, 21, 27, 49, 140]
8.232[30, 87, 71, 21, 24, 32, 59, 148]
8.255[31, 87, 73, 21, 24, 31, 60, 150]
8.278[32, 91, 76, 20, 22, 33, 60, 154]
8.3[27, 90, 74, 20, 23, 33, 55, 99]
8.315[28, 89, 49, 22, 23, 33, 43, 74]
8.338[25, 74, 40, 19, 22, 28, 30, 56]
8.352[24, 73, 53, 20, 20, 27, 28, 51]
8.375[23, 68, 51, 20, 21, 26, 29, 41]
8.407[24, 69, 52, 20, 20, 25, 31, 33]
8.412[26, 72, 54, 19, 21, 24, 32, 30]
8.435[24, 83, 54, 20, 20, 29, 30, 28]
8.458[25, 79, 38, 21, 22, 31, 33, 31]
8.472[25, 81, 36, 21, 22, 30, 30, 27]
8.495[24, 81, 38, 24, 22, 31, 27, 24]
8.518[23, 71, 40, 24, 20, 33, 27, 22]
8.532[25, 75, 37, 23, 19, 27, 25, 26]
8.555[26, 112, 50, 22, 20, 26, 25, 21]
8.578[26, 113, 50, 23, 20, 26, 24, 21]
8.593[26, 115, 49, 24, 19, 26, 24, 24]
8.615[24, 113, 43, 22, 21, 24, 28, 26]
8.638[22, 100, 44, 22, 23, 24, 33, 29]
8.652[21, 70, 29, 22, 22, 26, 31, 32]
8.675[24, 73, 29, 23, 22, 25, 32, 33]
8.698[24, 71, 46, 21, 23, 25, 32, 33]
8.712[25, 71, 46, 21, 22, 25, 27, 32]
8.735[25, 71, 46, 21, 20, 23, 20, 26]
8.758[25, 54, 44, 20, 22, 21, 20, 24]
8.772[25, 73, 46, 19, 22, 22, 21, 22]
8.795[25, 87, 35, 20, 22, 23, 19, 19]
8.818[24, 88, 38, 21, 22, 21, 22, 21]
8.832[24, 88, 38, 20, 22, 21, 24, 22]
8.855[22, 86, 40, 22, 20, 19, 24, 22]
8.878[18, 64, 37, 21, 21, 19, 24, 24]
8.892[16, 39, 31, 20, 19, 18, 26, 24]
8.915[17, 48, 29, 19, 22, 20, 25, 23]
8.938[23, 79, 34, 21, 24, 22, 24, 25]
8.96[23, 80, 34, 20, 24, 25, 23, 23]
8.975[24, 80, 34, 20, 22, 24, 23, 22]
8.998[26, 81, 35, 20, 23, 25, 21, 21]
9.012[26, 76, 32, 20, 23, 28, 23, 24]
9.035[21, 43, 24, 21, 22, 27, 24, 21]
9.065[22, 37, 23, 19, 22, 24, 22, 22]
9.08[23, 33, 22, 22, 23, 24, 22, 23]
9.094[23, 31, 23, 29, 40, 71, 27, 24]
9.118[23, 26, 28, 31, 39, 71, 27, 21]
9.14[24, 24, 29, 30, 39, 74, 27, 22]
9.155[23, 25, 27, 31, 40, 76, 28, 23]
9.178[21, 26, 27, 28, 40, 78, 27, 22]
9.2[19, 23, 24, 22, 24, 40, 22, 22]
9.215[18, 23, 22, 23, 27, 37, 21, 22]
9.238[18, 24, 21, 22, 25, 35, 20, 23]
9.26[20, 25, 23, 23, 25, 30, 19, 21]
9.276[19, 23, 24, 23, 24, 28, 21, 23]
9.298[21, 23, 23, 22, 24, 29, 24, 21]
9.32[22, 21, 21, 20, 20, 28, 22, 21]
9.335[21, 20, 21, 21, 22, 25, 22, 20]
9.358[20, 19, 20, 19, 21, 25, 24, 21]
9.38[21, 18, 20, 20, 21, 21, 24, 18]
9.397[20, 20, 21, 19, 21, 20, 22, 20]
9.418[19, 23, 22, 19, 20, 19, 23, 20]
9.44[20, 21, 23, 19, 17, 18, 23, 19]
9.455[18, 21, 21, 19, 20, 17, 21, 19]
9.478[18, 21, 20, 20, 18, 19, 20, 19]
9.5[19, 19, 21, 20, 20, 19, 25, 22]
9.516[20, 21, 20, 21, 20, 20, 24, 21]
9.538[17, 21, 21, 21, 21, 20, 23, 22]
9.56[20, 22, 23, 23, 20, 20, 25, 21]
9.575[20, 24, 22, 23, 20, 20, 24, 23]
9.598[21, 23, 23, 24, 18, 18, 21, 20]
9.62[21, 20, 23, 22, 22, 18, 21, 20]
9.634[23, 21, 22, 23, 19, 19, 22, 22]
9.658[23, 20, 21, 23, 19, 19, 21, 22]
9.68[22, 18, 23, 23, 20, 21, 25, 20]
9.694[21, 20, 20, 21, 21, 21, 26, 19]
9.725[21, 22, 20, 24, 20, 22, 28, 23]
9.74[20, 22, 21, 22, 21, 23, 28, 18]
9.755[20, 21, 21, 20, 21, 24, 28, 22]
9.778[20, 26, 20, 23, 22, 25, 25, 22]
9.8[21, 25, 21, 24, 22, 26, 24, 24]
9.815[20, 25, 19, 22, 20, 27, 19, 23]
9.838[20, 25, 18, 23, 22, 28, 19, 26]
9.868[18, 25, 21, 24, 23, 29, 19, 25]
9.876[20, 22, 19, 21, 21, 28, 24, 25]
9.905[19, 27, 20, 19, 22, 29, 24, 25]
9.92[54, 66, 52, 39, 32, 40, 28, 30]
9.935[138, 89, 55, 44, 48, 58, 31, 30]
9.958[145, 90, 55, 44, 49, 64, 33, 31]
9.982[146, 91, 58, 57, 65, 78, 34, 34]
10.003[149, 93, 65, 105, 130, 99, 38, 38]
10.018[143, 82, 58, 108, 138, 111, 39, 38]
10.04[69, 61, 59, 112, 136, 146, 45, 40]
10.063[60, 83, 75, 123, 137, 170, 46, 43]
10.085[57, 88, 81, 137, 170, 204, 47, 44]
10.1[58, 102, 81, 131, 163, 230, 44, 41]
10.123[48, 102, 74, 128, 162, 237, 43, 40]
10.138[46, 101, 73, 127, 170, 222, 41, 37]
10.16[40, 85, 60, 122, 190, 275, 59, 35]
10.183[39, 85, 54, 119, 169, 284, 64, 33]
10.198[36, 72, 52, 108, 142, 269, 69, 35]
10.22[36, 63, 52, 119, 141, 276, 68, 36]
10.243[43, 62, 50, 143, 149, 288, 75, 37]
10.258[43, 63, 48, 145, 139, 224, 62, 35]
10.28[44, 60, 46, 133, 131, 183, 59, 34]
10.303[49, 65, 53, 132, 137, 176, 56, 35]
10.317[53, 69, 56, 135, 141, 155, 58, 32]
10.348[74, 91, 70, 123, 156, 150, 51, 35]
10.363[79, 94, 77, 123, 165, 155, 53, 38]
10.377[85, 93, 77, 138, 195, 159, 53, 38]
10.4[98, 96, 86, 237, 253, 163, 53, 38]
10.43[104, 96, 86, 268, 280, 172, 56, 42]
10.437[92, 76, 76, 268, 275, 154, 56, 40]
10.46[93, 70, 70, 277, 268, 179, 58, 38]
10.483[121, 128, 96, 278, 254, 203, 57, 44]
10.497[134, 136, 91, 212, 241, 203, 63, 45]
10.52[132, 149, 101, 177, 241, 204, 62, 43]
10.543[140, 185, 123, 193, 243, 212, 66, 46]
10.557[177, 291, 197, 201, 249, 235, 74, 62]
10.58[162, 285, 195, 225, 287, 246, 86, 61]
10.603[191, 337, 215, 234, 306, 327, 85, 73]
10.624[204, 367, 235, 260, 388, 391, 111, 87]
10.641[226, 416, 268, 281, 432, 397, 120, 92]
10.662[306, 385, 229, 287, 467, 400, 120, 87]
10.685[404, 411, 240, 277, 466, 392, 116, 92]
10.707[410, 407, 236, 267, 445, 346, 125, 92]
10.722[421, 416, 232, 239, 360, 295, 117, 89]
10.746[554, 434, 215, 218, 342, 306, 117, 101]
10.761[601, 434, 219, 200, 306, 294, 115, 101]
10.782[590, 512, 239, 202, 334, 308, 118, 108]
10.804[682, 549, 275, 214, 557, 325, 130, 138]
10.821[722, 583, 278, 237, 570, 360, 126, 149]
10.842[648, 581, 288, 263, 618, 372, 129, 151]
10.865[594, 595, 293, 298, 680, 361, 125, 156]
10.881[560, 570, 280, 300, 680, 402, 137, 154]
10.902[566, 669, 282, 310, 519, 403, 116, 133]
10.925[583, 641, 273, 296, 503, 353, 108, 135]
10.941[585, 639, 253, 259, 432, 320, 89, 124]
10.962[568, 624, 253, 217, 335, 311, 93, 118]
10.984[570, 583, 241, 204, 349, 267, 69, 113]
11.001[438, 385, 182, 184, 384, 217, 60, 102]
11.022[361, 347, 170, 176, 408, 221, 69, 71]
11.044[330, 279, 145, 182, 454, 226, 76, 66]
11.061[307, 281, 133, 189, 496, 228, 76, 68]
11.082[315, 249, 115, 177, 442, 185, 75, 61]
11.105[306, 255, 109, 154, 398, 205, 82, 63]
11.121[260, 257, 104, 145, 371, 206, 74, 66]
11.142[307, 312, 146, 145, 304, 220, 70, 79]
11.164[413, 296, 132, 131, 228, 217, 62, 86]
11.181[412, 324, 153, 160, 283, 211, 63, 86]
11.202[429, 317, 156, 179, 337, 194, 56, 88]
11.224[527, 340, 165, 197, 356, 217, 58, 91]
11.241[567, 268, 129, 194, 368, 203, 65, 88]
11.262[563, 265, 130, 215, 369, 212, 73, 90]
11.284[722, 267, 113, 220, 436, 210, 74, 142]
11.3[779, 269, 107, 222, 419, 203, 78, 147]
11.322[729, 237, 93, 212, 416, 158, 78, 145]
11.345[672, 251, 120, 273, 403, 149, 74, 143]
11.36[621, 235, 117, 267, 389, 162, 76, 138]
11.382[405, 196, 118, 255, 281, 156, 70, 83]
11.404[351, 213, 125, 252, 297, 160, 72, 78]
11.42[427, 224, 127, 264, 315, 162, 70, 75]
11.442[416, 193, 97, 195, 319, 177, 69, 67]
11.464[412, 184, 96, 205, 348, 156, 59, 63]
11.479[624, 250, 92, 193, 360, 199, 70, 132]
11.502[633, 232, 78, 184, 331, 200, 65, 139]
11.524[570, 222, 77, 173, 322, 240, 67, 138]
11.541[583, 240, 83, 187, 350, 245, 62, 142]
11.562[631, 243, 80, 173, 338, 257, 63, 145]
11.584[435, 161, 74, 180, 313, 247, 57, 89]
11.601[372, 162, 82, 198, 305, 250, 52, 66]
11.622[370, 150, 78, 196, 286, 213, 55, 63]
11.644[359, 123, 74, 196, 316, 221, 56, 56]
11.659[300, 131, 80, 189, 308, 213, 58, 47]
11.682[310, 127, 76, 187, 319, 182, 49, 44]
11.704[421, 158, 84, 185, 322, 170, 55, 54]
11.719[455, 168, 98, 203, 417, 202, 58, 57]
11.742[451, 164, 97, 188, 357, 197, 59, 57]
11.764[444, 173, 103, 188, 351, 190, 64, 55]
11.78[446, 187, 111, 203, 397, 232, 77, 55]
11.802[337, 160, 100, 197, 434, 239, 74, 50]
11.824[299, 156, 89, 176, 392, 226, 69, 50]
11.841[302, 158, 89, 176, 402, 222, 70, 50]
11.862[279, 149, 80, 160, 392, 213, 66, 55]
11.884[241, 140, 72, 131, 333, 170, 50, 57]
11.9[233, 163, 77, 118, 301, 180, 59, 55]
11.929[256, 155, 71, 112, 243, 176, 58, 53]
11.946[236, 159, 72, 113, 246, 150, 53, 52]
11.967[246, 154, 68, 115, 251, 166, 59, 53]
11.982[295, 147, 64, 149, 285, 182, 66, 50]
12.004[326, 118, 58, 154, 270, 178, 61, 52]
12.027[302, 121, 60, 152, 320, 201, 61, 52]
12.042[312, 130, 66, 152, 300, 202, 63, 53]
12.064[357, 121, 61, 152, 305, 197, 56, 49]
12.095[313, 113, 62, 143, 310, 194, 56, 48]
12.102[285, 112, 65, 149, 324, 208, 58, 49]
12.124[302, 121, 71, 174, 323, 189, 61, 50]
12.147[298, 103, 65, 174, 321, 200, 60, 48]
12.162[237, 96, 68, 189, 318, 213, 62, 48]
12.184[314, 103, 71, 178, 302, 241, 61, 50]
12.208[399, 103, 69, 176, 303, 232, 60, 58]
12.222[387, 92, 59, 146, 267, 229, 59, 60]
12.244[392, 104, 62, 147, 285, 235, 60, 61]
12.267[417, 116, 64, 131, 293, 241, 57, 66]
12.282[394, 113, 62, 125, 295, 219, 59, 68]
12.304[283, 115, 61, 95, 263, 217, 64, 59]
12.327[283, 114, 61, 93, 230, 211, 61, 54]
12.342[283, 104, 59, 102, 243, 229, 64, 56]
12.365[334, 101, 52, 96, 234, 219, 65, 60]
12.387[348, 109, 48, 94, 206, 231, 62, 60]
12.402[350, 96, 46, 95, 226, 233, 52, 58]
12.425[348, 109, 56, 101, 237, 253, 60, 57]
12.447[356, 114, 52, 87, 202, 231, 56, 59]
12.462[289, 110, 50, 87, 197, 218, 58, 51]
12.484[243, 101, 51, 81, 194, 194, 53, 47]
12.507[252, 105, 53, 90, 175, 225, 54, 45]
12.522[251, 92, 49, 97, 191, 202, 53, 46]
12.544[305, 99, 49, 93, 190, 192, 54, 53]
12.567[291, 94, 56, 108, 202, 196, 54, 51]
12.582[284, 89, 58, 109, 199, 201, 56, 55]
12.604[280, 87, 55, 102, 192, 175, 54, 55]
12.627[313, 88, 54, 95, 164, 172, 53, 60]
12.642[240, 66, 53, 104, 189, 176, 51, 49]
12.664[246, 85, 50, 82, 168, 176, 49, 51]
12.687[254, 96, 52, 82, 178, 165, 47, 47]
12.702[301, 103, 54, 78, 262, 164, 52, 57]
12.724[318, 122, 54, 107, 322, 169, 46, 55]
12.747[336, 126, 54, 98, 312, 163, 53, 56]
12.762[342, 120, 53, 98, 317, 172, 54, 51]
12.784[332, 115, 52, 107, 326, 188, 56, 49]
12.807[286, 111, 47, 112, 260, 160, 50, 39]
12.822[278, 98, 54, 123, 206, 154, 55, 45]
12.844[263, 95, 54, 128, 234, 149, 49, 45]
12.867[267, 102, 59, 134, 240, 174, 61, 59]
12.889[262, 96, 55, 129, 224, 168, 60, 61]
12.904[364, 137, 72, 131, 278, 182, 69, 64]
12.927[338, 141, 63, 89, 254, 179, 65, 58]
12.949[351, 144, 70, 108, 231, 191, 73, 64]
12.964[336, 140, 69, 105, 224, 152, 60, 52]
12.987[414, 180, 85, 119, 251, 151, 62, 66]
13.01[345, 162, 73, 115, 200, 137, 57, 65]
13.024[343, 162, 80, 138, 222, 151, 57, 65]
13.047[345, 178, 81, 128, 218, 137, 49, 62]
13.07[401, 182, 80, 133, 224, 141, 49, 63]
13.084[325, 145, 66, 119, 206, 190, 48, 48]
13.107[307, 132, 65, 117, 197, 192, 45, 44]
13.13[300, 127, 63, 97, 185, 185, 44, 41]
13.144[368, 118, 55, 92, 177, 186, 42, 44]
13.167[419, 139, 62, 84, 173, 226, 50, 68]
13.19[441, 146, 61, 77, 148, 176, 46, 68]
13.204[470, 153, 61, 80, 138, 176, 55, 73]
13.228[502, 155, 55, 69, 168, 200, 58, 80]
13.25[447, 143, 59, 64, 172, 239, 61, 81]
13.264[360, 113, 47, 57, 160, 208, 57, 65]
13.287[336, 106, 51, 64, 165, 214, 57, 68]
13.31[307, 95, 52, 70, 175, 224, 53, 64]
13.324[269, 86, 52, 71, 133, 249, 50, 55]
13.347[389, 116, 54, 72, 127, 234, 51, 68]
13.37[439, 139, 56, 77, 142, 260, 63, 69]
13.384[438, 142, 62, 86, 184, 270, 72, 66]
13.407[435, 139, 60, 79, 178, 275, 73, 67]
13.43[475, 155, 72, 84, 189, 243, 75, 68]
13.444[392, 154, 77, 85, 205, 258, 74, 50]
13.467[319, 136, 76, 82, 200, 226, 63, 50]
13.49[309, 147, 73, 70, 176, 204, 52, 48]
13.504[347, 189, 83, 81, 188, 193, 54, 57]
13.527[379, 186, 80, 95, 203, 211, 55, 68]
13.55[370, 170, 74, 90, 184, 166, 54, 67]
13.564[379, 171, 76, 97, 184, 179, 55, 62]
13.587[411, 176, 84, 121, 202, 186, 53, 77]
13.61[373, 134, 74, 122, 200, 179, 55, 72]
13.633[309, 119, 66, 116, 185, 139, 52, 60]
13.647[317, 131, 66, 130, 212, 149, 51, 64]
13.67[319, 138, 71, 130, 228, 139, 53, 65]
13.684[280, 117, 59, 112, 227, 144, 51, 49]
13.707[317, 124, 61, 107, 233, 139, 43, 50]
13.73[305, 132, 67, 106, 223, 148, 42, 51]
13.744[300, 123, 67, 93, 204, 165, 42, 46]
13.767[293, 131, 68, 97, 192, 165, 39, 46]
13.79[316, 148, 76, 100, 168, 151, 41, 53]
13.804[305, 151, 75, 104, 141, 150, 40, 54]
13.827[293, 142, 71, 103, 156, 143, 38, 54]
13.85[286, 139, 66, 98, 159, 105, 37, 55]
13.873[333, 146, 71, 100, 176, 130, 42, 63]
13.887[310, 124, 62, 90, 170, 131, 41, 55]
13.91[316, 131, 66, 89, 177, 148, 39, 55]
13.932[354, 140, 66, 84, 169, 144, 38, 63]
13.947[348, 136, 65, 82, 156, 146, 37, 62]
13.97[362, 131, 65, 101, 153, 124, 44, 65]
13.992[383, 136, 63, 113, 160, 120, 45, 69]
14.007[400, 152, 76, 112, 163, 117, 52, 70]
14.03[358, 147, 78, 109, 162, 120, 52, 63]
14.053[362, 154, 82, 111, 180, 129, 57, 65]
14.067[329, 134, 72, 83, 184, 117, 47, 58]
14.091[325, 131, 76, 81, 193, 148, 47, 59]
14.113[316, 97, 58, 105, 213, 131, 40, 56]
14.127[308, 87, 54, 110, 214, 144, 42, 55]
14.15[306, 82, 49, 112, 210, 134, 36, 55]
14.172[262, 81, 47, 114, 189, 142, 35, 52]
14.187[241, 76, 40, 110, 183, 122, 36, 51]
14.21[184, 64, 40, 110, 182, 124, 35, 52]
14.233[227, 73, 39, 117, 185, 109, 33, 53]
14.247[235, 80, 41, 120, 178, 117, 38, 55]
14.27[251, 85, 50, 137, 191, 126, 41, 51]
14.292[423, 113, 52, 134, 191, 119, 41, 56]
14.307[428, 114, 49, 117, 174, 128, 40, 54]
14.33[407, 110, 50, 108, 217, 130, 39, 57]
14.352[404, 105, 52, 110, 241, 139, 35, 55]
14.367[416, 105, 48, 104, 249, 123, 33, 60]
14.39[228, 98, 58, 113, 244, 127, 33, 52]
14.42[292, 115, 64, 111, 242, 131, 37, 52]
14.428[318, 119, 65, 113, 203, 127, 35, 46]
14.45[372, 122, 61, 113, 196, 140, 37, 45]
14.472[381, 128, 61, 105, 182, 141, 34, 47]
14.487[386, 115, 50, 91, 183, 134, 35, 50]
14.51[338, 120, 54, 89, 168, 122, 33, 53]
14.532[326, 133, 53, 81, 167, 130, 38, 60]
14.547[286, 159, 70, 110, 201, 109, 39, 69]
14.578[381, 182, 76, 107, 200, 118, 40, 72]
14.592[444, 190, 76, 119, 246, 129, 42, 76]
14.607[442, 176, 68, 119, 256, 127, 39, 73]
14.63[438, 169, 70, 128, 269, 134, 38, 68]
14.652[428, 141, 54, 100, 228, 123, 61, 58]
14.667[502, 122, 47, 106, 228, 147, 75, 77]
14.69[462, 110, 50, 116, 199, 137, 76, 70]
14.712[476, 116, 55, 116, 194, 141, 76, 72]
14.727[472, 120, 60, 106, 164, 124, 77, 75]
14.75[497, 127, 68, 109, 196, 138, 61, 83]
14.772[344, 106, 66, 99, 212, 106, 44, 59]
14.795[335, 108, 69, 83, 233, 120, 44, 66]
14.81[315, 100, 66, 85, 235, 126, 47, 66]
14.833[339, 94, 56, 86, 240, 133, 45, 67]
14.855[290, 90, 50, 77, 210, 119, 43, 59]
14.871[262, 87, 49, 71, 182, 121, 41, 63]
14.893[250, 83, 45, 88, 155, 131, 43, 57]
14.915[353, 117, 55, 97, 177, 131, 43, 63]
14.93[346, 115, 57, 99, 175, 141, 54, 59]
14.953[353, 106, 54, 105, 182, 145, 53, 57]
14.975[366, 118, 53, 105, 183, 147, 54, 51]
14.99[360, 116, 50, 85, 174, 126, 52, 53]
15.012[318, 98, 50, 78, 167, 126, 52, 45]
15.035[300, 98, 49, 77, 164, 103, 40, 43]
15.05[339, 111, 51, 70, 172, 95, 40, 53]
15.073[349, 111, 51, 69, 168, 91, 36, 57]
15.095[346, 116, 54, 65, 158, 104, 39, 54]
15.11[285, 110, 43, 62, 141, 85, 33, 53]
15.133[368, 138, 52, 63, 141, 97, 35, 67]
15.156[354, 134, 52, 61, 134, 102, 35, 62]
15.17[365, 131, 55, 70, 145, 110, 38, 62]
15.192[366, 125, 52, 80, 151, 102, 37, 62]
15.215[372, 124, 58, 79, 151, 107, 40, 62]
15.229[308, 89, 49, 77, 167, 97, 37, 49]
15.253[286, 89, 51, 90, 171, 117, 38, 46]
15.275[249, 79, 46, 85, 159, 110, 39, 41]
15.289[396, 106, 50, 83, 148, 121, 40, 65]
15.312[397, 106, 48, 95, 153, 128, 38, 64]
15.335[392, 111, 52, 107, 148, 138, 45, 65]
15.349[399, 110, 53, 100, 137, 123, 45, 66]
15.373[406, 120, 54, 101, 151, 116, 47, 65]
15.395[294, 111, 56, 107, 199, 110, 44, 50]
15.409[292, 105, 52, 98, 207, 100, 44, 50]
15.433[273, 98, 51, 86, 206, 104, 41, 48]
15.455[247, 93, 47, 84, 205, 130, 44, 43]
15.469[220, 89, 47, 89, 237, 147, 41, 47]
15.493[204, 75, 39, 72, 207, 145, 41, 44]
15.515[197, 81, 41, 76, 192, 147, 41, 45]
15.53[229, 98, 54, 76, 183, 144, 42, 49]
15.552[236, 100, 54, 77, 181, 138, 49, 49]
15.575[229, 89, 54, 70, 130, 127, 48, 48]
15.589[268, 91, 57, 106, 196, 145, 51, 44]
15.612[275, 99, 56, 109, 211, 145, 53, 44]
15.635[256, 85, 44, 109, 211, 152, 51, 41]
15.657[348, 101, 51, 106, 211, 140, 46, 50]
15.673[376, 109, 55, 107, 230, 136, 44, 58]
15.695[349, 113, 56, 90, 168, 114, 40, 58]
15.717[362, 122, 58, 94, 170, 121, 38, 58]
15.733[372, 130, 59, 107, 188, 110, 36, 57]
15.754[304, 123, 55, 119, 198, 107, 37, 51]
15.777[268, 115, 49, 118, 179, 111, 38, 38]
15.793[253, 112, 47, 119, 191, 143, 39, 38]
15.814[245, 89, 45, 113, 182, 141, 43, 35]
15.837[230, 81, 47, 101, 173, 135, 41, 41]
15.853[212, 73, 49, 94, 166, 137, 35, 40]
15.874[202, 80, 52, 97, 175, 164, 46, 41]
15.897[208, 77, 52, 79, 165, 144, 47, 40]
15.913[228, 97, 54, 71, 171, 137, 45, 48]
15.934[240, 90, 50, 96, 201, 139, 45, 42]
15.957[234, 86, 44, 90, 199, 140, 45, 42]
15.973[239, 88, 44, 85, 193, 112, 37, 42]
15.994[382, 160, 64, 93, 189, 109, 37, 60]
16.017[364, 154, 65, 92, 172, 105, 42, 58]
16.033[368, 177, 85, 81, 153, 126, 48, 62]
16.054[410, 186, 87, 85, 168, 136, 49, 66]
16.077[421, 184, 87, 87, 157, 133, 49, 65]
16.093[303, 134, 74, 81, 166, 147, 51, 53]
16.114[306, 129, 72, 94, 175, 152, 50, 50]
16.137[331, 107, 47, 82, 161, 135, 47, 48]
16.153[326, 101, 45, 83, 160, 126, 48, 47]
16.174[316, 101, 44, 81, 164, 142, 51, 50]
16.197[320, 97, 42, 76, 150, 122, 46, 54]
16.213[316, 99, 40, 58, 138, 118, 48, 55]
16.234[278, 88, 41, 57, 129, 126, 46, 53]
16.258[248, 78, 44, 55, 115, 151, 47, 49]
16.273[319, 87, 47, 64, 142, 143, 41, 56]
16.294[345, 89, 49, 80, 174, 157, 44, 56]
16.317[348, 82, 45, 82, 178, 155, 41, 56]
16.333[341, 82, 43, 84, 179, 150, 39, 55]
16.355[361, 89, 43, 88, 193, 127, 38, 59]
16.377[375, 90, 43, 90, 198, 134, 42, 54]
16.401[356, 87, 38, 90, 196, 118, 40, 50]
16.414[406, 105, 43, 101, 213, 122, 40, 67]
16.437[410, 103, 42, 98, 216, 116, 42, 72]
16.453[419, 137, 46, 94, 210, 112, 44, 77]
16.474[384, 139, 42, 94, 205, 104, 42, 77]
16.497[397, 144, 44, 87, 186, 100, 44, 78]
16.513[398, 155, 53, 90, 181, 98, 46, 74]
16.534[401, 157, 54, 89, 173, 98, 43, 69]
16.557[432, 151, 52, 93, 182, 100, 40, 71]
16.573[400, 143, 54, 91, 202, 76, 41, 68]
16.595[448, 169, 63, 93, 208, 159, 44, 71]
16.617[426, 156, 56, 84, 203, 163, 39, 60]
16.633[423, 155, 58, 84, 215, 170, 40, 60]
16.654[349, 135, 56, 78, 199, 167, 40, 44]
16.677[360, 137, 59, 75, 160, 175, 39, 53]
16.699[286, 91, 52, 98, 174, 108, 42, 129]
16.714[235, 88, 49, 107, 167, 100, 41, 130]
16.737[279, 106, 51, 112, 159, 91, 40, 140]
16.759[273, 101, 51, 111, 169, 117, 45, 143]
16.774[282, 103, 49, 110, 168, 112, 47, 144]
16.797[302, 114, 47, 90, 152, 117, 38, 82]
16.82[299, 111, 48, 73, 146, 118, 38, 79]
16.835[310, 100, 49, 74, 157, 127, 41, 66]
16.857[322, 95, 47, 77, 170, 111, 37, 60]
16.879[317, 112, 46, 81, 175, 109, 35, 52]
16.894[293, 126, 51, 77, 173, 126, 37, 46]
16.918[301, 128, 50, 84, 194, 130, 40, 43]
16.939[282, 125, 45, 83, 197, 124, 38, 39]
16.954[324, 135, 50, 81, 201, 123, 36, 42]
16.977[316, 116, 49, 76, 209, 137, 39, 38]
17.0[331, 98, 40, 72, 204, 122, 37, 45]
17.014[365, 109, 50, 63, 185, 121, 34, 49]
17.037[344, 107, 50, 65, 177, 133, 38, 46]
17.059[357, 103, 49, 78, 185, 143, 40, 56]
17.074[369, 110, 47, 78, 170, 128, 37, 59]
17.097[365, 114, 51, 88, 171, 125, 38, 60]
17.119[336, 103, 41, 93, 174, 127, 37, 59]
17.135[362, 114, 45, 94, 188, 122, 45, 62]
17.157[341, 116, 48, 89, 170, 106, 45, 57]
17.179[329, 118, 50, 98, 182, 107, 45, 57]
17.195[322, 110, 48, 95, 196, 107, 46, 53]
17.217[318, 105, 50, 103, 202, 112, 48, 53]
17.24[293, 93, 47, 97, 175, 103, 40, 50]
17.254[287, 92, 43, 110, 170, 122, 41, 55]
17.277[293, 84, 40, 112, 172, 122, 43, 56]
17.299[286, 76, 39, 109, 156, 126, 43, 57]
17.314[288, 75, 39, 108, 144, 120, 43, 55]
17.337[307, 76, 40, 115, 156, 148, 44, 55]
17.359[309, 64, 42, 101, 162, 130, 42, 45]
17.374[294, 57, 43, 95, 156, 130, 40, 45]
17.397[285, 77, 47, 93, 154, 122, 38, 40]
17.42[273, 91, 58, 96, 168, 136, 41, 42]
17.435[285, 102, 60, 88, 163, 137, 41, 54]
17.457[293, 105, 58, 85, 161, 140, 40, 57]
17.479[311, 111, 59, 82, 196, 161, 45, 55]
17.494[308, 107, 55, 84, 196, 169, 47, 55]
17.517[363, 111, 52, 85, 189, 171, 46, 60]
17.54[384, 111, 51, 100, 192, 154, 47, 57]
17.554[349, 109, 52, 99, 185, 149, 46, 52]
17.577[346, 108, 56, 99, 142, 132, 44, 53]
17.599[339, 101, 56, 97, 141, 122, 42, 54]
17.622[320, 110, 56, 87, 131, 113, 43, 49]
17.637[266, 108, 59, 92, 124, 112, 40, 44]
17.659[335, 115, 59, 106, 120, 118, 41, 50]
17.682[365, 114, 56, 106, 127, 124, 46, 102]
17.698[436, 122, 57, 111, 136, 134, 51, 143]
17.719[438, 107, 50, 114, 140, 125, 53, 168]
17.742[428, 99, 43, 112, 144, 112, 50, 172]
17.757[374, 89, 42, 105, 152, 115, 48, 172]
17.779[348, 89, 42, 111, 161, 117, 43, 148]
17.802[379, 91, 42, 115, 169, 124, 41, 114]
17.817[356, 86, 46, 124, 179, 131, 33, 75]
17.84[362, 89, 46, 129, 175, 132, 34, 64]
17.862[369, 84, 47, 139, 170, 135, 36, 70]
17.877[351, 84, 49, 139, 166, 122, 37, 73]
17.899[216, 73, 53, 138, 159, 102, 35, 64]
17.922[238, 84, 52, 128, 142, 102, 36, 60]
17.937[283, 85, 55, 142, 159, 108, 36, 61]
17.96[267, 88, 51, 135, 157, 96, 35, 47]
17.982[278, 85, 49, 130, 149, 106, 34, 42]
17.997[279, 85, 53, 160, 134, 110, 35, 39]
18.019[326, 93, 55, 170, 142, 104, 34, 59]
18.042[280, 87, 53, 155, 121, 100, 35, 58]
18.057[281, 84, 55, 195, 166, 118, 36, 58]
18.079[282, 97, 58, 203, 168, 125, 36, 61]
18.102[293, 104, 51, 180, 172, 123, 34, 63]
18.117[197, 84, 49, 177, 169, 116, 34, 44]
18.139[195, 83, 48, 175, 168, 115, 31, 40]
18.162[242, 92, 47, 143, 135, 108, 31, 41]
18.177[323, 94, 52, 191, 148, 123, 31, 41]
18.199[344, 90, 55, 202, 151, 126, 34, 39]
18.222[366, 97, 56, 208, 153, 130, 34, 43]
18.237[405, 106, 60, 206, 175, 146, 37, 46]
18.26[389, 106, 66, 200, 210, 142, 40, 46]
18.282[314, 106, 60, 153, 206, 113, 38, 44]
18.297[282, 103, 56, 144, 209, 111, 38, 43]
18.32[264, 101, 53, 130, 215, 108, 40, 43]
18.342[213, 99, 50, 126, 223, 95, 40, 42]
18.357[224, 102, 55, 123, 186, 103, 43, 41]
18.379[286, 99, 58, 140, 183, 118, 46, 46]
18.41[281, 105, 62, 143, 177, 125, 47, 46]
18.417[274, 99, 63, 141, 172, 124, 48, 44]
18.44[290, 96, 62, 148, 157, 120, 46, 43]
18.462[306, 97, 51, 152, 161, 115, 42, 47]
18.477[259, 92, 55, 140, 182, 117, 41, 45]
18.5[259, 91, 67, 231, 283, 117, 43, 46]
18.522[260, 97, 72, 250, 312, 118, 44, 50]
18.537[226, 94, 73, 246, 303, 116, 43, 48]
18.559[210, 96, 75, 256, 303, 107, 42, 42]
18.582[228, 103, 74, 267, 318, 107, 42, 39]
18.605[267, 109, 58, 197, 269, 109, 37, 47]
18.619[262, 115, 53, 183, 250, 120, 43, 45]
18.643[272, 128, 55, 187, 292, 157, 47, 51]
18.665[252, 122, 53, 165, 290, 161, 47, 56]
18.679[233, 114, 49, 147, 265, 151, 45, 54]
18.703[249, 108, 53, 144, 232, 142, 46, 55]
18.725[255, 98, 51, 133, 235, 138, 36, 53]
18.74[269, 87, 45, 124, 201, 97, 35, 56]
18.763[283, 83, 41, 128, 201, 89, 34, 53]
18.785[272, 87, 43, 115, 184, 96, 36, 54]
18.8[218, 81, 42, 102, 206, 96, 41, 46]
18.822[262, 86, 45, 102, 203, 110, 45, 49]
18.845[275, 95, 56, 132, 189, 114, 44, 43]
18.859[262, 93, 57, 133, 187, 118, 43, 43]
18.882[280, 90, 53, 137, 189, 110, 42, 43]
18.905[275, 93, 55, 140, 172, 120, 40, 44]
18.919[273, 95, 53, 138, 166, 116, 45, 59]
18.942[239, 86, 47, 121, 181, 114, 45, 64]
18.966[275, 88, 46, 114, 179, 111, 45, 66]
18.979[265, 90, 49, 108, 178, 113, 46, 66]
19.003[279, 84, 46, 97, 181, 131, 47, 66]
19.032[240, 83, 47, 99, 202, 140, 41, 51]
19.039[240, 89, 45, 88, 194, 171, 46, 39]
19.062[199, 93, 49, 97, 211, 185, 50, 35]
19.085[191, 91, 47, 94, 212, 197, 53, 36]
19.1[212, 93, 49, 94, 211, 191, 51, 33]
19.122[221, 86, 50, 86, 193, 186, 55, 35]
19.145[245, 90, 48, 90, 187, 160, 52, 40]
19.16[241, 89, 51, 106, 196, 149, 49, 38]
19.183[242, 88, 54, 110, 203, 149, 46, 37]
19.205[217, 84, 54, 116, 202, 166, 49, 38]
19.219[305, 108, 58, 117, 191, 163, 50, 44]
19.243[349, 142, 70, 121, 220, 181, 51, 53]
19.265[349, 146, 66, 109, 221, 185, 52, 54]
19.279[346, 147, 62, 109, 223, 176, 58, 55]
19.302[364, 152, 65, 105, 212, 153, 57, 62]
19.325[341, 142, 58, 108, 220, 143, 49, 73]
19.347[284, 97, 42, 109, 201, 132, 44, 64]
19.37[281, 89, 42, 118, 239, 126, 48, 66]
19.385[291, 88, 47, 121, 242, 123, 43, 65]
19.4[301, 81, 40, 123, 249, 119, 44, 63]
19.423[234, 79, 42, 117, 236, 125, 44, 43]
19.445[223, 77, 43, 104, 231, 106, 44, 43]
19.46[253, 72, 42, 90, 163, 112, 45, 40]
19.482[272, 74, 37, 80, 153, 153, 46, 43]
19.505[254, 80, 41, 80, 151, 156, 47, 43]
19.527[260, 69, 37, 75, 151, 153, 46, 43]
19.543[258, 67, 38, 90, 157, 151, 47, 44]
19.565[257, 83, 42, 102, 174, 155, 43, 53]
19.588[227, 77, 43, 103, 173, 143, 40, 50]
19.602[203, 72, 40, 105, 165, 165, 38, 46]
19.625[200, 72, 42, 110, 173, 172, 38, 57]
19.647[240, 74, 40, 96, 152, 176, 40, 56]
19.662[244, 66, 49, 122, 185, 177, 41, 49]
19.685[239, 69, 50, 120, 191, 154, 40, 50]
19.707[241, 73, 53, 118, 200, 126, 38, 49]
19.722[264, 83, 54, 121, 201, 115, 38, 45]
19.745[240, 79, 54, 128, 213, 111, 40, 45]
19.767[257, 79, 46, 117, 198, 115, 41, 48]
19.783[282, 81, 44, 120, 205, 126, 44, 48]
19.805[307, 81, 43, 128, 213, 149, 46, 52]
19.828[286, 72, 40, 123, 204, 158, 46, 44]
19.842[273, 77, 41, 127, 204, 161, 43, 45]
19.865[255, 76, 41, 99, 184, 150, 39, 46]
19.888[251, 84, 46, 104, 185, 145, 36, 51]
19.902[221, 83, 44, 100, 183, 128, 39, 45]
19.925[208, 82, 45, 98, 183, 140, 39, 46]
19.947[203, 87, 50, 93, 181, 149, 39, 44]
19.962[157, 97, 54, 99, 169, 157, 41, 42]
19.985[113, 87, 50, 87, 144, 155, 46, 33]
20.007[80, 81, 50, 74, 112, 152, 42, 31]
20.022[73, 79, 50, 75, 115, 144, 40, 31]
20.045[65, 68, 43, 63, 97, 132, 41, 30]
20.067[49, 261, 36, 50, 108, 133, 48, 29]
20.082[42, 305, 40, 53, 120, 133, 50, 57]
20.105[147, 335, 46, 59, 139, 128, 75, 161]
20.128[156, 342, 50, 60, 139, 178, 80, 172]
20.142[162, 351, 49, 60, 133, 183, 85, 175]
20.165[164, 242, 45, 57, 126, 178, 81, 177]
20.187[164, 198, 44, 55, 110, 186, 78, 171]
20.202[89, 191, 37, 47, 86, 186, 55, 86]
20.225[73, 188, 34, 47, 102, 158, 53, 62]
20.247[55, 177, 39, 59, 130, 163, 49, 51]
20.262[51, 178, 40, 64, 127, 183, 50, 44]
20.285[45, 270, 42, 73, 141, 217, 61, 39]
20.307[32, 259, 49, 85, 159, 274, 69, 31]
20.322[31, 265, 50, 90, 153, 284, 78, 30]
20.345[31, 283, 51, 90, 154, 290, 79, 32]
20.367[29, 287, 55, 100, 165, 299, 86, 32]
20.382[29, 194, 57, 105, 175, 287, 88, 33]
20.405[29, 242, 53, 98, 171, 241, 86, 32]
20.428[25, 305, 51, 97, 167, 218, 78, 30]
20.442[30, 292, 51, 98, 158, 262, 83, 29]
20.465[30, 285, 50, 88, 151, 239, 78, 30]
20.488[31, 287, 44, 79, 136, 230, 70, 29]
20.51[31, 227, 42, 78, 126, 226, 64, 29]
20.525[32, 111, 43, 76, 127, 256, 63, 29]
20.547[28, 94, 38, 66, 120, 206, 53, 28]
20.57[28, 86, 35, 63, 112, 204, 56, 29]
20.585[25, 71, 36, 59, 105, 211, 59, 38]
20.607[24, 86, 34, 56, 102, 211, 59, 44]
20.63[22, 78, 32, 50, 97, 163, 58, 49]
20.645[22, 72, 31, 57, 100, 165, 61, 51]
20.668[23, 72, 31, 61, 111, 172, 56, 51]
20.697[24, 73, 31, 57, 103, 146, 48, 48]
20.706[24, 45, 32, 57, 100, 138, 44, 42]
20.728[23, 36, 32, 56, 98, 136, 42, 35]
20.749[22, 31, 32, 49, 93, 111, 35, 33]
20.766[19, 28, 30, 44, 79, 81, 27, 31]
20.788[18, 22, 27, 42, 82, 67, 26, 26]
20.809[18, 21, 26, 47, 88, 73, 29, 25]
20.826[18, 23, 26, 48, 89, 78, 31, 25]
20.848[19, 25, 26, 47, 83, 84, 29, 27]
20.869[20, 29, 27, 45, 77, 86, 31, 24]
20.892[20, 29, 27, 59, 84, 102, 35, 24]
20.907[23, 30, 29, 60, 79, 108, 46, 26]
20.929[23, 28, 27, 60, 87, 122, 45, 29]
20.946[25, 31, 31, 69, 120, 140, 50, 29]
20.968[28, 34, 36, 82, 141, 190, 68, 36]
20.997[29, 35, 37, 78, 136, 190, 70, 36]
21.006[27, 37, 37, 82, 148, 186, 63, 34]
21.034[32, 44, 53, 93, 160, 214, 69, 40]
21.05[30, 42, 54, 86, 134, 212, 72, 42]
21.066[28, 38, 51, 78, 124, 175, 57, 39]
21.087[28, 38, 50, 73, 122, 174, 53, 39]
21.109[29, 40, 51, 76, 115, 195, 60, 42]
21.126[29, 42, 38, 70, 101, 161, 57, 38]
21.147[29, 44, 38, 87, 153, 160, 53, 35]
21.169[27, 46, 39, 92, 156, 155, 51, 35]
21.186[28, 47, 42, 95, 166, 155, 57, 36]
21.207[27, 44, 41, 91, 171, 159, 55, 33]
21.237[22, 38, 40, 85, 169, 148, 51, 30]
21.246[20, 34, 37, 68, 133, 136, 50, 28]
21.267[22, 90, 38, 60, 126, 163, 56, 28]
21.289[24, 120, 36, 60, 121, 183, 59, 26]
21.312[23, 128, 36, 54, 105, 161, 54, 24]
21.326[23, 128, 35, 52, 99, 172, 54, 22]
21.349[26, 129, 35, 53, 94, 173, 53, 23]
21.365[24, 98, 32, 50, 87, 145, 45, 21]
21.387[22, 57, 31, 45, 83, 106, 34, 21]
21.416[21, 37, 30, 49, 87, 96, 34, 23]
21.431[23, 35, 32, 51, 85, 75, 38, 24]
21.447[20, 31, 30, 47, 76, 60, 37, 24]
21.469[22, 28, 29, 44, 69, 85, 37, 25]
21.492[24, 29, 30, 44, 70, 96, 38, 24]
21.507[26, 30, 29, 39, 78, 113, 38, 26]
21.529[24, 29, 26, 40, 89, 120, 33, 25]
21.552[26, 29, 31, 45, 94, 137, 47, 27]
21.567[27, 26, 28, 47, 100, 136, 49, 27]
21.589[24, 27, 29, 46, 94, 132, 50, 28]
21.612[21, 25, 29, 48, 88, 115, 50, 23]
21.627[23, 25, 29, 45, 78, 106, 48, 22]
21.656[24, 28, 27, 41, 76, 88, 35, 19]
21.672[26, 28, 30, 39, 70, 66, 32, 19]
21.687[25, 28, 28, 39, 68, 62, 30, 19]
21.709[25, 28, 29, 33, 56, 62, 30, 22]
21.732[26, 29, 29, 32, 53, 58, 28, 23]
21.748[46, 27, 32, 38, 58, 93, 33, 23]
21.769[49, 27, 32, 42, 58, 106, 33, 22]
21.792[52, 28, 31, 44, 62, 106, 34, 24]
21.807[52, 30, 31, 45, 69, 110, 38, 25]
21.829[54, 34, 32, 46, 71, 116, 40, 24]
21.852[37, 34, 30, 58, 128, 94, 37, 27]
21.867[30, 33, 31, 67, 153, 83, 37, 27]
21.889[27, 32, 31, 68, 156, 81, 34, 27]
21.912[26, 31, 30, 68, 155, 73, 29, 25]
21.927[24, 29, 27, 67, 157, 67, 29, 26]
21.949[23, 32, 24, 55, 112, 68, 27, 25]
21.971[22, 32, 22, 41, 76, 62, 25, 24]
21.987[21, 33, 23, 37, 66, 65, 27, 22]
22.009[23, 31, 25, 40, 77, 68, 27, 22]
22.032[25, 31, 27, 40, 81, 89, 25, 23]
22.047[25, 25, 28, 44, 99, 84, 26, 21]
22.069[26, 25, 30, 43, 97, 86, 27, 23]
22.092[36, 27, 31, 43, 98, 85, 25, 23]
22.107[34, 27, 30, 41, 85, 85, 28, 24]
22.129[33, 23, 29, 42, 89, 62, 28, 21]
22.152[33, 24, 29, 37, 71, 61, 26, 21]
22.167[33, 23, 27, 36, 68, 74, 28, 19]
22.189[24, 20, 26, 35, 71, 79, 33, 22]
22.213[24, 21, 27, 33, 72, 81, 34, 21]
22.227[22, 22, 28, 31, 56, 84, 34, 21]
22.249[21, 21, 27, 35, 57, 86, 35, 26]
22.272[21, 21, 28, 45, 91, 70, 35, 26]
22.287[23, 21, 28, 48, 91, 65, 31, 26]
22.309[23, 22, 26, 50, 95, 59, 29, 26]
22.332[24, 20, 26, 51, 97, 54, 30, 27]
22.354[24, 24, 27, 48, 97, 53, 28, 23]
22.369[22, 25, 24, 36, 65, 51, 28, 24]
22.392[21, 27, 23, 34, 61, 49, 25, 21]
22.414[20, 25, 24, 33, 52, 48, 28, 19]
22.429[20, 28, 24, 31, 47, 44, 25, 20]
22.452[19, 25, 23, 29, 48, 33, 24, 20]
22.474[21, 26, 24, 38, 65, 33, 24, 23]
22.49[21, 24, 25, 41, 79, 34, 25, 23]
22.512[23, 25, 27, 46, 84, 43, 21, 26]
22.534[22, 24, 26, 45, 83, 47, 24, 24]
22.557[23, 25, 27, 48, 82, 48, 25, 23]
22.572[23, 23, 26, 42, 72, 48, 25, 19]
22.594[22, 24, 24, 38, 62, 49, 25, 21]
22.609[21, 26, 23, 33, 60, 45, 26, 19]
22.632[20, 27, 23, 37, 70, 44, 25, 21]
22.654[20, 27, 22, 34, 70, 44, 24, 22]
22.669[20, 30, 23, 34, 68, 43, 24, 26]
22.7[21, 29, 25, 35, 61, 41, 23, 25]
22.714[22, 27, 22, 32, 56, 47, 26, 25]
22.729[23, 26, 24, 29, 49, 57, 24, 23]
22.752[25, 26, 25, 30, 49, 58, 28, 25]
22.774[24, 22, 25, 30, 53, 61, 29, 22]
22.789[22, 21, 22, 31, 58, 62, 30, 20]
22.812[23, 23, 23, 32, 60, 57, 28, 25]
22.842[21, 21, 25, 34, 55, 47, 29, 25]
22.849[21, 23, 23, 36, 57, 57, 28, 22]
22.872[23, 26, 26, 39, 56, 61, 24, 21]
22.894[23, 27, 27, 37, 49, 63, 23, 23]
22.909[22, 24, 29, 38, 49, 62, 22, 17]
22.932[24, 24, 26, 35, 50, 62, 20, 18]
22.954[24, 24, 28, 34, 45, 62, 19, 24]
22.969[22, 26, 25, 32, 45, 55, 23, 25]
22.991[22, 25, 25, 31, 46, 53, 28, 25]
23.015[22, 26, 24, 31, 46, 60, 29, 26]
23.029[21, 27, 24, 32, 44, 59, 31, 27]
23.052[19, 27, 25, 29, 46, 46, 30, 23]
23.074[20, 23, 27, 30, 42, 47, 29, 22]
23.089[20, 24, 25, 32, 49, 50, 28, 24]
23.111[19, 25, 25, 34, 53, 48, 28, 23]
23.134[19, 25, 28, 38, 58, 53, 29, 23]
23.149[23, 26, 27, 39, 60, 58, 28, 26]
23.171[22, 28, 26, 40, 59, 58, 28, 25]
23.195[24, 28, 27, 39, 52, 54, 25, 24]
23.209[23, 28, 26, 34, 48, 47, 23, 24]
23.232[27, 29, 23, 29, 43, 45, 21, 22]
23.254[25, 26, 21, 28, 41, 38, 22, 21]
23.269[25, 24, 23, 31, 46, 39, 23, 22]
23.292[23, 24, 23, 29, 45, 41, 26, 22]
23.314[24, 25, 24, 31, 46, 40, 28, 21]
23.337[22, 25, 25, 32, 46, 37, 27, 23]
23.352[23, 27, 27, 32, 44, 38, 27, 20]
23.374[23, 26, 26, 29, 45, 42, 27, 22]
23.397[23, 26, 26, 29, 46, 37, 26, 21]
23.412[22, 26, 26, 33, 63, 47, 25, 23]
23.434[23, 26, 25, 33, 64, 48, 27, 20]
23.457[21, 25, 23, 34, 67, 46, 25, 20]
23.472[21, 25, 21, 32, 65, 46, 24, 21]
23.494[22, 25, 23, 33, 69, 46, 25, 21]
23.517[22, 20, 21, 28, 53, 37, 24, 25]
23.532[20, 19, 22, 29, 51, 35, 24, 25]
23.554[20, 18, 24, 31, 49, 43, 25, 26]
23.577[20, 18, 24, 30, 46, 39, 28, 25]
23.592[18, 23, 24, 32, 40, 40, 26, 25]
23.614[18, 26, 26, 33, 39, 46, 26, 20]
23.637[21, 28, 26, 33, 40, 47, 25, 21]
23.652[20, 29, 25, 33, 44, 41, 25, 18]
23.674[21, 29, 25, 35, 48, 41, 21, 20]
23.705[22, 27, 25, 35, 60, 43, 22, 18]
23.712[26, 28, 24, 37, 63, 41, 23, 20]
23.734[23, 28, 24, 37, 63, 42, 23, 23]
23.757[25, 28, 24, 38, 61, 54, 24, 23]
23.772[23, 28, 26, 37, 60, 55, 25, 22]
23.794[22, 27, 25, 36, 49, 54, 26, 23]
23.817[18, 23, 23, 31, 44, 51, 24, 23]
23.832[18, 24, 25, 33, 43, 52, 21, 18]
23.854[18, 26, 24, 30, 39, 43, 22, 19]
23.877[16, 27, 23, 30, 41, 44, 22, 20]
23.892[17, 28, 24, 33, 42, 44, 21, 21]
23.914[18, 28, 26, 33, 43, 44, 25, 19]
23.945[18, 25, 24, 29, 43, 41, 27, 23]
23.96[20, 23, 23, 27, 45, 41, 26, 23]
23.982[22, 22, 25, 29, 48, 36, 26, 23]
23.997[22, 24, 25, 26, 47, 42, 28, 22]
24.012[21, 23, 23, 27, 49, 42, 26, 22]
24.034[23, 23, 23, 28, 47, 42, 25, 22]
24.057[23, 25, 23, 31, 48, 40, 25, 24]
24.072[24, 27, 23, 28, 40, 39, 24, 23]
24.094[25, 27, 22, 31, 39, 34, 21, 22]
24.117[25, 27, 24, 31, 38, 32, 20, 23]
24.132[23, 29, 26, 32, 41, 31, 22, 21]
24.155[22, 29, 26, 30, 39, 30, 21, 19]
24.177[20, 26, 26, 32, 40, 33, 21, 18]
24.192[20, 27, 27, 28, 40, 32, 23, 19]
24.214[22, 26, 28, 29, 38, 36, 22, 19]
24.237[22, 25, 26, 28, 36, 37, 23, 22]
24.26[21, 24, 26, 28, 33, 36, 22, 22]
24.275[22, 23, 25, 27, 35, 33, 21, 24]
24.297[20, 23, 26, 27, 34, 32, 19, 25]
24.32[19, 24, 25, 30, 39, 34, 20, 25]
24.335[19, 24, 25, 29, 39, 34, 17, 22]
24.358[19, 24, 26, 31, 50, 36, 20, 21]
24.38[20, 24, 27, 36, 60, 38, 26, 19]
24.395[21, 23, 25, 45, 88, 42, 27, 20]
24.417[20, 22, 27, 47, 91, 54, 31, 21]
24.44[21, 23, 28, 48, 94, 54, 31, 23]
24.455[21, 24, 27, 46, 88, 54, 30, 24]
24.477[20, 23, 25, 42, 80, 54, 26, 24]
24.5[20, 22, 26, 32, 45, 60, 25, 20]
24.515[20, 26, 24, 25, 35, 48, 22, 20]
24.537[20, 24, 23, 24, 28, 47, 22, 20]
24.56[20, 22, 22, 23, 29, 48, 24, 20]
24.575[20, 24, 22, 23, 30, 48, 27, 21]
24.597[20, 24, 22, 25, 35, 38, 26, 25]
24.62[20, 22, 25, 32, 39, 42, 25, 25]
24.642[20, 23, 28, 38, 46, 44, 26, 23]
24.657[21, 24, 27, 40, 46, 43, 26, 23]
24.688[20, 22, 27, 38, 47, 41, 23, 21]
24.695[20, 23, 29, 41, 45, 44, 27, 20]
24.717[20, 23, 26, 37, 44, 40, 27, 20]
24.747[19, 24, 24, 33, 35, 39, 27, 21]
24.754[18, 23, 26, 32, 34, 37, 26, 23]
24.777[21, 23, 26, 36, 46, 41, 26, 24]
24.8[20, 22, 24, 34, 47, 38, 24, 23]
24.815[20, 20, 25, 34, 48, 39, 26, 21]
24.837[20, 18, 24, 33, 49, 38, 24, 22]
24.86[21, 22, 22, 35, 54, 46, 26, 20]
24.874[19, 21, 22, 35, 45, 44, 25, 20]
24.897[19, 22, 22, 33, 45, 48, 24, 19]
24.92[21, 23, 20, 35, 48, 50, 25, 19]
24.935[21, 24, 22, 37, 50, 49, 24, 17]
24.957[20, 22, 23, 33, 46, 43, 23, 16]
24.98[20, 24, 23, 34, 43, 41, 22, 20]
24.994[21, 24, 23, 34, 50, 56, 21, 23]
25.017[19, 23, 25, 35, 47, 56, 22, 23]
25.04[21, 21, 23, 33, 49, 58, 22, 25]
25.054[21, 24, 23, 33, 51, 62, 23, 25]
25.077[22, 21, 24, 31, 54, 64, 26, 22]
25.1[22, 24, 24, 30, 48, 50, 24, 20]
25.114[22, 25, 23, 26, 44, 47, 21, 24]
25.137[20, 25, 23, 28, 41, 45, 23, 23]
25.16[22, 25, 24, 29, 38, 43, 23, 23]
25.174[21, 26, 24, 29, 35, 39, 20, 24]
25.198[22, 24, 25, 28, 35, 47, 23, 23]
25.22[22, 24, 23, 31, 47, 51, 23, 22]
25.242[25, 25, 23, 29, 48, 52, 23, 21]
25.257[23, 23, 22, 29, 47, 48, 22, 22]
25.28[24, 21, 21, 28, 46, 50, 25, 21]
25.303[23, 19, 20, 27, 44, 39, 23, 22]
25.317[23, 19, 21, 22, 33, 34, 24, 19]
25.34[21, 19, 21, 25, 36, 35, 26, 19]
25.37[21, 21, 20, 25, 37, 37, 26, 20]
25.377[20, 23, 21, 28, 42, 38, 25, 20]
25.4[20, 26, 21, 29, 43, 38, 26, 21]
25.423[20, 27, 21, 29, 45, 36, 27, 24]
25.437[21, 26, 22, 28, 41, 33, 25, 23]
25.46[21, 25, 22, 29, 41, 31, 25, 23]
25.482[21, 26, 22, 28, 40, 37, 24, 26]
25.496[22, 25, 22, 26, 39, 37, 22, 25]
25.52[22, 25, 23, 28, 35, 37, 21, 22]
25.542[20, 23, 23, 29, 35, 37, 22, 22]
25.557[22, 24, 23, 31, 40, 39, 23, 24]
25.58[20, 22, 23, 29, 35, 33, 21, 22]
25.602[22, 23, 25, 30, 35, 32, 23, 22]
25.618[21, 22, 24, 29, 36, 39, 24, 22]
25.64[22, 24, 23, 26, 37, 37, 23, 23]
25.662[20, 23, 25, 24, 33, 36, 23, 22]
25.677[22, 23, 24, 23, 35, 38, 24, 25]
25.701[20, 20, 24, 22, 36, 38, 23, 24]
25.729[21, 20, 24, 24, 35, 35, 22, 25]
25.738[23, 20, 25, 28, 37, 38, 24, 25]
25.76[23, 23, 25, 30, 37, 41, 23, 25]
25.782[23, 24, 27, 31, 34, 38, 26, 24]
25.798[22, 24, 27, 32, 34, 38, 27, 24]
25.821[23, 24, 26, 33, 35, 34, 28, 22]
25.842[20, 24, 27, 31, 33, 35, 27, 23]
25.858[21, 23, 25, 28, 31, 33, 28, 23]
25.88[20, 22, 24, 30, 33, 37, 25, 24]
25.902[20, 25, 24, 30, 39, 41, 23, 23]
25.918[18, 25, 25, 29, 43, 42, 21, 24]
25.941[18, 24, 23, 27, 42, 41, 21, 22]
25.961[18, 22, 26, 35, 46, 42, 23, 23]
25.978[17, 21, 27, 36, 47, 42, 25, 22]
26.001[20, 19, 25, 38, 43, 37, 25, 22]
26.021[20, 19, 25, 38, 38, 37, 26, 22]
26.038[20, 19, 25, 39, 39, 39, 25, 22]
26.059[21, 21, 24, 33, 38, 42, 24, 22]
26.081[21, 22, 23, 31, 36, 42, 23, 20]
26.098[23, 24, 25, 29, 36, 46, 23, 21]
26.119[23, 25, 23, 27, 37, 46, 24, 21]
26.142[23, 24, 26, 26, 40, 43, 25, 20]
26.164[25, 23, 25, 27, 37, 42, 24, 19]
26.179[25, 24, 24, 25, 37, 42, 23, 20]
26.202[20, 24, 25, 25, 38, 49, 23, 21]
26.224[22, 24, 27, 26, 37, 51, 21, 20]
26.241[22, 25, 25, 26, 33, 51, 22, 22]
26.261[19, 27, 24, 24, 31, 48, 20, 22]
26.284[21, 26, 24, 23, 28, 47, 19, 24]
26.299[23, 26, 22, 23, 28, 34, 19, 22]
26.322[21, 24, 22, 21, 26, 34, 19, 24]
26.354[21, 23, 22, 23, 25, 37, 21, 20]
26.359[22, 21, 24, 26, 29, 36, 27, 19]
26.382[22, 19, 23, 26, 29, 36, 26, 16]
26.412[22, 21, 24, 26, 31, 42, 28, 19]
26.419[23, 22, 23, 28, 34, 44, 27, 17]
26.441[23, 23, 23, 27, 40, 45, 27, 18]
26.464[23, 22, 22, 28, 41, 48, 25, 18]
26.479[23, 25, 23, 29, 41, 48, 26, 19]
26.501[22, 23, 22, 32, 45, 43, 24, 20]
26.524[21, 23, 25, 33, 43, 41, 26, 22]
26.539[23, 22, 26, 31, 39, 39, 25, 24]
26.561[22, 25, 27, 32, 36, 38, 23, 25]
26.584[20, 24, 26, 33, 38, 46, 23, 24]
26.6[19, 23, 26, 30, 32, 47, 25, 21]
26.621[21, 22, 24, 28, 32, 46, 25, 21]
26.652[22, 25, 22, 29, 33, 46, 25, 18]
26.659[24, 24, 21, 25, 37, 44, 25, 17]
26.689[24, 23, 21, 27, 38, 38, 25, 18]
26.704[24, 24, 22, 26, 39, 38, 22, 19]
26.719[23, 24, 24, 26, 39, 40, 22, 21]
26.742[20, 23, 26, 29, 54, 47, 25, 20]
26.764[21, 21, 26, 30, 52, 49, 26, 22]
26.779[21, 20, 27, 29, 54, 48, 26, 24]
26.802[20, 22, 26, 31, 52, 46, 28, 24]
26.825[20, 29, 25, 32, 52, 48, 29, 23]
26.839[22, 27, 24, 31, 41, 46, 27, 24]
26.861[20, 28, 24, 28, 40, 43, 25, 23]
26.884[22, 29, 23, 27, 40, 41, 25, 20]
26.907[22, 28, 23, 28, 42, 45, 25, 19]
26.921[24, 21, 23, 27, 44, 44, 23, 19]
26.945[22, 22, 23, 24, 40, 36, 23, 18]
26.959[23, 26, 23, 27, 40, 41, 25, 17]
26.981[22, 26, 23, 29, 39, 43, 47, 17]
27.005[21, 26, 26, 27, 38, 39, 60, 17]
27.019[19, 25, 25, 26, 33, 34, 61, 17]
27.041[21, 25, 26, 28, 37, 42, 60, 17]
27.064[20, 22, 28, 26, 43, 40, 60, 19]
27.08[22, 22, 27, 27, 43, 39, 47, 19]
27.103[21, 22, 24, 26, 41, 41, 28, 19]
27.124[22, 23, 25, 30, 43, 42, 26, 17]
27.147[23, 23, 22, 29, 39, 36, 28, 19]
27.162[22, 24, 21, 27, 31, 36, 29, 18]
27.184[20, 23, 23, 24, 29, 38, 24, 21]
27.207[20, 25, 23, 26, 31, 40, 23, 21]
27.221[19, 25, 25, 24, 29, 40, 23, 21]
27.244[19, 26, 24, 25, 31, 47, 21, 20]
27.267[18, 24, 23, 25, 38, 49, 19, 22]
27.283[21, 23, 23, 31, 40, 49, 20, 23]
27.304[21, 21, 22, 30, 39, 47, 21, 22]
27.327[20, 19, 23, 30, 40, 50, 21, 23]
27.341[21, 20, 23, 31, 39, 46, 20, 24]
27.364[23, 21, 25, 33, 38, 47, 21, 22]
27.387[22, 21, 24, 29, 35, 44, 20, 19]
27.401[22, 22, 26, 29, 35, 43, 20, 21]
27.424[23, 23, 26, 30, 33, 39, 21, 22]
27.447[20, 21, 26, 29, 31, 37, 21, 19]
27.461[19, 23, 25, 29, 28, 33, 21, 21]
27.485[18, 24, 26, 28, 28, 36, 21, 19]
27.507[19, 23, 25, 30, 26, 37, 23, 19]
27.523[18, 26, 24, 31, 30, 39, 21, 19]
27.544[19, 27, 24, 32, 32, 37, 20, 19]
27.567[20, 25, 25, 30, 30, 37, 19, 17]
27.589[20, 23, 24, 32, 31, 39, 21, 19]
27.604[21, 24, 24, 31, 32, 39, 22, 18]
27.635[22, 21, 24, 26, 31, 41, 22, 18]
27.642[22, 23, 25, 27, 28, 46, 24, 19]
27.672[21, 23, 25, 27, 28, 46, 24, 19]
27.686[22, 25, 25, 25, 25, 45, 22, 20]
27.702[20, 24, 24, 26, 26, 45, 21, 21]
27.724[22, 25, 25, 27, 28, 44, 21, 22]
27.747[22, 22, 24, 26, 33, 44, 19, 21]
27.762[23, 23, 24, 28, 35, 47, 19, 21]
27.784[22, 23, 25, 29, 37, 48, 23, 21]
27.806[22, 23, 26, 29, 36, 49, 22, 21]
27.821[20, 24, 24, 28, 36, 50, 23, 21]
27.844[20, 24, 26, 28, 39, 47, 27, 20]
27.866[19, 25, 25, 27, 38, 43, 27, 19]
27.882[20, 24, 25, 24, 37, 39, 24, 18]
27.912[22, 23, 25, 24, 41, 40, 25, 14]
27.927[22, 22, 25, 22, 41, 37, 24, 13]
27.941[23, 23, 24, 23, 38, 37, 20, 14]
27.964[25, 22, 30, 26, 42, 41, 20, 16]
27.986[24, 22, 28, 27, 43, 41, 20, 17]
28.001[21, 23, 28, 25, 39, 40, 20, 18]
28.024[21, 22, 28, 29, 38, 39, 22, 19]
28.047[20, 21, 29, 28, 35, 37, 21, 18]
28.07[16, 23, 23, 28, 32, 31, 23, 21]
28.084[18, 24, 26, 28, 31, 38, 23, 20]
28.107[18, 23, 25, 29, 35, 37, 23, 21]
28.13[18, 22, 25, 26, 36, 39, 23, 24]
28.144[20, 24, 23, 27, 42, 41, 24, 25]
28.167[20, 21, 23, 26, 44, 41, 23, 22]
28.19[21, 20, 20, 26, 44, 39, 23, 23]
28.204[22, 21, 23, 27, 43, 41, 21, 24]
28.227[22, 23, 25, 30, 44, 45, 22, 22]
28.25[22, 22, 24, 30, 38, 43, 22, 21]
28.264[21, 21, 24, 29, 34, 43, 24, 23]
28.287[19, 23, 25, 28, 34, 40, 24, 23]
28.31[19, 23, 24, 29, 32, 39, 27, 23]
28.325[17, 23, 22, 26, 28, 33, 25, 20]
28.346[17, 23, 22, 25, 27, 33, 26, 20]
28.37[17, 24, 23, 25, 29, 34, 24, 22]
28.384[18, 25, 24, 24, 29, 34, 23, 24]
28.407[20, 23, 24, 23, 31, 35, 19, 23]
28.43[21, 22, 24, 25, 31, 35, 19, 25]
28.444[22, 23, 25, 28, 36, 34, 19, 27]
28.467[25, 25, 31, 35, 35, 35, 17, 24]
28.49[25, 24, 30, 41, 38, 40, 25, 23]
28.504[24, 24, 29, 40, 39, 41, 26, 23]
28.527[22, 26, 29, 41, 38, 43, 26, 24]
28.55[22, 25, 28, 38, 34, 43, 28, 26]
28.564[20, 25, 25, 31, 34, 41, 29, 26]
28.587[21, 24, 25, 23, 29, 44, 24, 27]
28.61[20, 25, 29, 24, 27, 42, 24, 26]
28.624[21, 23, 28, 24, 30, 39, 24, 24]
28.646[22, 22, 28, 25, 30, 41, 23, 24]
28.67[23, 22, 27, 29, 32, 46, 23, 25]
28.684[22, 23, 31, 39, 32, 38, 24, 24]
28.707[23, 22, 30, 40, 34, 39, 24, 24]
28.737[23, 22, 29, 40, 37, 38, 23, 27]
28.744[25, 23, 33, 42, 42, 40, 27, 24]
28.767[25, 23, 33, 40, 47, 36, 26, 22]
28.79[25, 22, 28, 32, 47, 35, 24, 23]
28.804[25, 23, 28, 32, 46, 38, 24, 23]
28.827[26, 24, 29, 33, 43, 39, 27, 67]
28.85[20, 25, 26, 30, 41, 41, 25, 79]
28.864[19, 26, 28, 30, 34, 43, 24, 83]
28.886[19, 29, 28, 34, 40, 44, 25, 86]
28.91[19, 30, 28, 31, 44, 42, 27, 86]
28.924[19, 28, 29, 29, 44, 46, 25, 58]
28.947[21, 27, 28, 32, 41, 42, 25, 40]
28.97[21, 28, 26, 29, 40, 38, 25, 36]
28.992[20, 24, 26, 26, 34, 39, 25, 29]
29.006[22, 26, 24, 29, 32, 46, 24, 29]
29.03[24, 27, 23, 29, 31, 43, 23, 29]
29.052[25, 25, 22, 28, 35, 45, 24, 28]
29.066[23, 24, 24, 29, 40, 46, 26, 22]
29.09[23, 27, 23, 30, 41, 49, 25, 21]
29.112[23, 24, 26, 26, 38, 45, 30, 26]
29.126[18, 23, 25, 26, 39, 44, 33, 29]
29.15[18, 25, 26, 26, 41, 46, 31, 30]
29.172[19, 23, 26, 26, 36, 46, 30, 30]
29.187[21, 21, 27, 23, 38, 45, 30, 31]
29.218[19, 23, 25, 23, 42, 40, 28, 25]
29.232[20, 26, 28, 23, 43, 41, 27, 21]
29.247[20, 25, 27, 28, 43, 39, 26, 22]
29.27[20, 27, 26, 26, 43, 40, 30, 24]
29.292[21, 28, 25, 27, 40, 39, 31, 24]
29.307[24, 26, 23, 26, 37, 40, 29, 26]
29.33[24, 25, 27, 27, 40, 39, 27, 29]
29.352[25, 28, 28, 24, 36, 36, 27, 27]
29.366[25, 25, 31, 24, 38, 36, 24, 25]
29.39[24, 23, 33, 25, 38, 33, 25, 25]
29.412[24, 23, 33, 25, 38, 32, 24, 26]
29.426[25, 24, 28, 27, 34, 34, 23, 23]
29.45[27, 22, 32, 27, 32, 36, 25, 21]
29.472[25, 22, 29, 33, 33, 35, 26, 21]
29.495[25, 26, 28, 33, 33, 34, 24, 22]
29.51[23, 27, 30, 33, 31, 35, 24, 19]
29.533[25, 27, 30, 33, 30, 37, 26, 21]
29.547[22, 34, 26, 34, 34, 39, 24, 22]
29.569[23, 36, 27, 28, 31, 39, 22, 25]
29.592[22, 36, 26, 27, 31, 41, 22, 23]
29.607[23, 39, 26, 33, 35, 46, 25, 23]
29.637[21, 39, 27, 39, 34, 45, 23, 21]
29.652[24, 35, 36, 38, 32, 40, 25, 25]
29.666[27, 37, 46, 43, 39, 40, 26, 24]
29.69[27, 37, 48, 54, 40, 49, 31, 25]
29.712[30, 34, 47, 54, 47, 55, 33, 26]
29.727[31, 34, 51, 52, 54, 74, 33, 26]
29.75[28, 31, 47, 56, 62, 77, 34, 23]
29.781[26, 30, 38, 59, 62, 85, 35, 25]
29.788[29, 30, 38, 65, 74, 92, 36, 26]
29.81[31, 54, 51, 82, 74, 117, 42, 32]
29.832[28, 57, 54, 95, 96, 161, 59, 35]
29.846[30, 61, 55, 107, 118, 178, 63, 37]
29.869[30, 59, 55, 112, 126, 204, 66, 37]
29.892[32, 59, 55, 105, 122, 206, 67, 38]
29.907[36, 59, 56, 96, 128, 200, 63, 37]
29.93[43, 76, 58, 105, 119, 179, 49, 37]
29.96[43, 79, 68, 99, 112, 183, 51, 34]
29.975[43, 86, 74, 124, 116, 166, 49, 35]
29.989[42, 90, 73, 128, 123, 176, 47, 33]
30.012[39, 85, 69, 132, 122, 172, 45, 31]
30.035[33, 70, 65, 120, 126, 183, 48, 30]
30.05[37, 67, 56, 126, 135, 187, 44, 30]
30.072[37, 66, 50, 97, 128, 175, 42, 27]
30.095[37, 85, 57, 102, 126, 159, 51, 28]
30.11[37, 85, 54, 97, 126, 198, 53, 28]
30.132[37, 88, 54, 95, 130, 177, 54, 30]
30.154[35, 91, 54, 79, 117, 183, 59, 30]
30.17[38, 91, 55, 89, 140, 219, 61, 29]
30.192[45, 108, 68, 93, 144, 226, 60, 31]
30.215[52, 129, 86, 97, 164, 203, 58, 34]
30.229[57, 137, 87, 95, 155, 200, 53, 33]
30.252[66, 142, 92, 102, 152, 201, 46, 34]
30.275[82, 184, 113, 106, 148, 168, 46, 45]
30.289[82, 169, 107, 107, 162, 190, 40, 47]
30.313[79, 153, 95, 108, 155, 191, 43, 44]
30.334[83, 154, 97, 112, 158, 202, 49, 44]
30.349[81, 168, 99, 137, 195, 184, 49, 47]
30.372[73, 142, 83, 142, 189, 210, 55, 39]
30.396[70, 145, 82, 136, 171, 182, 54, 37]
30.409[72, 157, 87, 134, 159, 173, 50, 37]
30.432[79, 172, 107, 146, 176, 183, 58, 47]
30.455[91, 178, 115, 135, 149, 193, 64, 50]
30.469[86, 166, 109, 135, 158, 161, 62, 50]
30.493[102, 173, 120, 154, 174, 172, 74, 51]
30.515[114, 167, 118, 163, 193, 201, 78, 52]
30.529[151, 175, 108, 157, 198, 197, 71, 53]
30.552[151, 164, 101, 156, 208, 200, 70, 48]
30.575[169, 181, 119, 185, 320, 242, 70, 52]
30.589[242, 195, 120, 194, 330, 252, 61, 62]
30.612[263, 203, 125, 207, 356, 359, 73, 68]
30.635[257, 193, 124, 220, 370, 403, 87, 64]
30.649[268, 189, 124, 228, 390, 481, 95, 67]
30.672[278, 228, 132, 206, 361, 482, 114, 69]
30.695[385, 262, 131, 201, 427, 507, 125, 78]
30.716[404, 261, 126, 186, 429, 433, 122, 82]
30.733[398, 260, 124, 169, 413, 406, 117, 82]
30.754[392, 265, 119, 146, 390, 313, 111, 79]
30.776[473, 232, 101, 136, 341, 295, 96, 83]
30.793[354, 189, 96, 133, 262, 256, 83, 69]
30.814[341, 196, 99, 146, 257, 267, 78, 63]
30.836[355, 190, 95, 150, 264, 249, 76, 61]
30.853[381, 197, 101, 154, 334, 249, 74, 69]
30.881[276, 201, 102, 149, 337, 248, 66, 64]
30.896[276, 192, 96, 132, 330, 245, 66, 59]
30.913[239, 175, 94, 127, 306, 228, 71, 53]
30.934[357, 191, 94, 120, 339, 252, 68, 76]
30.956[342, 192, 89, 114, 278, 244, 71, 71]
30.973[341, 180, 77, 121, 287, 236, 74, 76]
30.994[348, 188, 73, 118, 278, 238, 74, 79]
31.016[353, 195, 74, 105, 271, 238, 66, 81]
31.033[230, 187, 75, 115, 228, 199, 65, 65]
31.054[268, 198, 83, 114, 206, 194, 62, 67]
31.076[270, 189, 82, 116, 189, 195, 61, 56]
31.093[262, 170, 80, 110, 203, 171, 57, 53]
31.114[280, 160, 75, 103, 200, 152, 55, 50]
31.137[297, 143, 69, 91, 189, 148, 54, 47]
31.153[273, 106, 65, 99, 194, 181, 54, 47]
31.174[267, 110, 72, 92, 188, 189, 49, 58]
31.199[258, 107, 72, 93, 169, 184, 45, 58]
31.213[240, 113, 79, 98, 197, 214, 49, 63]
31.234[222, 118, 82, 92, 190, 215, 49, 66]
31.258[250, 119, 80, 104, 210, 206, 45, 67]
31.273[247, 152, 89, 106, 212, 220, 53, 58]
31.294[283, 154, 88, 115, 221, 246, 70, 58]
31.316[319, 158, 81, 114, 264, 242, 69, 53]
31.333[379, 182, 91, 127, 350, 281, 72, 49]
31.354[359, 179, 89, 107, 337, 272, 74, 43]
31.376[431, 168, 78, 118, 362, 250, 73, 57]
31.393[470, 196, 83, 116, 360, 280, 61, 71]
31.415[473, 219, 98, 115, 312, 273, 61, 74]
31.436[422, 205, 90, 114, 233, 245, 61, 75]
31.453[419, 208, 92, 119, 237, 244, 60, 75]
31.474[352, 205, 94, 107, 196, 244, 62, 68]
31.496[316, 183, 90, 106, 183, 191, 61, 55]
31.519[305, 164, 82, 100, 181, 187, 62, 56]
31.534[307, 168, 79, 85, 149, 167, 57, 53]
31.556[294, 162, 79, 81, 129, 154, 55, 57]
31.573[280, 143, 68, 69, 117, 150, 46, 63]
31.594[286, 146, 68, 61, 109, 166, 53, 69]
31.616[319, 150, 74, 98, 168, 172, 58, 85]
31.631[316, 143, 74, 121, 189, 198, 59, 85]
31.654[314, 147, 75, 127, 193, 198, 59, 83]
31.676[325, 163, 83, 136, 200, 223, 67, 75]
31.692[360, 171, 85, 141, 210, 207, 66, 74]
31.714[358, 156, 77, 132, 186, 195, 60, 56]
31.736[368, 151, 76, 124, 184, 174, 62, 57]
31.752[375, 143, 72, 117, 198, 194, 69, 56]
31.774[400, 188, 80, 116, 204, 198, 71, 64]
31.796[412, 238, 96, 109, 196, 203, 67, 65]
31.811[388, 242, 97, 98, 179, 202, 69, 63]
31.834[382, 250, 101, 99, 166, 218, 75, 64]
31.856[403, 266, 112, 142, 183, 240, 71, 66]
31.879[387, 232, 103, 139, 177, 215, 63, 60]
31.894[298, 166, 89, 142, 178, 206, 59, 50]
31.916[268, 170, 92, 142, 185, 216, 65, 50]
31.939[286, 165, 87, 132, 187, 203, 54, 61]
31.954[314, 159, 85, 115, 160, 164, 59, 72]
31.976[325, 158, 89, 197, 174, 162, 62, 77]
31.999[315, 156, 85, 204, 177, 166, 63, 78]
32.014[360, 144, 78, 202, 167, 160, 58, 77]
32.036[396, 149, 78, 202, 187, 153, 56, 78]
32.059[361, 135, 69, 186, 184, 151, 49, 65]
32.074[330, 133, 66, 102, 179, 165, 45, 59]
32.096[341, 132, 64, 80, 184, 161, 44, 60]
32.119[352, 162, 70, 101, 183, 159, 48, 71]
32.134[321, 168, 70, 101, 166, 171, 50, 59]
32.156[321, 161, 68, 104, 189, 201, 49, 59]
32.179[326, 177, 74, 98, 172, 184, 46, 61]
32.194[336, 179, 76, 98, 163, 189, 45, 61]
32.218[344, 170, 73, 76, 162, 184, 47, 50]
32.239[328, 152, 71, 75, 156, 214, 54, 49]
32.254[308, 152, 67, 68, 150, 180, 54, 47]
32.276[329, 168, 82, 67, 167, 183, 53, 48]
32.299[318, 175, 86, 72, 188, 184, 57, 47]
32.314[255, 176, 89, 73, 191, 189, 51, 45]
32.337[258, 185, 96, 73, 189, 189, 48, 46]
32.359[267, 188, 97, 72, 161, 195, 48, 46]
32.374[267, 161, 75, 69, 147, 202, 58, 48]
32.397[266, 156, 75, 73, 193, 201, 58, 63]
32.419[245, 140, 79, 85, 211, 211, 60, 74]
32.434[252, 146, 74, 116, 228, 181, 61, 74]
32.456[272, 137, 74, 122, 243, 176, 62, 76]
32.479[289, 139, 74, 121, 244, 174, 56, 76]
32.494[292, 137, 70, 116, 190, 174, 53, 66]
32.516[306, 155, 65, 115, 173, 166, 50, 60]
32.547[294, 151, 64, 87, 157, 173, 51, 60]
32.554[269, 150, 63, 82, 144, 175, 54, 57]
32.576[230, 144, 62, 80, 134, 165, 57, 55]
32.599[231, 141, 60, 76, 131, 154, 55, 53]
32.614[255, 116, 51, 57, 121, 143, 55, 46]
32.636[297, 109, 47, 44, 99, 111, 49, 43]
32.659[349, 126, 49, 40, 96, 105, 45, 52]
32.674[349, 136, 51, 49, 126, 118, 41, 53]
32.696[350, 138, 53, 51, 124, 129, 46, 52]
32.719[454, 150, 51, 51, 121, 130, 48, 66]
32.736[429, 153, 55, 52, 134, 131, 46, 65]
32.756[405, 158, 62, 58, 145, 139, 46, 65]
32.779[396, 158, 61, 52, 137, 143, 47, 63]
32.801[407, 169, 69, 60, 219, 155, 44, 65]
32.816[291, 151, 67, 60, 226, 157, 41, 49]
32.839[291, 143, 64, 59, 221, 161, 41, 51]
32.861[269, 127, 59, 58, 209, 150, 40, 43]
32.876[273, 117, 62, 66, 203, 137, 39, 43]
32.899[384, 129, 58, 62, 141, 126, 44, 56]
32.922[363, 143, 68, 64, 135, 134, 48, 53]
32.944[349, 141, 66, 63, 156, 140, 50, 54]
32.959[353, 143, 69, 57, 155, 159, 51, 56]
32.981[365, 138, 65, 45, 155, 156, 52, 55]
32.996[237, 110, 62, 55, 189, 146, 55, 41]
33.019[238, 104, 59, 57, 204, 135, 53, 44]
33.042[255, 120, 66, 59, 190, 125, 52, 41]
33.056[287, 128, 59, 57, 188, 98, 49, 47]
33.079[322, 135, 58, 58, 189, 95, 45, 50]
33.101[352, 145, 55, 44, 132, 98, 40, 60]
33.116[364, 139, 57, 43, 119, 101, 46, 61]
33.139[364, 144, 58, 41, 137, 104, 45, 61]
33.161[402, 153, 66, 49, 169, 119, 48, 66]
33.177[399, 172, 86, 69, 190, 168, 53, 68]
33.199[363, 169, 88, 74, 188, 165, 53, 59]
33.221[341, 166, 83, 70, 179, 162, 48, 57]
33.236[422, 165, 77, 72, 178, 158, 48, 70]
33.259[361, 144, 70, 70, 163, 158, 50, 63]
33.281[317, 109, 46, 48, 128, 107, 48, 57]
33.297[313, 100, 40, 43, 133, 109, 46, 58]
33.319[313, 99, 41, 47, 142, 141, 50, 57]
33.341[242, 93, 40, 46, 133, 152, 56, 49]
33.356[241, 128, 45, 51, 133, 145, 53, 47]
33.379[244, 142, 43, 52, 136, 155, 52, 47]
33.401[239, 141, 47, 60, 156, 204, 54, 45]
33.416[242, 152, 54, 61, 153, 184, 52, 45]
33.439[207, 143, 55, 60, 140, 178, 44, 40]
33.462[262, 114, 52, 60, 137, 178, 46, 42]
33.477[274, 98, 51, 74, 152, 172, 48, 44]
33.499[275, 99, 47, 70, 125, 112, 45, 44]
33.522[301, 79, 41, 68, 125, 113, 40, 47]
33.536[271, 79, 46, 74, 141, 130, 44, 42]
33.567[218, 87, 46, 74, 167, 142, 49, 43]
33.581[232, 97, 51, 64, 159, 150, 50, 41]
33.596[257, 105, 52, 64, 173, 148, 49, 46]
33.619[270, 111, 52, 64, 167, 156, 54, 40]
33.643[302, 105, 46, 55, 155, 144, 50, 39]
33.656[374, 126, 55, 48, 132, 136, 45, 46]
33.679[358, 116, 51, 43, 124, 118, 41, 46]
33.702[349, 130, 52, 42, 109, 115, 53, 50]
33.724[316, 135, 56, 43, 110, 97, 54, 51]
33.739[449, 162, 72, 57, 150, 143, 56, 79]
33.762[413, 153, 67, 59, 145, 138, 57, 78]
33.784[424, 156, 67, 60, 162, 145, 58, 79]
33.799[421, 144, 69, 63, 165, 171, 53, 78]
33.822[420, 137, 65, 63, 173, 190, 56, 79]
33.844[284, 129, 55, 59, 150, 176, 64, 58]
33.859[259, 118, 54, 60, 154, 191, 63, 57]
33.882[241, 114, 57, 62, 157, 190, 61, 55]
33.904[235, 112, 57, 57, 152, 175, 62, 52]
33.919[274, 112, 55, 60, 162, 187, 59, 51]
33.942[276, 91, 49, 58, 175, 174, 55, 49]
33.965[268, 90, 50, 55, 169, 174, 55, 43]
33.979[290, 94, 61, 74, 185, 213, 70, 44]
34.002[301, 98, 63, 83, 221, 225, 75, 46]
34.025[280, 103, 64, 80, 210, 212, 74, 48]
34.039[238, 95, 65, 77, 192, 206, 73, 44]
34.062[227, 93, 63, 75, 195, 194, 73, 42]
34.084[198, 89, 48, 52, 167, 151, 60, 41]
34.099[248, 88, 59, 76, 163, 253, 64, 39]
34.122[285, 87, 61, 92, 190, 248, 66, 38]
34.144[292, 95, 66, 99, 198, 279, 67, 45]
34.159[295, 101, 67, 102, 195, 289, 66, 49]
34.182[331, 111, 68, 104, 204, 293, 67, 52]
34.205[290, 101, 52, 80, 171, 195, 52, 51]
34.219[248, 91, 49, 61, 150, 190, 53, 48]
34.242[236, 79, 37, 55, 150, 153, 46, 42]
34.264[249, 68, 36, 54, 174, 137, 50, 37]
34.279[235, 69, 39, 60, 174, 167, 47, 39]
34.302[227, 77, 42, 62, 174, 163, 47, 36]
34.324[249, 89, 44, 62, 170, 168, 44, 37]
34.339[283, 94, 44, 58, 173, 158, 42, 47]
34.362[275, 98, 44, 55, 146, 155, 41, 48]
34.384[242, 95, 43, 47, 132, 124, 45, 44]
34.399[293, 112, 48, 49, 139, 134, 46, 50]
34.422[369, 123, 47, 53, 158, 146, 44, 61]
34.444[370, 122, 48, 59, 147, 149, 45, 59]
34.459[381, 123, 47, 59, 148, 145, 40, 63]
34.482[381, 126, 46, 59, 144, 136, 38, 66]
34.504[407, 125, 51, 69, 155, 168, 52, 69]
34.519[331, 110, 51, 78, 222, 153, 53, 59]
34.542[306, 120, 57, 78, 221, 156, 53, 57]
34.565[325, 117, 57, 82, 242, 180, 55, 53]
34.579[371, 109, 64, 93, 277, 218, 60, 49]
34.603[351, 129, 69, 89, 268, 191, 48, 44]
34.624[338, 133, 69, 79, 201, 192, 45, 43]
34.639[348, 125, 64, 75, 200, 188, 46, 45]
34.662[323, 125, 64, 71, 180, 173, 48, 43]
34.685[265, 121, 56, 54, 126, 117, 38, 44]
34.707[195, 78, 40, 45, 118, 111, 37, 43]
34.722[262, 68, 39, 50, 156, 130, 43, 47]
34.745[246, 66, 38, 51, 167, 137, 42, 43]
34.767[232, 66, 35, 49, 161, 126, 38, 44]
34.782[225, 64, 33, 49, 158, 137, 37, 41]
34.805[260, 63, 29, 51, 171, 143, 36, 37]
34.827[224, 73, 38, 57, 174, 159, 41, 37]
34.842[289, 84, 41, 54, 168, 160, 45, 48]
34.864[298, 86, 42, 55, 168, 172, 44, 46]
34.887[320, 93, 43, 56, 166, 165, 43, 50]
34.902[296, 93, 48, 58, 154, 177, 57, 50]
34.924[271, 79, 42, 51, 112, 159, 56, 46]
34.947[220, 68, 42, 55, 114, 159, 58, 43]
34.962[228, 65, 43, 58, 109, 177, 63, 45]
34.985[209, 54, 43, 64, 126, 185, 66, 39]
35.007[203, 57, 41, 65, 135, 174, 57, 42]
35.022[216, 94, 52, 62, 130, 159, 59, 47]
35.045[257, 96, 53, 62, 124, 151, 56, 45]
35.067[252, 100, 53, 64, 135, 122, 58, 49]
35.081[242, 100, 53, 58, 129, 114, 56, 50]
35.104[238, 103, 53, 56, 123, 109, 53, 46]
35.127[342, 114, 41, 53, 123, 123, 49, 52]
35.143[308, 107, 42, 57, 128, 146, 74, 49]
35.165[296, 105, 40, 51, 115, 142, 72, 46]
35.187[303, 103, 40, 51, 105, 137, 71, 46]
35.201[410, 125, 44, 55, 119, 144, 73, 54]
35.224[335, 97, 44, 55, 126, 151, 70, 48]
35.247[325, 101, 44, 52, 141, 129, 48, 48]
35.261[330, 100, 44, 57, 143, 131, 49, 46]
35.284[337, 104, 45, 61, 156, 135, 49, 47]
35.307[210, 71, 40, 53, 145, 131, 47, 38]
35.321[189, 59, 41, 64, 163, 142, 56, 39]
35.345[251, 69, 39, 61, 169, 165, 53, 44]
35.367[246, 66, 38, 56, 180, 170, 49, 45]
35.381[229, 64, 38, 55, 187, 175, 52, 43]
35.404[221, 61, 37, 58, 188, 171, 59, 44]
35.427[246, 81, 35, 47, 166, 143, 51, 45]
35.442[209, 90, 36, 46, 152, 129, 50, 43]
35.465[220, 92, 35, 47, 137, 121, 49, 43]
35.487[230, 93, 36, 46, 113, 144, 48, 44]
35.501[235, 98, 40, 42, 107, 143, 41, 45]
35.525[230, 112, 44, 41, 116, 143, 41, 39]
35.548[277, 109, 42, 40, 95, 134, 39, 40]
35.561[274, 112, 46, 52, 128, 169, 52, 39]
35.584[289, 118, 47, 58, 135, 146, 53, 53]
35.607[292, 115, 44, 61, 142, 148, 54, 56]
35.63[287, 100, 42, 61, 132, 154, 55, 69]
35.644[221, 86, 42, 62, 146, 156, 54, 78]
35.667[211, 82, 40, 61, 133, 165, 52, 84]
35.689[204, 71, 40, 55, 128, 166, 55, 77]
35.705[300, 74, 39, 57, 136, 162, 53, 78]
35.726[314, 59, 44, 117, 149, 172, 50, 68]
35.749[314, 65, 50, 128, 135, 176, 53, 56]
35.766[319, 65, 48, 128, 138, 151, 44, 49]
35.786[342, 95, 48, 135, 133, 179, 41, 49]
35.809[267, 94, 51, 144, 121, 180, 44, 46]
35.826[233, 95, 43, 112, 131, 177, 46, 43]
35.847[231, 98, 37, 99, 135, 179, 43, 41]
35.869[253, 110, 37, 98, 135, 162, 42, 44]
35.885[213, 85, 34, 105, 141, 123, 38, 46]
35.906[188, 81, 33, 100, 156, 154, 37, 41]
35.929[184, 78, 32, 90, 151, 143, 34, 42]
35.945[222, 92, 38, 89, 158, 137, 37, 50]
35.966[203, 84, 41, 86, 142, 132, 37, 45]
35.989[235, 95, 40, 63, 145, 132, 37, 43]
36.005[240, 92, 38, 55, 150, 113, 39, 45]
36.027[250, 94, 40, 71, 158, 112, 40, 52]
36.049[239, 80, 36, 72, 151, 115, 37, 60]
36.065[258, 77, 34, 73, 160, 115, 38, 68]
36.086[218, 64, 35, 74, 155, 122, 39, 77]
36.109[211, 69, 36, 65, 137, 119, 36, 77]
36.125[216, 72, 39, 50, 139, 124, 37, 73]
36.146[237, 69, 43, 53, 142, 117, 38, 66]
36.169[278, 82, 45, 60, 136, 121, 43, 62]
36.185[295, 83, 43, 71, 141, 117, 43, 55]
36.206[301, 81, 44, 74, 151, 115, 44, 53]
36.229[294, 78, 42, 75, 133, 168, 49, 52]
36.245[270, 75, 39, 77, 137, 190, 53, 51]
36.266[247, 74, 41, 106, 159, 197, 50, 49]
36.289[304, 91, 44, 113, 152, 197, 50, 50]
36.305[308, 92, 41, 112, 137, 193, 49, 52]
36.326[319, 95, 39, 112, 132, 144, 43, 55]
36.349[324, 97, 45, 118, 131, 136, 41, 52]
36.365[299, 87, 42, 87, 110, 128, 40, 48]
36.386[261, 73, 41, 69, 106, 131, 40, 39]
36.409[296, 74, 45, 66, 106, 133, 38, 41]
36.425[325, 85, 44, 78, 103, 131, 41, 43]
36.446[321, 79, 38, 70, 98, 147, 45, 38]
36.469[338, 77, 37, 73, 93, 153, 47, 42]
36.486[371, 85, 39, 80, 108, 167, 47, 47]
36.514[364, 87, 37, 87, 117, 168, 50, 49]
36.529[333, 75, 41, 76, 129, 186, 51, 45]
36.546[334, 80, 38, 70, 138, 159, 43, 45]
36.566[361, 92, 42, 66, 141, 154, 41, 45]
36.589[318, 86, 39, 57, 134, 131, 38, 43]
36.611[287, 80, 37, 46, 141, 128, 35, 39]
36.626[281, 79, 35, 39, 141, 110, 28, 38]
36.649[290, 75, 38, 46, 140, 121, 33, 39]
36.672[242, 80, 41, 50, 148, 132, 32, 37]
36.686[210, 75, 41, 53, 152, 132, 34, 34]
36.709[223, 188, 42, 59, 158, 129, 36, 34]
36.731[235, 233, 41, 62, 150, 122, 37, 34]
36.746[217, 236, 39, 66, 144, 106, 34, 34]
36.769[226, 232, 36, 73, 148, 102, 42, 31]
36.792[234, 233, 36, 79, 167, 128, 44, 31]
36.806[251, 161, 34, 78, 157, 127, 42, 32]
36.829[273, 92, 39, 91, 165, 125, 44, 45]
36.852[288, 83, 38, 94, 165, 126, 43, 44]
36.866[274, 74, 33, 87, 146, 123, 36, 43]
36.889[263, 70, 32, 85, 155, 120, 35, 44]
36.912[250, 73, 33, 81, 152, 124, 36, 46]
36.926[250, 68, 31, 67, 147, 124, 33, 40]
36.949[264, 75, 31, 53, 141, 136, 33, 40]
36.971[254, 80, 34, 60, 150, 137, 37, 42]
36.986[266, 78, 35, 55, 119, 124, 36, 42]
37.009[260, 67, 36, 72, 116, 121, 35, 38]
37.032[303, 80, 37, 83, 124, 142, 36, 39]
37.046[269, 75, 39, 83, 139, 138, 38, 40]
37.069[274, 74, 37, 79, 134, 140, 34, 38]
37.091[321, 76, 36, 80, 139, 142, 35, 42]
37.106[322, 81, 37, 67, 140, 141, 37, 44]
37.129[293, 82, 41, 52, 134, 124, 38, 52]
37.152[302, 83, 38, 48, 118, 114, 39, 51]
37.166[299, 86, 40, 45, 128, 100, 39, 51]
37.189[250, 84, 42, 80, 146, 94, 35, 49]
37.212[262, 90, 42, 84, 148, 128, 40, 51]
37.226[288, 87, 38, 84, 162, 135, 40, 44]
37.249[286, 83, 38, 84, 167, 138, 39, 49]
37.272[287, 81, 38, 89, 169, 139, 41, 49]
37.286[297, 87, 39, 60, 144, 144, 46, 53]
37.309[298, 84, 37, 54, 141, 120, 41, 52]
37.331[269, 81, 39, 57, 119, 112, 40, 50]
37.348[280, 87, 39, 59, 129, 132, 47, 48]
37.369[280, 84, 36, 52, 117, 129, 44, 48]
37.392[305, 78, 34, 52, 125, 117, 39, 45]
37.407[293, 76, 32, 49, 125, 108, 38, 42]
37.429[264, 70, 32, 47, 129, 118, 41, 41]
37.452[397, 89, 34, 48, 117, 123, 34, 51]
37.466[406, 89, 34, 53, 116, 125, 36, 50]
37.489[425, 107, 35, 61, 128, 130, 39, 53]
37.511[425, 101, 34, 61, 140, 128, 38, 52]
37.534[421, 96, 30, 60, 146, 122, 37, 48]
37.549[288, 77, 28, 56, 146, 100, 34, 37]
37.571[314, 83, 29, 53, 147, 96, 32, 44]
37.594[290, 64, 27, 44, 138, 95, 33, 43]
37.609[281, 70, 32, 52, 145, 150, 40, 45]
37.631[341, 74, 36, 50, 141, 157, 43, 48]
37.654[376, 80, 36, 49, 148, 155, 44, 50]
37.669[339, 73, 34, 46, 153, 158, 44, 44]
37.691[297, 75, 40, 46, 145, 158, 45, 40]
37.714[299, 74, 35, 40, 123, 109, 40, 38]
37.729[296, 80, 38, 52, 143, 137, 37, 40]
37.751[255, 75, 41, 56, 131, 136, 36, 36]
37.774[302, 94, 48, 60, 123, 139, 38, 45]
37.789[313, 92, 43, 56, 116, 138, 34, 44]
37.811[348, 100, 55, 70, 175, 172, 33, 48]
37.834[309, 100, 54, 67, 173, 160, 31, 45]
37.849[313, 109, 57, 68, 185, 161, 31, 51]
37.871[336, 103, 53, 65, 189, 155, 31, 48]
37.894[364, 109, 56, 65, 193, 152, 31, 54]
37.909[341, 100, 45, 51, 142, 129, 32, 55]
37.931[379, 110, 49, 45, 119, 113, 40, 57]
37.954[405, 97, 50, 43, 103, 119, 43, 54]
37.969[349, 89, 48, 46, 91, 128, 43, 49]
37.991[328, 83, 46, 49, 86, 135, 47, 47]
38.014[316, 87, 49, 52, 86, 133, 48, 39]
38.029[281, 66, 43, 59, 101, 128, 41, 39]
38.051[266, 71, 38, 64, 113, 117, 38, 47]
38.074[301, 75, 37, 64, 113, 105, 37, 48]
38.097[288, 80, 37, 63, 122, 102, 32, 45]
38.112[294, 74, 30, 58, 119, 77, 30, 46]
38.134[300, 78, 31, 53, 131, 83, 34, 47]
38.149[262, 79, 28, 48, 115, 85, 35, 37]
38.171[242, 80, 36, 47, 119, 105, 38, 37]
38.194[261, 72, 36, 47, 113, 107, 38, 39]
38.209[295, 76, 40, 51, 133, 116, 42, 43]
38.232[259, 70, 40, 46, 117, 107, 39, 39]
38.254[288, 75, 41, 43, 125, 111, 37, 39]
38.269[271, 69, 35, 42, 125, 113, 35, 38]
38.292[251, 68, 35, 49, 133, 134, 40, 37]
38.314[240, 62, 35, 47, 111, 139, 41, 35]
38.329[241, 79, 38, 50, 102, 150, 45, 34]
38.351[211, 74, 41, 54, 106, 184, 47, 37]
38.374[250, 78, 42, 54, 111, 182, 49, 40]
38.389[285, 83, 41, 48, 106, 168, 46, 45]
38.411[254, 100, 43, 47, 112, 162, 43, 44]
38.434[252, 97, 43, 44, 136, 160, 43, 45]
38.457[242, 92, 39, 41, 126, 114, 41, 44]
38.471[244, 88, 38, 40, 118, 104, 39, 40]
38.494[223, 89, 41, 39, 116, 109, 45, 40]
38.517[264, 82, 45, 42, 164, 118, 48, 47]
38.531[261, 71, 43, 44, 156, 127, 46, 45]
38.554[274, 73, 46, 48, 163, 134, 49, 44]
38.585[244, 74, 46, 47, 169, 131, 49, 44]
38.591[270, 83, 49, 53, 167, 120, 45, 50]
38.614[237, 74, 42, 49, 115, 120, 38, 44]
38.637[246, 75, 42, 49, 107, 123, 41, 44]
38.652[238, 73, 39, 43, 97, 115, 37, 44]
38.674[372, 102, 45, 57, 122, 121, 41, 59]
38.697[361, 94, 37, 56, 127, 119, 40, 54]
38.711[371, 100, 43, 65, 156, 137, 42, 54]
38.734[373, 102, 41, 64, 150, 117, 39, 54]
38.757[400, 114, 50, 71, 173, 119, 41, 58]
38.771[406, 127, 49, 62, 156, 114, 35, 67]
38.794[388, 124, 50, 57, 148, 113, 33, 63]
38.817[379, 118, 49, 49, 129, 77, 29, 63]
38.832[378, 115, 48, 49, 134, 95, 27, 64]
38.854[378, 115, 41, 46, 135, 115, 30, 63]
38.877[259, 84, 39, 57, 173, 125, 32, 40]
38.892[318, 92, 40, 59, 181, 135, 34, 42]
38.914[312, 89, 35, 58, 179, 137, 37, 39]
38.937[307, 88, 35, 56, 177, 124, 39, 40]
38.951[288, 83, 37, 49, 168, 107, 38, 40]
38.974[297, 73, 35, 44, 148, 108, 41, 36]
38.997[223, 95, 33, 43, 144, 99, 41, 36]
39.012[225, 119, 37, 44, 137, 119, 39, 48]
39.034[241, 126, 38, 45, 145, 122, 38, 53]
39.057[260, 135, 38, 48, 133, 122, 35, 53]
39.071[232, 132, 38, 43, 123, 119, 30, 55]
39.094[244, 123, 42, 56, 134, 122, 28, 60]
39.117[246, 101, 40, 57, 145, 117, 31, 52]
39.131[288, 101, 43, 57, 135, 115, 30, 49]
39.154[278, 84, 38, 56, 132, 113, 30, 49]
39.177[277, 84, 37, 53, 130, 120, 31, 53]
39.191[269, 66, 35, 41, 121, 153, 37, 45]
39.215[280, 74, 37, 40, 109, 142, 36, 45]
39.237[266, 69, 34, 47, 110, 152, 37, 45]
39.252[243, 69, 35, 51, 127, 156, 41, 47]
39.275[235, 66, 36, 51, 120, 149, 41, 39]
39.297[241, 66, 36, 49, 118, 124, 36, 43]
39.312[223, 59, 34, 47, 111, 117, 36, 43]
39.335[177, 56, 32, 39, 111, 105, 34, 40]
39.357[188, 59, 33, 40, 121, 109, 29, 37]
39.371[203, 58, 32, 42, 128, 110, 28, 38]
39.395[247, 65, 29, 42, 133, 114, 31, 40]
39.417[258, 63, 28, 44, 135, 119, 38, 38]
39.439[250, 58, 29, 45, 135, 119, 38, 41]
39.454[259, 62, 32, 38, 110, 104, 39, 38]
39.477[299, 72, 34, 47, 101, 100, 39, 44]
39.5[261, 66, 34, 48, 94, 85, 36, 40]
39.515[273, 68, 34, 46, 101, 82, 29, 41]
39.537[286, 67, 34, 46, 110, 86, 29, 39]
39.559[278, 63, 35, 48, 112, 103, 35, 38]
39.574[242, 63, 40, 54, 134, 128, 35, 37]
39.597[257, 65, 41, 55, 132, 129, 34, 41]
39.619[232, 65, 41, 56, 136, 130, 35, 40]
39.634[224, 72, 42, 56, 145, 127, 37, 40]
39.657[205, 66, 36, 54, 140, 115, 30, 39]
39.68[440, 127, 42, 43, 125, 102, 32, 66]
39.695[447, 129, 40, 42, 131, 108, 37, 66]
39.717[449, 132, 41, 42, 122, 108, 37, 68]
39.739[451, 129, 42, 39, 98, 106, 34, 67]
39.754[468, 131, 44, 43, 104, 109, 41, 71]
39.777[291, 91, 34, 44, 91, 94, 40, 46]
39.8[333, 114, 41, 45, 75, 126, 44, 56]
39.814[355, 113, 40, 45, 91, 133, 44, 55]
39.838[363, 117, 43, 46, 109, 135, 46, 57]
39.859[353, 120, 44, 47, 113, 148, 43, 55]
39.874[327, 112, 45, 41, 113, 150, 42, 57]
39.897[260, 86, 39, 38, 113, 113, 34, 46]
39.927[240, 85, 41, 40, 115, 111, 34, 46]
39.934[211, 78, 39, 43, 112, 130, 33, 43]
39.957[201, 86, 50, 60, 107, 110, 33, 45]
39.979[264, 92, 47, 84, 125, 107, 34, 49]
39.994[311, 102, 55, 93, 136, 110, 35, 51]
40.017[297, 99, 53, 91, 128, 102, 34, 50]
40.04[299, 100, 53, 93, 123, 120, 38, 49]
40.054[295, 90, 42, 81, 121, 127, 40, 46]
40.077[211, 69, 41, 58, 99, 128, 39, 31]
40.099[118, 49, 30, 45, 88, 124, 38, 27]
40.114[104, 46, 28, 46, 83, 131, 39, 23]
40.152[91, 75, 26, 41, 77, 104, 36, 22]
40.161[71, 82, 26, 40, 75, 101, 34, 23]
40.174[46, 80, 25, 37, 74, 99, 34, 23]
40.197[64, 82, 30, 42, 73, 121, 37, 24]
40.22[67, 89, 30, 43, 71, 112, 36, 33]
40.234[70, 79, 28, 45, 73, 99, 59, 132]
40.257[70, 77, 31, 47, 80, 101, 61, 158]
40.28[70, 79, 34, 50, 97, 123, 66, 169]
40.294[46, 82, 33, 50, 103, 140, 68, 174]
40.317[38, 74, 35, 48, 105, 153, 67, 176]
40.34[32, 57, 36, 48, 103, 154, 50, 127]
40.362[34, 67, 32, 43, 97, 153, 49, 94]
40.377[32, 78, 28, 41, 80, 157, 43, 75]
40.4[38, 85, 35, 39, 76, 139, 40, 63]
40.422[37, 89, 36, 37, 79, 128, 41, 53]
40.437[36, 89, 36, 36, 77, 127, 37, 34]
40.459[30, 78, 36, 42, 86, 134, 34, 30]
40.482[29, 60, 37, 43, 90, 112, 37, 25]
40.497[22, 43, 28, 40, 82, 93, 35, 24]
40.519[30, 39, 28, 41, 79, 87, 35, 21]
40.542[29, 38, 28, 39, 75, 86, 33, 20]
40.557[29, 30, 28, 42, 84, 65, 32, 18]
40.58[28, 30, 27, 41, 84, 61, 27, 19]
40.602[30, 32, 27, 41, 83, 61, 29, 18]
40.616[21, 28, 28, 45, 87, 109, 36, 21]
40.64[24, 32, 27, 45, 88, 109, 37, 21]
40.662[24, 35, 27, 38, 68, 112, 37, 23]
40.677[25, 46, 28, 38, 67, 110, 36, 21]
40.7[24, 45, 26, 38, 71, 107, 33, 22]
40.722[24, 47, 23, 38, 87, 59, 28, 19]
40.736[21, 44, 26, 42, 91, 58, 26, 18]
40.76[21, 42, 26, 41, 90, 59, 26, 19]
40.781[20, 31, 25, 40, 87, 59, 26, 20]
40.805[20, 29, 28, 41, 89, 68, 28, 20]
40.82[20, 33, 30, 36, 103, 73, 27, 22]
40.841[20, 37, 27, 36, 104, 70, 30, 22]
40.864[20, 37, 27, 37, 110, 66, 31, 20]
40.88[22, 41, 45, 50, 111, 65, 30, 20]
40.909[22, 43, 49, 53, 105, 58, 29, 19]
40.924[23, 37, 48, 52, 74, 50, 28, 19]
40.94[22, 33, 49, 52, 69, 57, 31, 19]
40.961[23, 33, 50, 50, 57, 66, 33, 21]
40.984[22, 25, 36, 39, 63, 68, 34, 22]
41.0[21, 21, 29, 32, 63, 68, 35, 25]
41.021[21, 25, 29, 34, 63, 67, 34, 25]
41.044[22, 25, 28, 35, 66, 64, 30, 26]
41.06[20, 27, 29, 34, 69, 79, 31, 27]
41.081[22, 30, 32, 39, 93, 92, 35, 27]
41.098[22, 30, 32, 43, 112, 108, 38, 27]
41.12[22, 30, 33, 49, 110, 109, 39, 26]
41.141[24, 32, 36, 49, 111, 107, 39, 25]
41.164[24, 30, 34, 49, 112, 88, 34, 22]
41.18[22, 30, 34, 46, 88, 71, 29, 21]
41.201[20, 30, 33, 50, 60, 40, 25, 18]
41.218[20, 26, 33, 45, 72, 68, 26, 21]
41.24[17, 24, 32, 47, 71, 89, 30, 22]
41.262[20, 26, 34, 54, 75, 99, 39, 25]
41.278[22, 24, 34, 61, 73, 99, 48, 39]
41.3[24, 27, 34, 57, 79, 102, 51, 46]
41.321[24, 27, 35, 60, 73, 90, 52, 52]
41.344[25, 27, 33, 57, 71, 73, 50, 56]
41.36[23, 26, 31, 51, 65, 61, 43, 54]
41.381[23, 28, 27, 45, 72, 72, 35, 47]
41.404[22, 25, 28, 42, 66, 68, 31, 40]
41.419[23, 29, 27, 38, 65, 84, 35, 29]
41.441[25, 29, 26, 39, 64, 101, 35, 21]
41.464[25, 31, 27, 38, 64, 118, 39, 20]
41.479[25, 31, 28, 36, 67, 116, 39, 28]
41.501[24, 30, 29, 34, 70, 117, 36, 30]
41.524[24, 28, 27, 32, 66, 103, 31, 29]
41.539[21, 28, 26, 28, 63, 84, 32, 29]
41.561[20, 26, 25, 30, 58, 58, 28, 30]
41.584[18, 26, 25, 26, 47, 49, 26, 24]
41.6[19, 27, 23, 28, 41, 44, 27, 23]
41.621[18, 24, 23, 30, 40, 51, 26, 23]
41.644[18, 23, 23, 32, 46, 51, 24, 24]
41.659[21, 24, 21, 30, 55, 46, 24, 23]
41.681[22, 22, 20, 33, 61, 49, 24, 20]
41.704[24, 24, 20, 33, 64, 53, 25, 21]
41.72[24, 23, 19, 34, 63, 43, 26, 22]
41.743[31, 22, 22, 31, 57, 48, 28, 22]
41.764[32, 22, 24, 32, 51, 53, 28, 24]
41.779[33, 24, 25, 30, 51, 56, 26, 23]
41.802[32, 21, 26, 32, 55, 56, 24, 23]
41.824[32, 22, 29, 28, 61, 54, 21, 23]
41.839[24, 23, 27, 32, 64, 48, 19, 22]
41.861[22, 21, 25, 31, 67, 47, 20, 21]
41.884[21, 20, 26, 31, 62, 42, 24, 21]
41.899[22, 22, 27, 31, 54, 45, 28, 31]
41.921[21, 21, 26, 34, 50, 47, 28, 37]
41.944[22, 21, 27, 31, 47, 46, 30, 38]
41.959[22, 22, 27, 30, 67, 45, 27, 38]
41.981[23, 22, 27, 30, 69, 42, 27, 39]
42.004[21, 22, 25, 27, 68, 33, 23, 33]
42.019[23, 22, 25, 24, 68, 35, 24, 26]
42.041[23, 24, 26, 30, 77, 42, 20, 27]
42.064[22, 23, 26, 31, 59, 40, 25, 24]
42.079[21, 23, 25, 32, 56, 41, 23, 22]
42.101[21, 22, 27, 33, 58, 43, 23, 20]
42.124[20, 24, 25, 33, 81, 52, 26, 20]
42.139[19, 21, 25, 31, 74, 49, 28, 18]
42.161[19, 21, 24, 31, 76, 53, 24, 18]
42.192[18, 23, 22, 31, 77, 55, 27, 20]
42.199[18, 25, 20, 31, 79, 53, 33, 20]
42.221[20, 23, 20, 29, 53, 44, 32, 23]
42.244[21, 25, 18, 27, 50, 43, 30, 23]
42.274[22, 24, 21, 24, 42, 47, 37, 30]
42.281[23, 23, 22, 24, 44, 48, 35, 31]
42.304[24, 20, 23, 28, 52, 49, 28, 31]
42.326[24, 21, 25, 28, 52, 45, 29, 31]
42.341[22, 19, 26, 32, 54, 46, 29, 30]
42.364[22, 22, 26, 33, 53, 42, 21, 24]
42.386[25, 27, 28, 32, 51, 54, 25, 24]
42.401[24, 26, 27, 29, 42, 57, 26, 24]
42.424[21, 28, 27, 30, 39, 57, 24, 22]
42.446[22, 30, 28, 28, 39, 59, 24, 21]
42.461[22, 30, 26, 30, 43, 62, 25, 23]
42.484[19, 26, 23, 29, 38, 49, 22, 22]
42.506[19, 27, 25, 28, 45, 47, 21, 22]
42.521[21, 25, 25, 29, 48, 51, 24, 22]
42.544[22, 23, 22, 28, 48, 49, 23, 23]
42.566[22, 20, 24, 23, 45, 41, 24, 22]
42.581[23, 22, 24, 25, 51, 42, 24, 20]
42.604[22, 23, 24, 26, 52, 40, 23, 23]
42.626[23, 23, 25, 27, 54, 40, 24, 23]
42.641[23, 26, 25, 27, 53, 42, 24, 23]
42.664[23, 26, 27, 30, 58, 46, 21, 22]
42.686[22, 24, 28, 32, 57, 55, 26, 22]
42.701[24, 26, 27, 36, 53, 73, 29, 20]
42.724[22, 27, 26, 34, 53, 75, 30, 21]
42.746[21, 24, 27, 33, 52, 75, 33, 20]
42.761[21, 24, 25, 32, 49, 71, 33, 19]
42.784[21, 26, 24, 27, 42, 64, 31, 21]
42.806[20, 22, 23, 25, 41, 44, 32, 21]
42.821[20, 23, 25, 27, 63, 43, 29, 19]
42.852[20, 22, 26, 28, 69, 48, 27, 21]
42.866[18, 22, 24, 28, 69, 51, 28, 22]
42.881[18, 19, 23, 31, 73, 61, 27, 23]
42.904[21, 20, 23, 31, 71, 61, 26, 22]
42.926[21, 18, 21, 29, 54, 57, 26, 22]
42.941[21, 18, 21, 30, 49, 52, 26, 23]
42.964[21, 19, 22, 29, 53, 51, 26, 21]
42.986[21, 22, 23, 28, 55, 42, 25, 21]
43.001[19, 22, 25, 27, 58, 42, 23, 21]
43.024[18, 23, 28, 27, 55, 42, 22, 21]
43.046[18, 23, 25, 24, 55, 53, 23, 18]
43.061[18, 21, 26, 28, 50, 52, 23, 18]
43.083[20, 21, 25, 28, 47, 49, 21, 16]
43.107[20, 21, 23, 27, 44, 45, 22, 18]
43.121[20, 19, 19, 27, 44, 43, 23, 19]
43.144[20, 21, 19, 28, 42, 39, 24, 22]
43.174[20, 19, 20, 26, 40, 42, 23, 23]
43.197[23, 20, 20, 26, 40, 47, 25, 23]
43.204[22, 21, 21, 26, 38, 50, 26, 22]
43.226[24, 22, 22, 26, 41, 50, 25, 20]
43.25[26, 21, 23, 25, 41, 44, 22, 18]
43.264[26, 24, 24, 28, 53, 46, 23, 16]
43.286[26, 23, 23, 28, 54, 45, 21, 17]
43.309[26, 22, 23, 29, 56, 46, 20, 16]
43.324[25, 22, 22, 28, 53, 45, 23, 18]
43.346[24, 21, 22, 29, 51, 43, 24, 18]
43.369[23, 23, 22, 25, 39, 37, 23, 20]
43.384[21, 22, 22, 23, 32, 35, 23, 19]
43.406[21, 25, 24, 25, 37, 37, 23, 20]
43.429[21, 25, 25, 26, 39, 41, 21, 19]
43.443[21, 25, 25, 23, 39, 45, 20, 22]
43.466[21, 24, 24, 24, 57, 47, 20, 22]
43.489[20, 25, 25, 24, 65, 50, 22, 22]
43.504[20, 23, 25, 24, 65, 53, 23, 22]
43.526[22, 23, 24, 27, 71, 51, 24, 23]
43.549[22, 23, 24, 28, 82, 58, 26, 21]
43.564[21, 21, 25, 28, 74, 66, 27, 21]
43.586[22, 21, 25, 29, 68, 65, 26, 23]
43.609[23, 22, 25, 29, 67, 61, 25, 24]
43.624[21, 21, 26, 27, 65, 60, 25, 22]
43.646[22, 23, 28, 26, 56, 50, 24, 22]
43.67[22, 23, 25, 28, 66, 45, 24, 21]
43.684[23, 22, 25, 28, 66, 45, 25, 22]
43.706[21, 22, 23, 25, 64, 44, 25, 20]
43.73[20, 24, 22, 25, 68, 50, 25, 21]
43.744[21, 24, 21, 27, 67, 52, 25, 22]
43.766[20, 24, 22, 26, 54, 49, 23, 23]
43.789[18, 22, 22, 28, 57, 45, 21, 21]
43.804[19, 22, 23, 28, 57, 50, 21, 23]
43.826[19, 22, 26, 27, 47, 44, 20, 23]
43.849[18, 18, 26, 27, 46, 42, 19, 22]
43.864[21, 21, 26, 28, 48, 42, 20, 22]
43.887[21, 21, 25, 27, 40, 41, 20, 22]
43.909[19, 21, 27, 29, 52, 39, 21, 20]
43.924[19, 21, 26, 32, 52, 36, 19, 20]
43.946[21, 23, 27, 30, 51, 40, 22, 19]
43.97[19, 23, 26, 28, 53, 39, 22, 19]
43.984[21, 23, 26, 29, 54, 42, 23, 19]
44.006[22, 24, 27, 31, 50, 40, 23, 21]
44.03[22, 23, 26, 28, 60, 52, 27, 20]
44.044[20, 23, 25, 31, 67, 52, 30, 20]
44.066[20, 22, 24, 31, 64, 51, 30, 25]
44.089[17, 22, 24, 30, 63, 50, 29, 24]
44.104[17, 21, 20, 27, 60, 49, 29, 22]
44.126[19, 22, 21, 29, 52, 42, 28, 23]
44.149[18, 21, 21, 27, 45, 42, 23, 25]
44.172[19, 20, 21, 27, 54, 43, 23, 20]
44.186[20, 21, 22, 25, 57, 41, 23, 19]
44.209[21, 23, 23, 27, 55, 46, 23, 21]
44.232[19, 23, 22, 24, 52, 43, 24, 22]
44.246[21, 23, 24, 25, 48, 41, 23, 20]
44.269[22, 23, 24, 25, 54, 49, 25, 23]
44.292[23, 22, 22, 26, 67, 57, 26, 25]
44.306[24, 21, 25, 28, 71, 56, 26, 24]
44.329[24, 21, 24, 29, 72, 55, 23, 23]
44.352[23, 20, 23, 27, 74, 54, 23, 24]
44.366[25, 20, 25, 31, 64, 52, 23, 22]
44.389[24, 22, 25, 33, 54, 49, 22, 19]
44.412[22, 22, 24, 30, 50, 49, 21, 20]
44.426[22, 21, 25, 32, 64, 52, 21, 20]
44.449[22, 22, 25, 37, 66, 51, 22, 18]
44.472[20, 22, 25, 34, 66, 45, 21, 18]
44.486[19, 22, 25, 32, 60, 39, 22, 22]
44.51[20, 23, 26, 34, 63, 37, 22, 21]
44.532[20, 23, 27, 34, 48, 36, 23, 21]
44.546[20, 23, 29, 30, 44, 40, 23, 22]
44.57[21, 23, 28, 30, 45, 41, 24, 22]
44.592[23, 20, 29, 28, 57, 39, 25, 19]
44.606[21, 18, 26, 26, 54, 40, 25, 21]
44.629[21, 20, 28, 30, 57, 40, 25, 21]
44.652[22, 21, 25, 31, 57, 38, 24, 20]
44.666[20, 21, 23, 29, 55, 38, 23, 22]
44.689[20, 22, 21, 32, 48, 40, 21, 22]
44.712[20, 21, 22, 36, 46, 43, 22, 26]
44.726[20, 21, 18, 32, 47, 44, 22, 27]
44.75[18, 21, 20, 32, 50, 44, 20, 26]
44.772[19, 21, 22, 31, 60, 43, 22, 24]
44.786[18, 23, 24, 31, 58, 42, 25, 24]
44.809[19, 25, 24, 25, 58, 38, 25, 21]
44.832[19, 22, 24, 26, 56, 38, 26, 21]
44.846[20, 23, 24, 27, 53, 36, 26, 22]
44.869[20, 23, 24, 28, 40, 38, 25, 23]
44.892[21, 21, 22, 25, 37, 37, 23, 24]
44.907[21, 19, 25, 26, 42, 39, 22, 22]
44.929[21, 20, 26, 27, 48, 35, 20, 23]
44.952[22, 21, 25, 24, 52, 35, 21, 23]
44.966[22, 19, 27, 24, 52, 32, 22, 24]
44.99[22, 21, 26, 24, 55, 31, 21, 24]
45.012[22, 21, 24, 25, 53, 30, 20, 23]
45.026[24, 24, 24, 46, 46, 28, 19, 24]
45.049[21, 23, 25, 54, 43, 29, 18, 25]
45.072[21, 23, 24, 56, 46, 30, 17, 25]
45.094[21, 24, 25, 57, 54, 37, 17, 26]
45.109[20, 23, 23, 57, 61, 37, 17, 25]
45.132[17, 20, 24, 44, 69, 50, 22, 23]
45.155[18, 20, 22, 33, 68, 52, 23, 23]
45.169[20, 21, 27, 38, 73, 58, 25, 23]
45.192[19, 19, 27, 35, 68, 58, 27, 22]
45.214[19, 22, 27, 36, 79, 59, 27, 22]
45.229[22, 22, 26, 33, 75, 54, 25, 23]
45.252[21, 23, 27, 35, 75, 52, 25, 22]
45.274[19, 25, 23, 26, 69, 45, 21, 21]
45.289[22, 26, 23, 26, 69, 44, 18, 20]
45.312[22, 24, 23, 23, 45, 50, 19, 19]
45.335[19, 24, 22, 24, 41, 47, 20, 18]
45.349[19, 21, 24, 24, 43, 46, 21, 19]
45.372[20, 20, 22, 24, 43, 48, 23, 22]
45.395[17, 18, 22, 25, 39, 47, 24, 22]
45.409[17, 18, 22, 25, 40, 44, 23, 23]
45.432[18, 17, 23, 28, 41, 48, 27, 22]
45.454[17, 20, 22, 28, 52, 48, 25, 21]
45.469[19, 22, 23, 29, 71, 48, 25, 18]
45.492[20, 22, 25, 30, 73, 46, 25, 17]
45.514[20, 24, 25, 32, 74, 43, 26, 17]
45.529[20, 25, 23, 28, 72, 37, 21, 18]
45.552[21, 27, 23, 30, 78, 47, 21, 19]
45.574[20, 25, 24, 29, 75, 47, 22, 20]
45.589[21, 26, 22, 28, 74, 47, 21, 21]
45.612[20, 25, 22, 26, 72, 48, 22, 21]
45.635[19, 25, 22, 26, 73, 49, 25, 22]
45.649[19, 23, 22, 23, 56, 42, 25, 21]
45.672[18, 22, 22, 24, 46, 41, 24, 22]
45.695[16, 20, 25, 27, 49, 46, 25, 22]
45.709[17, 20, 23, 29, 61, 46, 24, 22]
45.732[18, 20, 25, 30, 62, 49, 22, 22]
45.754[18, 21, 24, 30, 67, 51, 24, 22]
45.769[17, 21, 21, 29, 62, 49, 23, 19]
45.793[20, 22, 21, 28, 60, 45, 26, 21]
45.814[19, 22, 23, 26, 49, 44, 26, 22]
45.837[19, 22, 21, 24, 58, 38, 25, 23]
45.853[18, 21, 22, 24, 53, 31, 24, 25]
45.874[19, 22, 24, 24, 54, 31, 24, 27]
45.896[19, 22, 21, 23, 63, 31, 22, 27]
45.913[19, 21, 22, 24, 68, 33, 22, 26]
45.935[20, 20, 21, 26, 59, 34, 21, 24]
45.956[20, 22, 21, 26, 69, 37, 21, 23]
45.973[23, 21, 21, 27, 73, 35, 21, 22]
45.993[20, 21, 21, 25, 65, 38, 22, 20]
46.016[22, 21, 23, 25, 68, 38, 21, 23]
46.033[21, 22, 23, 23, 68, 38, 22, 23]
46.053[19, 21, 23, 23, 56, 38, 24, 24]
46.076[19, 24, 23, 21, 49, 42, 23, 26]
46.093[19, 27, 25, 26, 48, 41, 22, 28]
46.114[18, 26, 22, 31, 37, 36, 25, 31]
46.136[18, 26, 22, 37, 54, 34, 24, 30]
46.16[18, 25, 23, 40, 58, 36, 22, 28]
46.174[17, 23, 25, 41, 58, 33, 21, 27]
46.196[19, 21, 25, 38, 59, 33, 22, 25]
46.213[19, 22, 27, 34, 60, 35, 19, 18]
46.233[21, 23, 27, 29, 46, 36, 19, 20]
46.256[20, 23, 26, 27, 48, 36, 21, 23]
46.272[20, 23, 23, 27, 57, 40, 24, 22]
46.293[22, 23, 22, 30, 62, 48, 24, 24]
46.316[26, 22, 24, 31, 62, 48, 27, 26]
46.332[26, 23, 22, 30, 61, 48, 29, 25]
46.354[26, 22, 24, 29, 55, 46, 28, 23]
46.376[25, 21, 24, 27, 48, 46, 27, 20]
46.393[28, 22, 26, 24, 43, 39, 28, 19]
46.414[24, 25, 25, 23, 45, 39, 24, 16]
46.436[23, 24, 26, 31, 52, 42, 26, 18]
46.453[23, 24, 28, 31, 54, 41, 26, 19]
46.474[24, 24, 30, 33, 50, 37, 25, 89]
46.496[19, 26, 28, 34, 47, 32, 27, 121]
46.512[18, 22, 26, 39, 63, 35, 28, 128]
46.534[20, 23, 25, 38, 70, 37, 26, 128]
46.556[21, 23, 23, 39, 70, 42, 26, 128]
46.571[22, 24, 24, 38, 72, 43, 28, 94]
46.594[20, 22, 26, 37, 72, 43, 27, 47]
46.616[31, 25, 27, 32, 55, 42, 26, 25]
46.632[38, 26, 29, 26, 39, 38, 25, 26]
46.654[39, 26, 29, 28, 43, 38, 25, 26]
46.676[39, 27, 25, 30, 39, 38, 21, 27]
46.699[40, 25, 26, 30, 42, 43, 47, 31]
46.714[34, 23, 26, 31, 51, 43, 59, 29]
46.736[25, 23, 26, 30, 53, 40, 61, 28]
46.751[23, 26, 25, 30, 49, 39, 61, 27]
46.781[23, 25, 27, 26, 50, 40, 63, 26]
46.796[22, 27, 25, 28, 49, 37, 46, 23]
46.811[19, 27, 27, 28, 43, 36, 29, 20]
46.841[21, 26, 25, 28, 46, 47, 28, 29]
46.856[20, 24, 27, 38, 48, 47, 28, 31]
46.871[20, 23, 27, 46, 58, 44, 23, 31]
46.894[23, 25, 26, 46, 60, 44, 23, 31]
46.916[23, 26, 24, 48, 62, 44, 22, 31]
46.931[22, 24, 25, 48, 56, 34, 20, 23]
46.954[22, 25, 25, 38, 56, 37, 23, 24]
46.976[23, 27, 26, 29, 50, 39, 22, 23]
46.999[18, 26, 27, 26, 45, 39, 22, 25]
47.014[18, 27, 25, 24, 39, 37, 22, 25]
47.036[19, 29, 27, 25, 40, 35, 26, 25]
47.059[23, 29, 28, 25, 41, 32, 26, 22]
47.074[30, 28, 28, 26, 35, 29, 28, 22]
47.096[32, 28, 30, 26, 52, 33, 29, 19]
47.119[33, 25, 30, 25, 53, 35, 29, 18]
47.134[33, 24, 28, 24, 55, 39, 25, 20]
47.157[30, 23, 25, 23, 51, 38, 23, 20]
47.187[22, 23, 25, 25, 52, 45, 27, 18]
47.193[23, 25, 24, 27, 36, 44, 28, 22]
47.217[22, 26, 26, 29, 36, 46, 29, 23]
47.238[23, 25, 34, 31, 45, 48, 29, 22]
47.254[23, 27, 35, 31, 57, 48, 27, 23]
47.276[24, 26, 34, 31, 62, 43, 24, 24]
47.298[25, 26, 33, 28, 67, 46, 22, 23]
47.313[25, 24, 35, 28, 66, 46, 27, 24]
47.336[23, 28, 28, 37, 57, 44, 27, 25]
47.358[24, 28, 27, 44, 49, 45, 28, 28]
47.373[23, 27, 26, 43, 44, 42, 29, 28]
47.396[20, 32, 29, 44, 48, 42, 28, 28]
47.419[20, 35, 27, 46, 56, 40, 24, 26]
47.434[21, 33, 26, 39, 56, 39, 24, 25]
47.464[21, 34, 25, 32, 55, 37, 24, 20]
47.479[22, 35, 26, 31, 53, 40, 21, 21]
47.493[22, 30, 21, 32, 48, 36, 20, 22]
47.516[24, 27, 22, 28, 41, 36, 22, 24]
47.547[23, 27, 23, 25, 44, 38, 20, 24]
47.554[24, 26, 23, 26, 50, 39, 21, 25]
47.576[23, 25, 23, 28, 57, 40, 23, 25]
47.599[24, 23, 24, 27, 56, 41, 24, 25]
47.614[21, 25, 23, 25, 54, 40, 24, 25]
47.636[24, 22, 21, 25, 53, 40, 27, 25]
47.659[24, 21, 21, 25, 46, 42, 29, 26]
47.675[24, 26, 21, 26, 37, 43, 26, 25]
47.696[37, 55, 23, 26, 33, 41, 27, 28]
47.719[39, 55, 25, 28, 36, 42, 25, 26]
47.741[39, 55, 24, 28, 44, 40, 23, 26]
47.756[39, 56, 26, 29, 57, 42, 22, 23]
47.779[40, 56, 27, 26, 60, 38, 23, 24]
47.794[28, 32, 26, 27, 63, 40, 22, 17]
47.816[24, 29, 28, 30, 69, 45, 22, 17]
47.838[22, 34, 27, 29, 63, 45, 24, 19]
47.854[20, 51, 30, 30, 56, 43, 22, 20]
47.876[19, 51, 29, 30, 58, 43, 22, 21]
47.899[20, 50, 30, 29, 57, 41, 24, 21]
47.913[22, 53, 27, 27, 50, 34, 23, 22]
47.936[26, 49, 26, 27, 50, 32, 19, 21]
47.958[41, 33, 21, 25, 45, 29, 19, 29]
47.981[52, 32, 19, 26, 40, 35, 22, 38]
47.996[54, 31, 19, 30, 57, 36, 21, 41]
48.019[54, 29, 21, 28, 61, 38, 22, 42]
48.041[53, 30, 22, 29, 63, 37, 24, 42]
48.056[46, 28, 24, 32, 63, 37, 26, 39]
48.079[33, 29, 24, 30, 64, 33, 24, 31]
48.101[28, 27, 24, 26, 47, 33, 25, 25]
48.116[27, 23, 23, 26, 45, 31, 24, 23]
48.139[26, 22, 24, 28, 43, 39, 26, 23]
48.161[21, 23, 24, 24, 53, 41, 23, 21]
48.176[19, 20, 23, 23, 51, 41, 25, 18]
48.199[23, 24, 23, 22, 54, 43, 23, 23]
48.221[21, 26, 24, 24, 55, 46, 25, 24]
48.236[21, 27, 22, 21, 56, 40, 21, 29]
48.259[21, 25, 19, 25, 47, 39, 22, 28]
48.281[21, 30, 25, 27, 50, 42, 23, 29]
48.297[17, 27, 25, 31, 59, 38, 24, 27]
48.319[18, 28, 24, 32, 58, 40, 24, 26]
48.341[18, 27, 29, 33, 62, 41, 24, 20]
48.356[19, 28, 30, 32, 66, 47, 24, 23]
48.387[18, 22, 27, 32, 63, 44, 23, 25]
48.402[19, 23, 27, 29, 55, 44, 27, 24]
48.417[22, 28, 28, 27, 63, 46, 27, 25]
48.439[21, 29, 23, 26, 67, 52, 28, 24]
48.462[21, 28, 23, 28, 61, 49, 27, 22]
48.476[21, 28, 21, 29, 61, 50, 26, 21]
48.499[22, 29, 23, 30, 59, 49, 21, 20]
48.522[19, 25, 22, 32, 55, 51, 20, 19]
48.536[21, 26, 22, 31, 42, 45, 23, 23]
48.559[23, 27, 24, 30, 51, 44, 24, 23]
48.582[23, 27, 26, 32, 53, 48, 24, 26]
48.596[24, 25, 22, 31, 53, 51, 26, 28]
48.618[24, 23, 27, 30, 50, 49, 27, 29]
48.642[26, 23, 28, 30, 49, 48, 23, 26]
48.656[24, 28, 26, 31, 43, 49, 23, 27]
48.679[24, 28, 25, 27, 40, 44, 25, 22]
48.702[23, 31, 29, 29, 58, 57, 27, 20]
48.716[24, 31, 25, 27, 62, 55, 25, 19]
48.747[21, 32, 27, 29, 61, 52, 27, 20]
48.762[21, 32, 27, 27, 60, 50, 26, 22]
48.784[23, 31, 28, 26, 58, 52, 29, 25]
48.798[23, 28, 26, 25, 46, 37, 27, 24]
48.822[21, 31, 27, 27, 45, 42, 30, 25]
48.836[22, 30, 27, 26, 52, 43, 32, 24]
48.859[23, 26, 27, 27, 54, 42, 33, 24]
48.882[21, 27, 26, 27, 60, 42, 30, 21]
48.904[23, 35, 27, 27, 56, 43, 29, 22]
48.919[23, 32, 25, 24, 53, 40, 26, 23]
48.942[24, 32, 25, 27, 48, 47, 23, 23]
48.964[25, 32, 23, 26, 52, 48, 29, 22]
48.979[24, 33, 25, 24, 54, 47, 29, 21]
49.002[22, 26, 26, 23, 56, 44, 28, 21]
49.024[24, 28, 27, 25, 57, 49, 28, 22]
49.047[23, 27, 24, 20, 54, 41, 26, 23]
49.062[20, 32, 25, 22, 49, 39, 20, 22]
49.084[22, 30, 24, 26, 43, 44, 20, 23]
49.098[23, 29, 23, 28, 40, 46, 21, 22]
49.122[21, 30, 23, 27, 54, 41, 22, 20]
49.144[21, 31, 24, 27, 59, 43, 22, 18]
49.158[21, 32, 23, 31, 65, 48, 24, 22]
49.182[21, 35, 24, 32, 67, 45, 30, 22]
49.204[20, 34, 23, 32, 70, 47, 28, 22]
49.22[20, 32, 26, 32, 58, 44, 29, 25]
49.242[21, 31, 25, 34, 71, 47, 29, 25]
49.264[20, 27, 26, 36, 73, 42, 27, 21]
49.279[19, 26, 25, 35, 70, 44, 23, 22]
49.302[19, 27, 28, 33, 67, 45, 24, 21]
49.324[21, 25, 24, 32, 65, 47, 24, 19]
49.339[20, 25, 23, 33, 47, 42, 27, 21]
49.362[25, 25, 21, 26, 38, 43, 27, 25]
49.384[27, 23, 23, 26, 38, 40, 26, 24]
49.407[27, 27, 19, 30, 38, 39, 28, 24]
49.422[25, 29, 22, 30, 38, 34, 27, 25]
49.444[26, 27, 23, 29, 45, 36, 27, 25]
49.459[24, 27, 24, 30, 51, 40, 27, 22]
49.482[21, 27, 24, 27, 57, 40, 26, 22]
49.505[24, 25, 24, 24, 62, 36, 24, 22]
49.518[24, 26, 23, 25, 80, 38, 24, 21]
49.542[24, 29, 24, 27, 82, 41, 23, 18]
49.564[24, 31, 22, 26, 77, 37, 23, 20]
49.579[23, 30, 25, 27, 74, 37, 22, 23]
49.602[22, 29, 25, 30, 70, 41, 24, 22]
49.624[23, 26, 25, 29, 51, 44, 25, 22]
49.638[22, 24, 22, 27, 39, 40, 23, 24]
49.662[22, 22, 22, 26, 38, 41, 22, 27]
49.684[23, 24, 20, 26, 36, 42, 25, 24]
49.699[22, 22, 19, 27, 42, 41, 24, 27]
49.722[23, 25, 20, 27, 43, 41, 25, 28]
49.744[22, 25, 22, 28, 42, 42, 25, 26]
49.759[21, 27, 23, 28, 43, 41, 25, 22]
49.782[19, 28, 21, 29, 54, 39, 22, 23]
49.804[22, 29, 24, 26, 52, 40, 21, 19]
49.827[19, 28, 23, 26, 52, 39, 22, 18]
49.842[20, 28, 22, 27, 56, 38, 23, 21]
49.864[20, 28, 23, 26, 55, 39, 23, 21]
49.887[22, 26, 25, 24, 44, 42, 24, 21]
49.902[20, 25, 22, 26, 41, 37, 25, 20]
49.924[21, 26, 22, 27, 35, 35, 26, 23]
49.947[22, 25, 23, 28, 31, 36, 37, 23]
49.962[23, 24, 22, 30, 32, 33, 39, 22]
49.984[21, 25, 23, 30, 37, 35, 39, 22]
50.007[22, 25, 23, 26, 47, 35, 39, 24]
50.022[25, 24, 24, 25, 53, 38, 37, 22]
50.044[23, 25, 23, 21, 60, 46, 26, 20]
50.067[23, 24, 23, 22, 60, 49, 25, 23]
50.082[24, 25, 22, 22, 58, 46, 24, 23]
50.104[23, 24, 21, 24, 49, 48, 24, 21]
50.127[19, 22, 22, 24, 45, 45, 25, 23]
50.141[19, 21, 22, 24, 34, 35, 25, 25]
50.164[18, 24, 21, 23, 31, 40, 25, 23]
50.187[22, 72, 25, 23, 49, 49, 30, 23]
50.202[24, 74, 25, 22, 52, 48, 29, 25]
50.224[24, 76, 26, 23, 52, 47, 28, 22]
50.247[25, 77, 25, 25, 52, 49, 30, 19]
50.262[25, 76, 28, 25, 57, 51, 30, 21]
50.284[21, 36, 23, 24, 46, 43, 28, 21]
50.307[20, 32, 24, 27, 45, 44, 27, 19]
50.321[18, 29, 25, 24, 57, 47, 27, 39]
50.344[18, 26, 25, 24, 63, 45, 29, 49]
50.367[18, 25, 22, 22, 61, 36, 28, 48]
50.389[18, 22, 23, 24, 61, 38, 25, 49]
50.412[21, 23, 24, 22, 59, 35, 26, 50]
50.427[21, 26, 21, 22, 55, 34, 27, 37]
50.441[22, 50, 24, 23, 49, 35, 24, 23]
50.464[25, 58, 28, 23, 45, 38, 24, 26]
50.487[24, 61, 27, 22, 43, 33, 25, 26]
50.501[22, 67, 31, 25, 43, 38, 24, 22]
50.524[22, 67, 34, 24, 27, 37, 24, 22]
50.547[23, 53, 33, 23, 25, 36, 22, 25]
50.561[21, 45, 30, 25, 30, 35, 21, 21]
50.584[22, 41, 30, 23, 30, 37, 21, 23]
50.607[21, 31, 26, 23, 30, 33, 21, 23]
50.621[21, 27, 24, 24, 35, 32, 25, 22]
50.644[20, 26, 23, 24, 51, 33, 24, 22]
50.667[19, 24, 22, 23, 55, 32, 25, 24]
50.681[18, 24, 23, 26, 58, 42, 27, 21]
50.705[19, 24, 20, 24, 57, 43, 27, 21]
50.727[19, 23, 20, 25, 58, 44, 23, 23]
50.741[19, 21, 20, 25, 47, 45, 24, 21]
50.764[19, 24, 22, 24, 41, 44, 26, 23]
50.794[21, 25, 21, 24, 38, 32, 24, 23]
50.808[22, 25, 23, 24, 45, 35, 23, 25]
50.825[22, 25, 23, 23, 50, 32, 23, 26]
50.846[23, 26, 22, 25, 49, 35, 26, 27]
50.868[24, 25, 24, 26, 50, 37, 25, 25]
50.885[24, 52, 31, 24, 50, 39, 24, 25]
50.906[23, 72, 31, 23, 45, 38, 26, 22]
50.928[24, 75, 31, 25, 38, 39, 26, 21]
50.945[24, 76, 32, 23, 36, 36, 24, 18]
50.966[23, 77, 29, 26, 50, 42, 24, 19]
50.988[21, 62, 26, 25, 56, 44, 24, 19]
51.005[21, 38, 25, 26, 55, 41, 24, 21]
51.026[22, 33, 27, 26, 59, 46, 26, 20]
51.048[21, 30, 25, 26, 60, 51, 25, 22]
51.065[22, 26, 26, 24, 49, 47, 25, 25]
51.086[24, 59, 25, 26, 41, 44, 24, 24]
51.109[24, 59, 27, 28, 45, 44, 25, 24]
51.125[22, 60, 25, 26, 47, 42, 23, 25]
51.146[23, 62, 27, 29, 57, 39, 23, 25]
51.176[22, 63, 26, 27, 57, 40, 20, 22]
51.185[22, 35, 25, 26, 58, 43, 21, 21]
51.206[20, 34, 23, 23, 55, 46, 20, 23]
51.228[21, 35, 23, 25, 49, 42, 20, 20]
51.245[21, 33, 22, 21, 37, 44, 20, 22]
51.266[21, 30, 22, 22, 33, 42, 22, 21]
51.289[18, 35, 20, 21, 33, 41, 22, 20]
51.305[22, 60, 23, 22, 33, 37, 21, 21]
51.326[21, 60, 22, 21, 32, 37, 25, 21]
51.348[20, 61, 22, 24, 33, 42, 27, 18]
51.365[21, 61, 24, 25, 49, 54, 27, 19]
51.386[22, 78, 26, 25, 57, 58, 29, 22]
51.408[18, 63, 23, 25, 56, 57, 30, 23]
51.425[17, 62, 24, 25, 56, 57, 27, 25]
51.454[18, 61, 25, 21, 53, 53, 25, 27]
51.468[16, 60, 25, 21, 40, 37, 23, 28]
51.485[18, 30, 23, 20, 30, 31, 22, 28]
51.507[19, 27, 23, 21, 33, 32, 23, 32]
51.528[20, 26, 24, 19, 35, 33, 22, 39]
51.545[19, 55, 25, 22, 37, 29, 21, 37]
51.566[22, 58, 23, 21, 35, 32, 26, 35]
51.588[21, 57, 25, 22, 57, 35, 27, 35]
51.605[23, 59, 27, 22, 60, 41, 26, 29]
51.626[22, 60, 27, 21, 62, 41, 26, 18]
51.648[22, 36, 25, 19, 60, 42, 28, 17]
51.665[22, 30, 25, 20, 63, 41, 28, 18]
51.686[20, 30, 25, 20, 45, 43, 26, 19]
51.708[18, 25, 23, 21, 38, 41, 26, 18]
51.731[19, 28, 22, 22, 36, 41, 26, 17]
51.746[19, 48, 23, 22, 39, 44, 25, 17]
51.768[17, 52, 25, 22, 36, 42, 22, 17]
51.791[17, 53, 24, 21, 45, 39, 22, 18]
51.806