[13, 17, 19, 20, 20, 16, 22, 19]
1.673[14, 17, 18, 20, 18, 16, 22, 19]
1.696[16, 19, 23, 21, 25, 23, 26, 23]
1.717[20, 22, 27, 21, 29, 24, 24, 22]
1.739[23, 23, 27, 19, 30, 25, 25, 24]
1.755[25, 25, 29, 18, 30, 26, 24, 26]
1.777[26, 25, 31, 19, 30, 26, 25, 26]
1.797[25, 24, 29, 17, 26, 24, 19, 21]
1.816[23, 22, 26, 18, 23, 23, 21, 21]
1.836[22, 21, 25, 19, 22, 23, 21, 22]
1.853[21, 19, 22, 18, 22, 22, 23, 21]
1.875[20, 22, 22, 20, 22, 23, 23, 20]
1.897[20, 21, 20, 21, 22, 19, 24, 21]
1.92[20, 19, 17, 21, 21, 19, 23, 21]
1.935[19, 20, 19, 21, 21, 18, 24, 20]
1.956[19, 21, 19, 20, 20, 19, 20, 20]
1.973[19, 19, 20, 17, 20, 18, 20, 21]
1.995[19, 20, 20, 16, 18, 20, 20, 21]
2.017[19, 21, 21, 15, 17, 20, 20, 20]
2.033[19, 21, 19, 17, 18, 22, 21, 18]
2.055[18, 19, 20, 18, 19, 21, 23, 19]
2.077[18, 20, 18, 20, 21, 21, 21, 18]
2.093[17, 19, 19, 20, 23, 20, 23, 18]
2.122[16, 18, 18, 20, 21, 23, 23, 19]
2.137[16, 20, 19, 19, 20, 22, 22, 20]
2.159[16, 19, 20, 17, 20, 22, 22, 20]
2.176[22, 18, 21, 17, 19, 23, 22, 21]
2.197[21, 18, 21, 18, 18, 23, 20, 21]
2.219[21, 18, 22, 18, 21, 23, 20, 21]
2.236[21, 18, 22, 18, 20, 22, 21, 21]
2.257[23, 18, 21, 19, 19, 22, 20, 22]
2.279[18, 19, 20, 17, 19, 20, 20, 22]
2.295[19, 20, 18, 18, 19, 19, 20, 21]
2.316[19, 20, 19, 18, 16, 17, 20, 21]
2.339[18, 20, 18, 19, 18, 15, 19, 22]
2.356[17, 19, 22, 19, 18, 20, 19, 22]
2.384[16, 19, 22, 20, 18, 21, 19, 21]
2.399[17, 17, 22, 21, 20, 21, 21, 21]
2.415[17, 18, 21, 21, 19, 21, 21, 23]
2.438[17, 19, 20, 21, 19, 24, 20, 20]
2.459[18, 20, 18, 23, 20, 22, 20, 19]
2.476[19, 21, 19, 22, 20, 22, 21, 20]
2.497[17, 21, 20, 20, 20, 22, 19, 20]
2.519[18, 20, 20, 19, 21, 22, 19, 18]
2.536[19, 19, 20, 17, 23, 21, 20, 22]
2.557[19, 19, 19, 15, 22, 20, 19, 22]
2.579[18, 21, 20, 17, 23, 19, 19, 21]
2.602[20, 20, 21, 17, 22, 19, 18, 22]
2.616[20, 20, 20, 19, 21, 18, 19, 23]
2.639[19, 22, 21, 20, 20, 18, 18, 21]
2.662[19, 22, 20, 21, 21, 17, 18, 23]
2.685[22, 21, 18, 22, 20, 18, 17, 22]
2.699[20, 22, 17, 23, 20, 18, 16, 21]
2.722[20, 22, 18, 22, 22, 19, 17, 20]
2.744[19, 20, 19, 22, 22, 18, 16, 19]
2.759[19, 19, 20, 22, 20, 18, 17, 17]
2.782[15, 17, 22, 21, 23, 16, 18, 17]
2.804[17, 19, 24, 21, 23, 18, 19, 19]
2.819[15, 18, 23, 20, 22, 20, 18, 20]
2.843[18, 21, 23, 20, 23, 20, 19, 19]
2.864[18, 22, 25, 21, 24, 20, 18, 19]
2.879[21, 23, 24, 22, 22, 21, 18, 19]
2.902[20, 23, 23, 21, 22, 20, 19, 19]
2.924[21, 23, 24, 22, 21, 18, 19, 20]
2.939[20, 22, 24, 22, 20, 19, 17, 20]
2.962[20, 22, 23, 21, 20, 18, 16, 21]
2.984[18, 20, 22, 21, 19, 19, 17, 21]
2.999[19, 19, 22, 23, 18, 19, 16, 19]
3.022[18, 20, 22, 22, 18, 20, 17, 20]
3.044[19, 19, 21, 23, 18, 19, 19, 21]
3.059[20, 20, 19, 23, 16, 18, 19, 19]
3.082[19, 22, 20, 24, 16, 17, 20, 19]
3.104[18, 21, 19, 22, 17, 17, 20, 21]
3.127[18, 21, 19, 22, 18, 16, 20, 19]
3.142[18, 22, 20, 19, 18, 16, 19, 18]
3.164[18, 19, 21, 19, 17, 17, 21, 19]
3.179[18, 19, 21, 17, 17, 18, 21, 20]
3.202[20, 19, 22, 17, 18, 19, 21, 18]
3.224[20, 18, 23, 17, 18, 21, 21, 17]
3.239[19, 18, 22, 17, 20, 20, 22, 17]
3.262[19, 19, 21, 20, 21, 21, 19, 15]
3.284[21, 18, 19, 21, 22, 23, 18, 15]
3.299[18, 18, 18, 21, 22, 22, 16, 15]
3.322[19, 20, 17, 21, 21, 19, 16, 16]
3.344[18, 20, 16, 21, 20, 21, 17, 15]
3.359[19, 21, 19, 20, 20, 21, 18, 15]
3.382[19, 21, 19, 17, 18, 19, 19, 17]
3.404[21, 22, 19, 17, 17, 19, 19, 16]
3.419[21, 21, 21, 18, 18, 20, 19, 18]
3.442[20, 21, 23, 16, 17, 18, 17, 20]
3.464[19, 20, 20, 17, 19, 18, 17, 20]
3.479[20, 20, 22, 19, 19, 18, 16, 19]
3.502[19, 19, 23, 21, 20, 18, 16, 19]
3.525[18, 18, 22, 21, 20, 22, 17, 19]
3.54[19, 18, 22, 20, 20, 22, 16, 19]
3.562[20, 15, 22, 20, 19, 22, 16, 18]
3.584[18, 16, 21, 20, 20, 21, 16, 18]
3.607[19, 17, 22, 18, 21, 22, 18, 18]
3.622[20, 18, 22, 18, 21, 19, 17, 20]
3.644[19, 19, 20, 20, 21, 17, 19, 19]
3.667[19, 19, 20, 20, 21, 17, 19, 20]
3.682[18, 21, 20, 21, 21, 19, 19, 20]
3.704[17, 21, 17, 22, 22, 18, 19, 20]
3.727[17, 20, 17, 22, 21, 18, 19, 17]
3.742[18, 19, 20, 20, 21, 18, 18, 19]
3.772[18, 21, 20, 21, 22, 19, 20, 19]
3.788[19, 21, 22, 20, 20, 18, 19, 20]
3.803[20, 20, 22, 19, 19, 18, 20, 20]
3.825[20, 23, 23, 19, 19, 17, 20, 19]
3.847[18, 22, 21, 19, 19, 20, 19, 18]
3.862[20, 22, 24, 18, 18, 19, 18, 17]
3.884[19, 19, 22, 17, 20, 19, 18, 17]
3.908[19, 23, 22, 16, 18, 21, 16, 17]
3.922[18, 21, 22, 20, 20, 22, 15, 18]
3.944[20, 22, 23, 20, 22, 22, 17, 18]
3.968[20, 23, 21, 20, 22, 23, 15, 18]
3.982[21, 25, 22, 21, 21, 24, 15, 17]
4.004[22, 23, 24, 21, 22, 22, 16, 18]
4.028[24, 23, 22, 17, 21, 22, 17, 19]
4.05[24, 23, 20, 19, 20, 21, 16, 19]
4.073[23, 23, 20, 21, 21, 20, 17, 19]
4.088[23, 21, 21, 20, 21, 18, 19, 19]
4.102[23, 22, 19, 21, 18, 19, 19, 19]
4.124[21, 20, 21, 21, 20, 21, 18, 18]
4.148[18, 19, 21, 20, 19, 20, 18, 19]
4.17[18, 19, 21, 18, 20, 20, 18, 18]
4.185[18, 21, 22, 19, 21, 19, 17, 18]
4.208[16, 19, 21, 20, 21, 20, 18, 18]
4.222[19, 21, 20, 20, 21, 17, 20, 19]
4.244[20, 21, 23, 20, 21, 18, 19, 18]
4.268[21, 22, 23, 20, 20, 18, 19, 19]
4.282[21, 22, 23, 22, 19, 18, 20, 18]
4.305[21, 23, 24, 20, 19, 19, 20, 19]
4.328[20, 23, 25, 19, 19, 20, 20, 18]
4.342[19, 23, 22, 18, 19, 19, 21, 18]
4.364[19, 23, 23, 19, 18, 21, 21, 18]
4.395[20, 22, 22, 18, 18, 22, 20, 18]
4.402[20, 22, 20, 20, 19, 21, 20, 17]
4.425[21, 23, 21, 20, 20, 21, 19, 17]
4.448[20, 23, 22, 20, 20, 22, 18, 17]
4.463[20, 22, 21, 21, 22, 19, 19, 17]
4.485[18, 21, 21, 21, 22, 18, 20, 19]
4.508[19, 20, 23, 20, 21, 18, 19, 17]
4.53[19, 21, 21, 21, 19, 18, 18, 18]
4.544[20, 22, 22, 22, 19, 17, 19, 19]
4.568[19, 22, 22, 21, 18, 17, 18, 18]
4.59[20, 24, 21, 21, 18, 18, 17, 17]
4.605[20, 24, 22, 20, 20, 18, 18, 19]
4.628[19, 22, 20, 17, 21, 17, 17, 19]
4.65[18, 19, 19, 20, 21, 18, 18, 19]
4.665[19, 21, 20, 19, 20, 20, 20, 19]
4.688[17, 20, 21, 18, 19, 20, 20, 20]
4.711[18, 21, 19, 17, 18, 19, 20, 20]
4.725[20, 20, 21, 19, 18, 19, 20, 20]
4.748[20, 22, 23, 17, 18, 19, 19, 20]
4.771[20, 21, 21, 17, 20, 17, 18, 19]
4.784[21, 22, 23, 18, 21, 17, 18, 19]
4.808[21, 22, 22, 19, 22, 18, 17, 16]
4.831[20, 22, 21, 17, 21, 18, 17, 18]
4.845[20, 22, 21, 17, 23, 19, 18, 17]
4.868[19, 21, 22, 17, 21, 21, 18, 20]
4.891[19, 19, 21, 19, 22, 20, 19, 20]
4.905[18, 20, 20, 19, 21, 20, 19, 20]
4.928[19, 21, 21, 20, 21, 20, 21, 22]
4.951[20, 20, 20, 22, 19, 20, 20, 22]
4.973[20, 20, 20, 22, 21, 19, 19, 20]
4.988[20, 21, 21, 20, 21, 18, 20, 20]
5.011[19, 19, 22, 21, 22, 20, 20, 20]
5.025[19, 19, 21, 19, 22, 23, 19, 17]
5.048[19, 22, 21, 19, 21, 22, 21, 17]
5.07[18, 21, 22, 19, 21, 23, 21, 16]
5.085[20, 21, 22, 19, 20, 23, 21, 17]
5.108[20, 23, 21, 19, 19, 22, 22, 16]
5.13[20, 23, 22, 20, 20, 19, 22, 16]
5.145[20, 19, 23, 19, 20, 21, 22, 17]
5.168[21, 22, 22, 19, 20, 20, 22, 17]
5.198[20, 21, 22, 19, 20, 21, 21, 16]
5.205[21, 18, 21, 20, 22, 21, 21, 18]
5.228[21, 18, 21, 20, 20, 21, 21, 19]
5.251[21, 19, 21, 20, 20, 19, 18, 18]
5.265[19, 17, 22, 19, 19, 21, 17, 19]
5.288[21, 19, 21, 20, 20, 20, 16, 19]
5.311[18, 20, 21, 18, 19, 19, 15, 17]
5.325[18, 19, 20, 17, 21, 19, 15, 16]
5.348[18, 20, 19, 17, 20, 19, 16, 18]
5.371[18, 20, 18, 17, 20, 16, 19, 17]
5.385[16, 20, 16, 18, 18, 16, 20, 17]
5.408[17, 23, 16, 18, 17, 17, 21, 20]
5.43[17, 23, 16, 21, 16, 19, 22, 20]
5.445[17, 21, 17, 21, 18, 20, 22, 18]
5.468[17, 22, 19, 21, 20, 20, 20, 19]
5.491[19, 21, 19, 19, 21, 20, 19, 19]
5.513[18, 18, 20, 22, 22, 19, 18, 17]
5.528[16, 19, 21, 19, 22, 20, 16, 17]
5.551[16, 20, 21, 21, 21, 19, 16, 18]
5.574[16, 19, 19, 22, 19, 20, 18, 17]
5.588[17, 20, 20, 23, 18, 19, 17, 18]
5.611[18, 20, 22, 20, 17, 19, 16, 17]
5.633[20, 19, 21, 21, 17, 20, 18, 19]
5.648[19, 19, 22, 20, 16, 20, 17, 19]
5.67[19, 20, 23, 19, 16, 20, 15, 18]
5.693[19, 19, 23, 20, 17, 20, 16, 18]
5.708[20, 19, 21, 19, 17, 21, 16, 20]
5.731[20, 19, 22, 20, 16, 18, 15, 18]
5.753[20, 19, 23, 17, 19, 17, 18, 17]
5.768[20, 21, 23, 18, 18, 18, 21, 19]
5.791[19, 21, 22, 20, 18, 19, 22, 20]
5.813[17, 20, 24, 20, 20, 20, 24, 19]
5.828[15, 20, 22, 19, 20, 21, 25, 19]
5.851[19, 20, 21, 19, 19, 22, 22, 19]
5.873[20, 17, 20, 19, 18, 21, 22, 17]
5.888[20, 19, 21, 17, 19, 21, 22, 16]
5.911[23, 19, 19, 19, 19, 19, 20, 18]
5.933[22, 19, 22, 19, 20, 20, 20, 19]
5.948[20, 19, 21, 21, 20, 19, 19, 18]
5.971[18, 21, 21, 21, 22, 19, 18, 18]
5.994[19, 19, 20, 20, 23, 20, 18, 17]
6.007[17, 18, 20, 19, 21, 20, 16, 17]
6.031[18, 17, 21, 20, 20, 20, 16, 16]
6.053[19, 18, 23, 18, 21, 21, 19, 18]
6.067[20, 18, 24, 18, 19, 21, 19, 19]
6.091[20, 18, 23, 19, 18, 22, 21, 20]
6.113[20, 20, 23, 19, 18, 22, 21, 19]
6.127[20, 22, 22, 19, 17, 20, 22, 19]
6.151[18, 22, 22, 19, 16, 20, 19, 19]
6.172[19, 22, 20, 18, 17, 19, 20, 18]
6.195[19, 21, 20, 19, 18, 19, 18, 19]
6.211[21, 20, 21, 19, 19, 19, 18, 19]
6.233[21, 17, 21, 22, 21, 18, 18, 19]
6.255[23, 16, 20, 22, 22, 19, 19, 20]
6.272[22, 18, 21, 23, 21, 19, 18, 21]
6.293[20, 20, 22, 22, 21, 18, 18, 21]
6.323[19, 20, 22, 23, 20, 17, 19, 21]
6.331[19, 22, 21, 21, 19, 18, 18, 21]
6.352[17, 22, 22, 20, 18, 20, 19, 20]
6.375[18, 20, 22, 19, 19, 19, 19, 20]
6.391[19, 20, 23, 20, 19, 19, 18, 18]
6.413[22, 21, 23, 21, 20, 20, 18, 19]
6.443[22, 19, 23, 19, 20, 20, 18, 19]
6.451[21, 21, 23, 20, 19, 19, 20, 19]
6.472[21, 21, 22, 21, 19, 21, 19, 21]
6.495[21, 19, 22, 20, 20, 21, 18, 23]
6.511[19, 18, 21, 20, 18, 20, 19, 23]
6.532[20, 27, 22, 19, 19, 22, 20, 23]
6.555[26, 36, 29, 24, 22, 22, 19, 24]
6.577[27, 37, 29, 26, 23, 19, 19, 23]
6.592[28, 41, 29, 25, 22, 18, 23, 22]
6.615[27, 42, 30, 26, 24, 17, 22, 20]
6.631[25, 37, 29, 28, 23, 16, 22, 20]
6.654[20, 27, 21, 24, 22, 16, 20, 20]
6.675[19, 26, 21, 21, 21, 18, 21, 20]
6.692[19, 18, 19, 21, 23, 19, 19, 19]
6.713[19, 20, 17, 20, 20, 21, 21, 21]
6.735[20, 22, 18, 18, 22, 20, 20, 21]
6.753[20, 21, 19, 17, 20, 21, 20, 19]
6.773[20, 22, 21, 19, 20, 22, 21, 18]
6.795[20, 23, 21, 19, 20, 22, 20, 19]
6.812[20, 21, 23, 20, 21, 21, 17, 16]
6.832[18, 19, 22, 21, 20, 21, 18, 17]
6.855[19, 19, 21, 22, 19, 19, 19, 19]
6.871[20, 20, 20, 21, 19, 17, 19, 20]
6.892[20, 20, 19, 21, 19, 20, 18, 18]
6.915[20, 19, 19, 20, 19, 21, 20, 19]
6.93[21, 20, 21, 19, 19, 22, 19, 19]
6.952[20, 20, 21, 17, 21, 22, 19, 17]
6.975[19, 20, 22, 17, 22, 21, 21, 16]
6.99[17, 20, 21, 18, 22, 19, 22, 17]
7.013[20, 22, 20, 20, 23, 19, 20, 17]
7.035[20, 20, 18, 19, 22, 18, 20, 16]
7.05[18, 22, 19, 19, 23, 19, 22, 15]
7.073[18, 20, 17, 19, 24, 19, 20, 16]
7.103[18, 21, 18, 18, 22, 19, 20, 17]
7.11[16, 19, 18, 17, 20, 18, 21, 15]
7.14[18, 19, 18, 18, 21, 18, 21, 16]
7.155[18, 20, 17, 19, 21, 17, 20, 16]
7.17[19, 19, 19, 18, 22, 17, 22, 16]
7.193[20, 19, 19, 18, 23, 17, 22, 16]
7.215[22, 21, 21, 18, 25, 17, 22, 18]
7.23[21, 20, 22, 18, 24, 17, 23, 19]
7.253[23, 20, 23, 19, 24, 17, 21, 19]
7.276[23, 21, 22, 19, 21, 17, 19, 18]
7.29[22, 21, 22, 18, 20, 16, 20, 18]
7.313[20, 21, 21, 20, 20, 16, 19, 18]
7.335[20, 22, 21, 20, 22, 18, 19, 16]
7.35[18, 21, 23, 20, 20, 18, 17, 18]
7.38[19, 20, 24, 20, 21, 19, 17, 18]
7.395[20, 20, 24, 20, 22, 19, 17, 19]
7.418[21, 20, 23, 19, 23, 20, 19, 17]
7.433[21, 18, 22, 18, 22, 19, 17, 17]
7.455[22, 18, 21, 16, 23, 20, 20, 17]
7.478[22, 21, 20, 17, 23, 20, 19, 17]
7.492[21, 21, 20, 21, 22, 20, 19, 17]
7.515[22, 21, 20, 21, 20, 20, 18, 18]
7.538[20, 21, 20, 22, 19, 20, 19, 20]
7.554[21, 21, 18, 23, 18, 20, 17, 18]
7.575[21, 20, 19, 24, 17, 18, 18, 17]
7.598[22, 18, 19, 21, 19, 20, 18, 16]
7.613[20, 20, 20, 21, 19, 20, 18, 16]
7.635[19, 22, 21, 20, 19, 20, 19, 15]
7.658[17, 23, 21, 19, 19, 19, 18, 16]
7.673[18, 23, 21, 19, 20, 20, 18, 18]
7.695[18, 25, 21, 18, 19, 19, 19, 17]
7.718[18, 24, 22, 18, 20, 18, 21, 19]
7.733[18, 23, 22, 18, 19, 19, 21, 19]
7.755[19, 22, 21, 18, 20, 21, 22, 20]
7.778[18, 23, 22, 17, 20, 19, 22, 19]
7.793[19, 20, 22, 19, 21, 20, 20, 21]
7.815[18, 20, 20, 18, 21, 21, 20, 20]
7.838[19, 19, 19, 17, 23, 19, 19, 20]
7.853[17, 19, 19, 18, 24, 20, 18, 19]
7.875[18, 18, 19, 19, 23, 19, 18, 19]
7.898[16, 21, 17, 19, 21, 17, 18, 19]
7.913[19, 21, 19, 19, 21, 17, 17, 18]
7.935[18, 22, 20, 21, 20, 20, 17, 19]
7.958[19, 22, 21, 19, 20, 18, 18, 21]
7.973[19, 21, 19, 19, 20, 21, 18, 22]
7.995[19, 21, 20, 19, 20, 21, 19, 21]
8.018[18, 19, 18, 20, 20, 21, 18, 23]
8.033[19, 19, 18, 19, 19, 19, 17, 22]
8.055[18, 19, 17, 20, 20, 20, 17, 20]
8.078[19, 22, 18, 22, 20, 19, 17, 19]
8.093[19, 20, 19, 20, 21, 18, 18, 20]
8.115[21, 22, 19, 19, 22, 18, 18, 18]
8.138[21, 22, 19, 19, 22, 20, 20, 18]
8.153[21, 22, 18, 19, 21, 20, 21, 19]
8.175[20, 19, 19, 17, 22, 19, 22, 19]
8.198[22, 23, 18, 17, 22, 19, 21, 17]
8.213[19, 22, 19, 19, 22, 20, 21, 17]
8.235[19, 23, 20, 17, 21, 18, 21, 17]
8.258[19, 24, 19, 17, 21, 18, 19, 17]
8.273[18, 25, 19, 18, 21, 19, 19, 17]
8.295[16, 22, 19, 18, 19, 18, 18, 17]
8.318[18, 22, 19, 19, 19, 17, 18, 17]
8.34[18, 22, 19, 19, 19, 16, 19, 18]
8.355[18, 21, 20, 20, 19, 16, 18, 19]
8.378[17, 22, 20, 19, 18, 15, 19, 18]
8.4[18, 21, 21, 20, 19, 15, 21, 17]
8.416[19, 20, 21, 17, 20, 16, 21, 17]
8.438[18, 21, 21, 16, 20, 16, 20, 18]
8.46[18, 20, 22, 17, 22, 16, 20, 18]
8.475[20, 21, 21, 18, 23, 19, 21, 18]
8.498[19, 21, 20, 16, 23, 20, 17, 19]
8.52[19, 23, 19, 17, 20, 18, 18, 19]
8.535[19, 23, 20, 19, 20, 18, 20, 21]
8.558[20, 23, 20, 18, 19, 20, 19, 22]
8.589[19, 22, 20, 18, 18, 21, 16, 22]
8.595[18, 24, 20, 19, 18, 21, 20, 22]
8.618[19, 22, 19, 20, 18, 22, 20, 23]
8.64[19, 20, 19, 19, 18, 23, 18, 19]
8.655[19, 22, 18, 21, 19, 22, 19, 18]
8.678[20, 22, 19, 22, 20, 18, 19, 20]
8.7[20, 22, 20, 21, 20, 18, 17, 19]
8.715[20, 23, 20, 21, 22, 19, 17, 18]
8.738[19, 24, 23, 20, 22, 19, 17, 19]
8.769[19, 23, 23, 17, 22, 17, 18, 20]
8.776[18, 22, 23, 16, 21, 21, 19, 18]
8.799[18, 20, 22, 18, 22, 21, 19, 19]
8.821[18, 19, 22, 18, 20, 19, 18, 19]
8.835[18, 18, 19, 18, 19, 20, 19, 19]
8.858[18, 18, 20, 19, 19, 20, 18, 18]
8.881[18, 18, 19, 20, 21, 18, 16, 17]
8.895[20, 18, 21, 18, 20, 21, 17, 17]
8.918[19, 16, 21, 20, 21, 22, 17, 17]
8.942[19, 16, 21, 22, 23, 22, 17, 18]
8.955[18, 16, 21, 21, 24, 22, 18, 17]
8.978[19, 18, 22, 21, 23, 23, 20, 18]
9.001[20, 19, 20, 20, 23, 20, 19, 19]
9.015[19, 20, 21, 19, 23, 20, 20, 19]
9.038[20, 22, 20, 19, 22, 19, 20, 19]
9.061[21, 23, 20, 18, 19, 19, 20, 19]
9.084[21, 22, 19, 19, 19, 16, 17, 19]
9.098[20, 22, 20, 20, 19, 18, 21, 21]
9.121[21, 22, 19, 21, 19, 17, 22, 21]
9.135[23, 21, 19, 21, 21, 16, 22, 21]
9.158[20, 20, 18, 22, 20, 18, 21, 22]
9.181[20, 21, 22, 21, 21, 18, 22, 22]
9.195[20, 21, 21, 21, 22, 18, 21, 20]
9.218[20, 23, 20, 19, 23, 19, 20, 20]
9.241[18, 21, 21, 18, 23, 20, 20, 20]
9.256[20, 22, 22, 18, 25, 19, 21, 19]
9.278[21, 22, 19, 18, 26, 20, 20, 17]
9.301[21, 21, 19, 17, 25, 19, 18, 16]
9.324[21, 21, 20, 17, 22, 18, 18, 17]
9.338[21, 22, 20, 17, 23, 19, 19, 17]
9.362[20, 22, 20, 19, 22, 19, 20, 19]
9.391[21, 22, 21, 19, 20, 18, 20, 19]
9.398[19, 22, 21, 18, 20, 20, 20, 20]
9.421[20, 22, 20, 19, 20, 20, 21, 20]
9.444[19, 20, 20, 20, 20, 21, 21, 19]
9.458[19, 20, 19, 17, 20, 21, 20, 21]
9.481[18, 21, 20, 19, 20, 22, 21, 21]
9.511[18, 20, 19, 19, 20, 21, 21, 20]
9.518[18, 20, 21, 18, 19, 21, 21, 20]
9.541[20, 21, 20, 19, 19, 19, 19, 20]
9.564[20, 22, 21, 21, 19, 19, 19, 18]
9.578[21, 22, 26, 20, 19, 17, 18, 19]
9.602[20, 25, 29, 22, 19, 18, 18, 19]
9.624[20, 24, 40, 22, 21, 19, 18, 19]
9.638[19, 25, 81, 29, 20, 21, 21, 20]
9.661[23, 27, 134, 38, 21, 23, 20, 19]
9.685[22, 28, 135, 39, 19, 24, 23, 19]
9.698[23, 26, 139, 39, 21, 23, 22, 19]
9.721[22, 27, 137, 39, 21, 22, 22, 19]
9.744[23, 25, 119, 35, 22, 22, 19, 20]
9.758[19, 21, 65, 25, 21, 21, 19, 21]
9.781[18, 21, 63, 23, 21, 21, 16, 20]
9.804[19, 21, 56, 22, 22, 21, 17, 19]
9.826[18, 21, 57, 23, 19, 21, 18, 21]
9.841[19, 22, 60, 24, 19, 20, 21, 20]
9.864[19, 24, 88, 37, 20, 19, 21, 20]
9.878[61, 131, 241, 53, 26, 22, 23, 24]
9.902[102, 233, 311, 74, 41, 31, 35, 54]
9.924[134, 309, 320, 78, 42, 37, 91, 61]
9.938[211, 351, 325, 87, 46, 60, 173, 75]
9.962[399, 428, 333, 102, 60, 93, 251, 137]
9.984[549, 485, 277, 135, 94, 169, 579, 526]
9.998[672, 523, 224, 173, 126, 178, 737, 632]
10.022[706, 570, 232, 181, 150, 241, 783, 674]
10.044[752, 570, 238, 183, 159, 247, 786, 695]
10.058[728, 651, 228, 183, 161, 251, 795, 704]
10.082[658, 668, 201, 166, 148, 297, 669, 643]
10.104[632, 632, 178, 125, 158, 514, 783, 679]
10.118[652, 582, 157, 114, 143, 565, 858, 735]
10.142[631, 585, 143, 107, 137, 594, 959, 800]
10.164[581, 504, 146, 93, 130, 593, 996, 819]
10.178[561, 414, 136, 82, 128, 557, 969, 731]
10.201[516, 426, 136, 70, 80, 366, 764, 660]
10.224[479, 404, 134, 74, 84, 276, 665, 620]
10.246[441, 382, 128, 74, 83, 214, 580, 576]
10.262[444, 316, 111, 70, 83, 201, 476, 542]
10.284[445, 331, 109, 64, 79, 194, 471, 531]
10.307[376, 327, 104, 64, 73, 190, 483, 479]
10.322[371, 362, 113, 56, 54, 132, 435, 435]
10.344[330, 371, 107, 51, 46, 106, 313, 387]
10.367[337, 355, 100, 49, 45, 106, 355, 398]
10.381[300, 344, 94, 48, 46, 101, 342, 365]
10.404[290, 311, 99, 45, 45, 101, 349, 363]
10.427[264, 270, 95, 51, 42, 69, 349, 334]
10.442[278, 235, 98, 51, 40, 68, 366, 309]
10.464[249, 227, 99, 48, 39, 64, 319, 284]
10.486[262, 222, 107, 52, 39, 64, 304, 320]
10.502[264, 199, 97, 52, 38, 55, 249, 325]
10.524[233, 181, 85, 43, 33, 53, 242, 340]
10.547[248, 190, 83, 42, 35, 76, 261, 363]
10.562[245, 206, 81, 43, 39, 84, 266, 389]
10.584[252, 230, 69, 37, 40, 89, 273, 371]
10.607[237, 233, 78, 35, 41, 88, 273, 350]
10.622[259, 285, 85, 37, 42, 89, 293, 346]
10.644[230, 287, 84, 35, 39, 70, 263, 302]
10.667[245, 282, 81, 37, 35, 61, 258, 272]
10.682[229, 272, 78, 37, 34, 56, 258, 288]
10.704[240, 275, 76, 38, 37, 57, 259, 292]
10.726[222, 222, 65, 39, 37, 57, 216, 259]
10.741[249, 221, 65, 39, 42, 56, 189, 252]
10.764[231, 256, 77, 40, 47, 64, 187, 233]
10.786[223, 251, 91, 46, 49, 68, 170, 201]
10.801[203, 244, 93, 48, 48, 72, 174, 180]
10.824[214, 241, 91, 47, 48, 74, 185, 160]
10.846[189, 241, 96, 49, 44, 71, 178, 290]
10.861[201, 231, 91, 46, 39, 69, 200, 291]
10.884[226, 226, 81, 43, 36, 63, 194, 324]
10.907[237, 233, 74, 40, 35, 63, 180, 363]
10.921[207, 224, 73, 42, 36, 62, 191, 375]
10.944[281, 225, 70, 42, 38, 60, 189, 303]
10.967[316, 168, 68, 48, 41, 62, 180, 366]
10.981[304, 152, 67, 48, 39, 58, 186, 363]
11.004[318, 160, 81, 50, 44, 58, 198, 377]
11.027[348, 193, 86, 50, 46, 57, 183, 368]
11.041[308, 201, 83, 49, 46, 64, 183, 377]
11.064[273, 221, 95, 51, 47, 59, 160, 326]
11.087[279, 234, 93, 50, 47, 63, 146, 293]
11.102[261, 225, 83, 47, 42, 61, 136, 255]
11.124[252, 217, 81, 47, 39, 61, 155, 300]
11.147[232, 216, 81, 47, 41, 65, 196, 279]
11.177[218, 207, 68, 38, 37, 66, 202, 267]
11.185[238, 208, 76, 39, 37, 62, 196, 294]
11.206[237, 214, 79, 38, 35, 59, 197, 302]
11.228[213, 192, 78, 32, 33, 65, 185, 283]
11.245[233, 182, 84, 37, 35, 88, 134, 286]
11.266[240, 180, 84, 39, 34, 100, 136, 299]
11.289[221, 159, 75, 39, 34, 104, 142, 281]
11.305[213, 163, 79, 40, 34, 105, 133, 239]
11.326[236, 237, 85, 41, 39, 106, 134, 204]
11.348[212, 253, 79, 36, 35, 108, 162, 215]
11.365[204, 256, 82, 35, 35, 97, 157, 214]
11.386[205, 261, 82, 35, 35, 93, 155, 260]
11.408[208, 267, 76, 35, 36, 94, 178, 295]
11.425[206, 228, 68, 34, 30, 93, 184, 329]
11.446[211, 228, 67, 37, 29, 60, 161, 318]
11.469[229, 219, 64, 39, 29, 54, 174, 321]
11.485[213, 213, 65, 38, 31, 54, 180, 286]
11.506[209, 191, 59, 42, 33, 56, 162, 314]
11.529[174, 175, 61, 43, 33, 45, 144, 300]
11.546[156, 163, 66, 47, 41, 45, 137, 313]
11.566[132, 165, 62, 46, 40, 44, 117, 300]
11.588[160, 183, 65, 48, 45, 53, 131, 302]
11.605[200, 172, 66, 43, 44, 50, 144, 241]
11.626[203, 165, 66, 43, 43, 51, 169, 258]
11.648[235, 158, 67, 37, 38, 52, 178, 247]
11.665[249, 164, 91, 43, 42, 57, 192, 280]
11.686[340, 164, 89, 46, 38, 57, 180, 268]
11.709[327, 170, 88, 47, 37, 56, 164, 292]
11.725[331, 177, 93, 47, 40, 70, 167, 323]
11.746[309, 169, 91, 47, 39, 68, 161, 331]
11.77[289, 154, 69, 43, 35, 64, 144, 313]
11.785[193, 131, 69, 40, 35, 60, 147, 329]
11.806[190, 138, 77, 44, 36, 66, 153, 307]
11.829[193, 129, 69, 46, 36, 50, 120, 249]
11.852[206, 167, 71, 45, 38, 51, 133, 234]
11.866[211, 170, 69, 42, 39, 54, 149, 222]
11.888[204, 174, 74, 43, 39, 57, 149, 225]
11.905[236, 176, 76, 42, 37, 51, 154, 229]
11.926[240, 179, 81, 41, 39, 57, 165, 245]
11.956[247, 155, 87, 47, 45, 63, 150, 250]
11.965[287, 168, 90, 52, 46, 68, 140, 265]
11.986[276, 190, 95, 53, 46, 62, 134, 262]
12.008[278, 194, 92, 53, 50, 68, 131, 313]
12.025[281, 201, 87, 52, 47, 63, 131, 290]
12.046[271, 180, 76, 45, 40, 61, 130, 281]
12.076[233, 173, 72, 42, 39, 51, 118, 261]
12.085[261, 149, 71, 48, 40, 50, 111, 267]
12.106[226, 149, 72, 46, 36, 46, 100, 231]
12.129[240, 177, 83, 48, 36, 50, 115, 253]
12.151[236, 206, 95, 49, 38, 47, 122, 254]
12.166[246, 212, 96, 51, 35, 47, 128, 260]
12.188[222, 209, 90, 41, 34, 50, 132, 291]
12.211[239, 231, 117, 54, 38, 54, 149, 281]
12.226[233, 220, 124, 52, 37, 52, 146, 310]
12.249[256, 210, 123, 56, 39, 48, 139, 337]
12.271[246, 209, 126, 56, 40, 55, 143, 340]
12.286[270, 232, 127, 57, 43, 57, 147, 335]
12.309[253, 211, 103, 49, 39, 49, 135, 323]
12.331[237, 190, 87, 48, 39, 47, 109, 350]
12.346[212, 185, 79, 43, 41, 48, 113, 350]
12.369[225, 176, 75, 43, 40, 52, 115, 357]
12.391[176, 147, 73, 42, 39, 51, 106, 330]
12.406[199, 167, 74, 37, 37, 58, 122, 341]
12.429[229, 198, 96, 41, 37, 57, 137, 322]
12.451[258, 208, 101, 42, 33, 59, 143, 325]
12.466[254, 209, 103, 41, 33, 51, 140, 335]
12.488[272, 215, 101, 43, 31, 51, 146, 353]
12.511[273, 212, 98, 44, 33, 45, 137, 354]
12.526[269, 183, 73, 41, 31, 44, 120, 303]
12.55[256, 164, 68, 39, 30, 40, 118, 303]
12.572[250, 162, 62, 40, 31, 41, 112, 312]
12.586[244, 149, 59, 39, 31, 38, 105, 320]
12.609[224, 114, 57, 37, 29, 35, 100, 324]
12.631[228, 119, 56, 37, 32, 36, 114, 354]
12.647[238, 120, 54, 36, 30, 38, 135, 328]
12.669[242, 135, 55, 38, 30, 39, 133, 304]
12.692[252, 164, 59, 35, 30, 39, 143, 340]
12.707[280, 182, 58, 36, 33, 41, 151, 345]
12.729[255, 175, 60, 37, 34, 40, 146, 326]
12.751[243, 192, 61, 40, 36, 36, 130, 349]
12.774[288, 203, 64, 37, 37, 38, 135, 393]
12.789[271, 194, 70, 38, 37, 43, 146, 328]
12.811[248, 177, 69, 38, 36, 42, 130, 319]
12.827[241, 184, 70, 37, 34, 43, 133, 328]
12.849[228, 179, 66, 33, 33, 42, 122, 315]
12.871[249, 177, 65, 34, 32, 41, 169, 268]
12.887[247, 165, 64, 37, 32, 38, 166, 286]
12.909[255, 170, 61, 35, 30, 42, 187, 271]
12.931[280, 169, 64, 35, 31, 44, 183, 252]
12.946[285, 191, 65, 39, 34, 48, 190, 306]
12.969[209, 179, 66, 39, 33, 47, 152, 301]
12.991[239, 186, 59, 35, 33, 51, 140, 313]
13.006[248, 185, 61, 39, 36, 50, 130, 400]
13.029[221, 186, 63, 39, 35, 47, 126, 393]
13.051[269, 147, 62, 37, 32, 43, 128, 360]
13.074[282, 151, 59, 35, 31, 42, 126, 370]
13.089[277, 137, 61, 36, 33, 38, 129, 353]
13.111[267, 134, 63, 38, 31, 35, 131, 350]
13.134[269, 127, 59, 38, 30, 38, 134, 350]
13.149[234, 130, 57, 38, 28, 40, 123, 358]
13.171[245, 123, 55, 40, 28, 40, 125, 360]
13.194[249, 127, 56, 40, 27, 39, 130, 362]
13.211[303, 128, 56, 41, 32, 43, 110, 336]
13.231[303, 134, 59, 39, 32, 42, 107, 339]
13.254[308, 130, 59, 42, 34, 41, 112, 307]
13.269[296, 126, 60, 40, 34, 42, 122, 311]
13.291[288, 157, 61, 46, 35, 45, 108, 353]
13.314[225, 157, 57, 41, 31, 39, 123, 305]
13.329[225, 163, 51, 41, 31, 40, 126, 328]
13.351[210, 164, 51, 39, 30, 40, 125, 353]
13.374[196, 165, 54, 41, 31, 39, 113, 325]
13.389[261, 131, 52, 33, 31, 33, 122, 375]
13.411[300, 140, 58, 34, 31, 35, 113, 412]
13.434[308, 161, 66, 33, 31, 36, 110, 403]
13.449[304, 169, 66, 32, 31, 37, 120, 389]
13.471[308, 167, 64, 35, 31, 35, 112, 441]
13.494[252, 168, 61, 35, 29, 37, 101, 373]
13.509[201, 151, 55, 36, 30, 38, 110, 330]
13.531[210, 118, 53, 42, 30, 35, 128, 334]
13.554[219, 109, 55, 41, 31, 34, 121, 385]
13.569[238, 141, 59, 41, 34, 42, 129, 337]
13.591[233, 150, 66, 47, 36, 40, 136, 336]
13.614[254, 157, 65, 47, 36, 41, 137, 365]
13.629[286, 169, 61, 44, 36, 41, 136, 360]
13.651[283, 168, 63, 45, 36, 42, 137, 296]
13.674[261, 148, 60, 43, 34, 35, 138, 315]
13.69[260, 152, 60, 38, 34, 38, 138, 306]
13.711[309, 156, 66, 36, 32, 32, 131, 355]
13.734[267, 162, 71, 37, 33, 36, 122, 350]
13.749[283, 174, 79, 39, 32, 39, 118, 396]
13.771[292, 174, 80, 38, 32, 40, 165, 391]
13.794[303, 166, 78, 43, 36, 40, 166, 436]
13.809[244, 166, 72, 45, 38, 42, 166, 389]
13.831[303, 159, 69, 43, 38, 43, 179, 390]
13.854[303, 175, 59, 45, 40, 42, 178, 340]
13.869[297, 169, 58, 46, 40, 43, 144, 362]
13.891[287, 166, 54, 42, 34, 43, 139, 322]
13.914[307, 159, 57, 40, 31, 42, 139, 303]
13.929[245, 160, 58, 41, 32, 42, 118, 298]
13.952[230, 146, 56, 34, 30, 43, 120, 390]
13.974[257, 157, 58, 34, 30, 42, 118, 397]
13.997[245, 167, 61, 35, 34, 52, 116, 399]
14.011[242, 182, 78, 35, 35, 56, 114, 402]
14.034[275, 200, 83, 36, 33, 51, 124, 470]
14.058[276, 194, 83, 39, 34, 51, 118, 416]
14.071[287, 185, 82, 37, 32, 53, 108, 374]
14.094[298, 179, 85, 40, 33, 44, 112, 373]
14.118[306, 168, 72, 40, 36, 43, 120, 417]
14.131[287, 130, 65, 39, 36, 45, 112, 334]
14.154[278, 138, 69, 41, 38, 44, 114, 326]
14.177[330, 144, 69, 43, 37, 40, 105, 318]
14.191[325, 153, 63, 37, 34, 38, 97, 287]
14.214[301, 146, 60, 36, 30, 36, 80, 196]
14.237[343, 150, 61, 39, 31, 39, 87, 244]
14.251[355, 128, 55, 39, 28, 37, 87, 250]
14.274[282, 147, 62, 37, 32, 38, 104, 262]
14.297[347, 152, 70, 41, 34, 42, 110, 280]
14.311[355, 153, 69, 41, 34, 41, 112, 349]
14.335[346, 176, 66, 38, 33, 46, 127, 320]
14.357[342, 193, 71, 36, 33, 50, 135, 317]
14.371[355, 186, 66, 38, 32, 52, 133, 339]
14.395[293, 179, 65, 40, 32, 52, 124, 386]
14.418[286, 202, 75, 47, 38, 54, 138, 336]
14.432[240, 184, 84, 49, 37, 47, 115, 340]
14.455[246, 173, 84, 48, 38, 45, 131, 394]
14.477[238, 163, 84, 46, 36, 44, 140, 417]
14.492[267, 164, 84, 44, 34, 44, 146, 387]
14.515[278, 136, 77, 39, 31, 43, 145, 393]
14.538[308, 142, 71, 36, 30, 45, 153, 397]
14.551[306, 149, 71, 35, 26, 42, 132, 331]
14.575[294, 144, 68, 36, 33, 42, 115, 282]
14.597[280, 155, 66, 36, 33, 37, 116, 247]
14.612[271, 193, 66, 35, 29, 36, 105, 304]
14.635[232, 221, 63, 38, 31, 47, 114, 336]
14.657[250, 213, 60, 41, 31, 50, 125, 337]
14.672[254, 223, 62, 40, 28, 49, 121, 343]
14.695[236, 223, 66, 39, 29, 50, 125, 380]
14.717[272, 222, 76, 42, 34, 51, 123, 356]
14.74[302, 213, 81, 41, 34, 44, 120, 316]
14.755[310, 210, 82, 42, 33, 46, 117, 342]
14.778[336, 204, 78, 41, 31, 47, 120, 356]
14.792[358, 192, 67, 46, 35, 50, 122, 354]
14.815[329, 159, 56, 44, 33, 50, 122, 315]
14.838[315, 143, 60, 49, 36, 45, 111, 329]
14.852[303, 158, 58, 46, 38, 42, 107, 363]
14.875[296, 161, 66, 48, 42, 46, 114, 369]
14.898[277, 159, 66, 46, 42, 45, 107, 358]
14.912[268, 150, 63, 45, 40, 44, 116, 420]
14.935[262, 143, 50, 38, 37, 46, 119, 414]
14.958[240, 129, 52, 40, 36, 45, 116, 364]
14.98[215, 134, 43, 38, 36, 40, 114, 349]
14.995[211, 129, 43, 34, 31, 34, 120, 328]
15.017[196, 145, 48, 35, 31, 35, 121, 291]
15.04[266, 139, 48, 35, 31, 35, 119, 347]
15.055[268, 149, 50, 35, 29, 34, 132, 396]
15.077[269, 145, 60, 37, 26, 35, 134, 403]
15.1[289, 162, 72, 41, 30, 36, 119, 403]
15.115[296, 158, 69, 40, 30, 35, 106, 395]
15.137[257, 160, 70, 39, 28, 32, 102, 351]
15.16[326, 148, 66, 37, 31, 32, 89, 308]
15.175[338, 159, 60, 37, 32, 33, 83, 286]
15.197[336, 143, 47, 34, 28, 31, 110, 278]
15.22[341, 140, 48, 32, 29, 32, 131, 371]
15.235[333, 142, 52, 36, 33, 34, 132, 399]
15.257[287, 143, 55, 37, 33, 35, 132, 401]
15.28[282, 139, 56, 36, 31, 36, 131, 415]
15.295[311, 143, 58, 35, 33, 36, 114, 488]
15.318[306, 146, 63, 40, 35, 37, 101, 412]
15.34[312, 139, 60, 38, 31, 36, 114, 410]
15.355[326, 138, 56, 36, 29, 33, 111, 468]
15.378[311, 120, 52, 37, 30, 34, 117, 454]
15.4[303, 121, 57, 40, 30, 35, 123, 452]
15.415[300, 120, 54, 35, 28, 33, 116, 459]
15.437[278, 113, 52, 37, 30, 32, 98, 450]
15.46[263, 107, 55, 38, 34, 37, 112, 385]
15.475[326, 123, 60, 37, 33, 38, 128, 394]
15.497[287, 191, 63, 40, 34, 38, 123, 331]
15.52[302, 193, 61, 40, 34, 41, 133, 368]
15.535[316, 195, 62, 38, 34, 41, 136, 342]
15.558[304, 197, 60, 38, 30, 37, 132, 328]
15.58[248, 215, 61, 37, 31, 35, 113, 348]
15.594[276, 170, 54, 29, 28, 34, 117, 323]
15.618[293, 164, 57, 34, 32, 32, 106, 263]
15.64[270, 172, 61, 37, 33, 34, 115, 294]
15.654[259, 176, 62, 35, 37, 33, 111, 318]
15.678[262, 155, 60, 36, 39, 34, 111, 312]
15.7[260, 139, 59, 39, 40, 32, 123, 381]
15.714[215, 148, 58, 35, 37, 36, 129, 383]
15.745[240, 136, 58, 33, 38, 37, 128, 422]
15.76[227, 133, 59, 34, 36, 37, 129, 409]
15.774[228, 125, 55, 34, 35, 40, 129, 405]
15.798[237, 133, 54, 33, 33, 40, 122, 362]
15.82[251, 123, 50, 34, 32, 38, 118, 388]
15.834[260, 116, 45, 35, 30, 34, 111, 319]
15.857[266, 111, 42, 35, 29, 39, 115, 338]
15.88[269, 110, 44, 33, 26, 36, 114, 309]
15.902[254, 112, 50, 36, 29, 37, 105, 296]
15.918[244, 114, 58, 38, 27, 37, 102, 302]
15.94[230, 141, 60, 36, 26, 38, 104, 365]
15.97[256, 148, 62, 37, 28, 36, 96, 344]
15.978[237, 140, 65, 41, 30, 37, 96, 350]
16.0[242, 129, 62, 40, 31, 36, 95, 373]
16.023[263, 135, 56, 39, 33, 41, 98, 349]
16.038[265, 123, 58, 42, 36, 43, 106, 306]
16.06[260, 123, 57, 41, 35, 41, 105, 334]
16.083[260, 130, 51, 39, 34, 40, 105, 331]
16.098[257, 141, 51, 38, 34, 42, 112, 325]
16.12[256, 134, 50, 37, 33, 55, 117, 298]
16.143[253, 132, 49, 35, 31, 59, 127, 331]
16.158[282, 133, 53, 37, 31, 63, 132, 407]
16.18[302, 144, 53, 35, 33, 68, 146, 426]
16.202[316, 154, 64, 39, 31, 66, 145, 407]
16.218[332, 159, 64, 38, 34, 54, 144, 419]
16.239[326, 150, 64, 37, 33, 49, 127, 396]
16.262[307, 148, 58, 34, 32, 45, 121, 293]
16.278[311, 136, 62, 36, 31, 46, 109, 267]
16.299[304, 135, 50, 34, 35, 54, 110, 281]
16.322[267, 127, 51, 33, 34, 52, 119, 343]
16.339[285, 134, 54, 36, 35, 53, 142, 326]
16.359[261, 135, 54, 37, 35, 57, 152, 335]
16.382[234, 132, 58, 39, 37, 55, 144, 330]
16.398[221, 107, 58, 39, 34, 49, 141, 415]
16.42[352, 103, 56, 40, 33, 50, 143, 373]
16.442[336, 104, 50, 37, 34, 53, 123, 385]
16.459[337, 98, 50, 39, 37, 50, 108, 369]
16.479[331, 94, 41, 35, 33, 49, 111, 375]
16.502[356, 109, 39, 38, 36, 47, 111, 308]
16.518[241, 107, 40, 37, 36, 50, 127, 368]
16.541[249, 109, 51, 40, 35, 45, 140, 354]
16.562[261, 106, 51, 37, 32, 43, 139, 376]
16.578[287, 112, 59, 38, 33, 42, 140, 384]
16.599[269, 99, 58, 36, 30, 42, 142, 341]
16.622[252, 114, 59, 35, 32, 38, 141, 303]
16.638[256, 117, 66, 36, 32, 36, 129, 338]
16.659[266, 117, 67, 36, 32, 39, 135, 353]
16.682[246, 125, 65, 35, 32, 41, 137, 336]
16.698[234, 130, 70, 34, 35, 41, 140, 355]
16.719[312, 158, 74, 35, 33, 41, 134, 387]
16.742[307, 178, 65, 33, 32, 43, 134, 362]
16.758[292, 196, 68, 33, 32, 40, 132, 333]
16.779[304, 187, 68, 36, 32, 43, 138, 353]
16.802[290, 192, 78, 42, 31, 40, 138, 343]
16.818[207, 176, 75, 43, 32, 39, 129, 318]
16.839[188, 159, 78, 43, 33, 38, 131, 322]
16.87[190, 139, 78, 47, 33, 40, 128, 323]
16.884[208, 152, 75, 45, 33, 34, 128, 323]
16.899[209, 143, 64, 38, 29, 35, 123, 363]
16.922[234, 124, 62, 37, 29, 37, 118, 320]
16.944[240, 108, 58, 37, 29, 36, 114, 347]
16.959[275, 110, 58, 32, 29, 36, 120, 368]
16.982[257, 109, 63, 32, 27, 38, 121, 416]
17.004[258, 113, 59, 34, 30, 39, 132, 407]
17.019[232, 130, 65, 33, 29, 39, 124, 400]
17.042[266, 133, 59, 34, 30, 38, 120, 397]
17.065[239, 137, 55, 34, 29, 34, 121, 424]
17.079[234, 132, 48, 35, 31, 39, 111, 363]
17.102[236, 127, 54, 33, 29, 37, 93, 322]
17.125[263, 135, 55, 38, 30, 37, 90, 334]
17.14[254, 137, 58, 36, 28, 40, 113, 296]
17.162[253, 138, 60, 38, 33, 45, 112, 240]
17.184[288, 136, 66, 37, 31, 42, 121, 282]
17.2[285, 158, 61, 41, 33, 44, 123, 289]
17.222[274, 146, 53, 38, 32, 41, 131, 279]
17.245[261, 151, 55, 39, 35, 41, 114, 284]
17.26[263, 166, 56, 35, 33, 40, 113, 306]
17.282[216, 188, 60, 41, 32, 37, 106, 276]
17.305[252, 190, 59, 35, 31, 38, 150, 343]
17.32[237, 211, 71, 37, 32, 39, 142, 356]
17.343[242, 214, 77, 38, 29, 35, 144, 357]
17.364[226, 200, 76, 37, 30, 32, 149, 356]
17.38[261, 194, 71, 37, 33, 36, 145, 392]
17.402[296, 177, 72, 37, 30, 32, 110, 349]
17.424[304, 155, 62, 37, 30, 39, 118, 331]
17.44[289, 162, 58, 36, 29, 40, 118, 340]
17.462[363, 174, 56, 36, 30, 39, 107, 364]
17.485[356, 166, 56, 32, 28, 37, 106, 313]
17.5[303, 162, 56, 34, 33, 37, 98, 303]
17.522[311, 161, 59, 34, 33, 30, 96, 320]
17.545[313, 173, 59, 37, 36, 36, 100, 379]
17.56[226, 169, 58, 38, 32, 38, 112, 323]
17.582[197, 159, 60, 40, 32, 37, 120, 332]
17.604[228, 162, 67, 42, 29, 38, 123, 338]
17.62[243, 155, 64, 43, 32, 42, 121, 328]
17.642[249, 131, 60, 41, 29, 40, 121, 359]
17.665[278, 126, 66, 40, 30, 39, 111, 366]
17.687[289, 133, 65, 40, 31, 39, 110, 384]
17.702[271, 149, 59, 36, 30, 38, 106, 411]
17.725[253, 146, 57, 32, 29, 37, 123, 450]
17.74[249, 134, 55, 29, 28, 33, 121, 374]
17.762[247, 123, 46, 28, 28, 37, 130, 379]
17.785[280, 113, 47, 27, 27, 38, 135, 437]
17.807[267, 108, 52, 27, 30, 42, 144, 434]
17.823[278, 124, 53, 28, 30, 40, 128, 392]
17.845[298, 138, 56, 32, 32, 41, 137, 386]
17.868[268, 136, 59, 32, 33, 39, 138, 386]
17.882[222, 154, 56, 34, 36, 41, 135, 308]
17.905[308, 145, 50, 32, 35, 39, 129, 296]
17.927[289, 138, 52, 32, 34, 37, 130, 338]
17.942[268, 133, 53, 30, 32, 40, 140, 351]
17.965[312, 151, 57, 32, 33, 39, 160, 397]
17.987[309, 132, 55, 31, 31, 37, 157, 382]
18.003[256, 144, 55, 31, 31, 39, 159, 370]
18.025[282, 144, 60, 29, 30, 44, 163, 337]
18.047[328, 142, 63, 32, 32, 41, 142, 408]
18.063[294, 127, 60, 32, 30, 41, 129, 361]
18.085[297, 131, 66, 32, 29, 38, 125, 370]
18.107[293, 125, 68, 36, 29, 34, 112, 361]
18.122[299, 124, 64, 42, 31, 28, 106, 361]
18.145[281, 117, 58, 40, 30, 27, 106, 365]
18.176[283, 136, 66, 44, 31, 29, 103, 375]
18.182[285, 135, 64, 43, 31, 30, 101, 364]
18.205[272, 138, 63, 43, 33, 32, 101, 359]
18.227[279, 141, 64, 38, 32, 32, 105, 405]
18.243[258, 152, 69, 37, 32, 33, 105, 335]
18.265[260, 144, 59, 34, 30, 33, 101, 331]
18.287[285, 148, 57, 36, 32, 35, 114, 341]
18.303[273, 149, 61, 36, 29, 34, 118, 363]
18.325[247, 145, 58, 34, 29, 33, 113, 360]
18.348[286, 138, 53, 36, 28, 31, 110, 357]
18.363[282, 131, 59, 37, 31, 32, 118, 337]
18.385[257, 135, 62, 34, 31, 32, 104, 332]
18.407[269, 120, 56, 33, 32, 32, 105, 393]
18.423[269, 128, 58, 34, 32, 36, 124, 359]
18.445[223, 132, 59, 37, 32, 37, 129, 348]
18.467[220, 135, 56, 36, 32, 35, 108, 395]
18.482[235, 119, 55, 37, 29, 33, 112, 425]
18.505[273, 121, 55, 39, 32, 38, 145, 394]
18.528[281, 115, 51, 40, 33, 35, 140, 381]
18.542[284, 125, 48, 36, 31, 35, 136, 363]
18.565[295, 126, 48, 43, 33, 37, 138, 328]
18.587[296, 134, 51, 41, 34, 38, 140, 286]
18.61[308, 135, 51, 39, 30, 35, 117, 247]
18.625[317, 133, 65, 41, 31, 39, 125, 314]
18.647[317, 123, 66, 40, 32, 41, 132, 323]
18.662[300, 113, 64, 34, 29, 42, 129, 309]
18.685[325, 114, 64, 38, 30, 43, 131, 332]
18.716[277, 113, 66, 37, 30, 42, 120, 316]
18.722[257, 106, 59, 37, 28, 41, 107, 240]
18.745[272, 105, 64, 38, 28, 41, 119, 331]
18.767[284, 119, 64, 38, 27, 38, 122, 339]
18.791[270, 114, 64, 38, 30, 43, 127, 328]
18.805[285, 132, 64, 37, 31, 44, 125, 328]
18.828[285, 131, 62, 36, 32, 42, 123, 359]
18.851[258, 134, 62, 36, 32, 41, 104, 284]
18.865[265, 134, 62, 32, 33, 41, 114, 325]
18.888[250, 139, 60, 30, 31, 39, 107, 309]
18.911[273, 135, 60, 35, 30, 37, 118, 321]
18.925[258, 154, 66, 35, 30, 37, 115, 303]
18.947[269, 146, 59, 34, 32, 40, 127, 338]
18.971[249, 133, 56, 38, 34, 41, 112, 286]
18.985[252, 129, 55, 38, 33, 36, 113, 347]
19.007[223, 131, 61, 35, 35, 42, 130, 356]
19.031[219, 123, 59, 37, 35, 45, 132, 357]
19.045[199, 122, 60, 38, 33, 55, 122, 303]
19.067[206, 128, 64, 40, 31, 60, 128, 304]
19.091[233, 133, 67, 40, 31, 61, 133, 308]
19.105[226, 140, 65, 38, 30, 59, 126, 325]
19.127[250, 133, 61, 37, 29, 57, 121, 320]
19.151[279, 141, 60, 35, 27, 49, 117, 349]
19.165[286, 147, 62, 34, 28, 44, 126, 361]
19.188[242, 145, 64, 36, 30, 47, 152, 307]
19.211[245, 120, 59, 36, 29, 50, 137, 297]
19.225[268, 137, 62, 35, 30, 57, 142, 294]
19.247[257, 134, 63, 36, 32, 57, 156, 295]
19.271[253, 151, 61, 35, 33, 60, 154, 287]
19.285[260, 144, 55, 30, 32, 55, 130, 378]
19.307[281, 153, 59, 33, 33, 57, 140, 358]
19.331[244, 149, 63, 38, 33, 51, 149, 374]
19.345[246, 148, 65, 38, 32, 51, 172, 390]
19.367[258, 127, 63, 40, 31, 49, 174, 389]
19.391[243, 133, 66, 43, 32, 54, 171, 290]
19.405[222, 165, 68, 41, 30, 50, 173, 292]
19.427[240, 163, 59, 37, 31, 55, 169, 311]
19.452[253, 165, 62, 37, 31, 59, 137, 259]
19.465[231, 170, 63, 35, 27, 61, 133, 258]
19.487[232, 197, 61, 34, 31, 64, 125, 252]
19.511[210, 183, 55, 34, 32, 77, 126, 229]
19.525[246, 179, 60, 33, 34, 82, 197, 172]
19.547[209, 179, 56, 32, 33, 80, 218, 176]
19.571[214, 173, 51, 30, 32, 80, 217, 153]
19.585[214, 140, 113, 33, 27, 74, 219, 140]
19.608[206, 121, 155, 48, 27, 63, 213, 136]
19.631[149, 110, 224, 72, 29, 63, 143, 105]
19.645[139, 106, 255, 91, 38, 62, 105, 68]
19.668[127, 103, 352, 130, 43, 57, 90, 60]
19.691[125, 120, 430, 201, 53, 61, 80, 79]
19.713[120, 112, 450, 214, 56, 59, 65, 75]
19.728[99, 112, 475, 255, 66, 50, 54, 69]
19.758[104, 110, 509, 258, 63, 49, 45, 71]
19.773[90, 107, 474, 248, 62, 49, 43, 72]
19.787[90, 92, 431, 202, 59, 47, 45, 48]
19.811[90, 88, 419, 207, 60, 43, 43, 66]
19.833[62, 84, 363, 149, 48, 36, 39, 64]
19.847[50, 80, 384, 155, 46, 30, 33, 60]
19.871[73, 79, 477, 163, 46, 31, 31, 60]
19.893[101, 59, 466, 168, 41, 27, 25, 58]
19.907[102, 56, 503, 170, 38, 28, 25, 37]
19.931[101, 61, 524, 170, 37, 29, 24, 33]
19.953[101, 55, 462, 161, 37, 29, 27, 55]
19.968[82, 45, 338, 147, 35, 26, 25, 52]
19.991[42, 47, 309, 137, 33, 22, 23, 54]
20.013[35, 45, 236, 105, 28, 21, 22, 53]
20.029[32, 40, 215, 119, 28, 18, 22, 54]
20.051[30, 40, 232, 120, 27, 19, 19, 30]
20.073[29, 41, 245, 119, 26, 19, 20, 29]
20.088[24, 38, 257, 118, 27, 19, 20, 27]
20.111[21, 36, 243, 118, 26, 19, 20, 26]
20.133[22, 34, 208, 102, 26, 20, 19, 25]
20.148[22, 32, 206, 88, 25, 18, 20, 23]
20.171[21, 32, 186, 79, 27, 19, 19, 49]
20.194[22, 29, 164, 71, 25, 21, 19, 51]
20.208[23, 33, 183, 83, 29, 21, 19, 51]
20.231[23, 38, 198, 89, 29, 22, 21, 52]
20.253[29, 48, 222, 89, 32, 23, 20, 53]
20.268[30, 49, 281, 95, 32, 23, 19, 33]
20.291[29, 49, 282, 92, 33, 22, 20, 28]
20.313[29, 46, 259, 76, 28, 22, 19, 25]
20.328[30, 45, 278, 72, 28, 21, 19, 24]
20.351[24, 34, 244, 64, 24, 19, 18, 20]
20.374[22, 33, 169, 58, 20, 19, 16, 17]
20.388[23, 35, 215, 86, 24, 21, 18, 19]
20.411[22, 38, 215, 87, 25, 21, 18, 21]
20.434[20, 33, 170, 78, 25, 21, 17, 20]
20.448[19, 35, 170, 80, 26, 21, 19, 19]
20.471[22, 35, 185, 97, 30, 23, 20, 19]
20.493[22, 33, 153, 86, 28, 21, 18, 17]
20.508[23, 34, 193, 91, 30, 20, 20, 17]
20.531[23, 33, 206, 98, 29, 21, 20, 18]
20.555[23, 33, 207, 96, 28, 21, 21, 18]
20.568[20, 33, 189, 76, 24, 20, 21, 19]
20.591[20, 30, 166, 73, 24, 19, 22, 19]
20.614[19, 27, 187, 112, 24, 22, 19, 19]
20.636[20, 31, 185, 107, 25, 22, 20, 19]
20.651[20, 31, 182, 107, 25, 23, 18, 19]
20.674[20, 30, 184, 109, 26, 22, 17, 18]
20.696[22, 38, 196, 105, 26, 23, 17, 19]
20.711[22, 36, 135, 68, 24, 21, 18, 20]
20.734[21, 34, 136, 65, 25, 21, 18, 19]
20.763[22, 33, 139, 67, 24, 18, 18, 20]
20.771[22, 32, 138, 66, 23, 18, 19, 21]
20.794[21, 24, 121, 60, 23, 18, 18, 20]
20.816[23, 27, 122, 61, 26, 18, 20, 20]
20.832[23, 30, 97, 60, 25, 18, 19, 19]
20.854[23, 28, 93, 60, 26, 18, 19, 19]
20.876[24, 29, 101, 58, 27, 18, 18, 18]
20.891[23, 29, 114, 73, 28, 20, 21, 20]
20.914[22, 27, 119, 61, 26, 19, 19, 19]
20.936[22, 25, 120, 61, 26, 20, 21, 19]
20.951[22, 26, 117, 59, 26, 20, 22, 19]
20.974[18, 28, 114, 60, 29, 21, 23, 18]
20.996[20, 26, 137, 49, 25, 19, 22, 18]
21.011[18, 26, 131, 60, 25, 20, 21, 19]
21.034[19, 31, 167, 71, 26, 21, 20, 19]
21.056[20, 35, 186, 75, 25, 21, 19, 20]
21.071[22, 33, 181, 74, 22, 18, 19, 20]
21.094[20, 33, 164, 80, 22, 18, 18, 19]
21.116[20, 36, 160, 79, 25, 18, 19, 19]
21.131[19, 33, 126, 68, 26, 18, 19, 19]
21.153[18, 31, 98, 65, 24, 18, 19, 20]
21.176[17, 31, 107, 67, 23, 19, 19, 21]
21.191[17, 31, 95, 62, 25, 20, 19, 20]
21.214[18, 30, 105, 51, 21, 19, 18, 20]
21.236[18, 28, 93, 51, 23, 20, 19, 19]
21.259[19, 25, 90, 48, 24, 20, 20, 18]
21.274[18, 24, 78, 44, 24, 21, 19, 18]
21.295[19, 26, 74, 36, 23, 21, 19, 18]
21.318[18, 28, 77, 35, 23, 21, 20, 19]
21.334[18, 31, 130, 43, 21, 20, 22, 20]
21.355[17, 31, 131, 52, 20, 18, 21, 20]
21.378[17, 32, 135, 52, 18, 18, 21, 20]
21.394[19, 35, 138, 53, 18, 16, 23, 19]
21.416[20, 33, 137, 56, 18, 18, 22, 18]
21.446[20, 32, 88, 50, 20, 18, 20, 17]
21.454[21, 32, 92, 41, 22, 19, 20, 18]
21.475[23, 33, 94, 46, 24, 18, 21, 21]
21.492[22, 32, 139, 61, 24, 20, 19, 22]
21.514[23, 30, 133, 63, 24, 20, 19, 24]
21.535[22, 30, 133, 64, 23, 19, 20, 23]
21.552[25, 32, 134, 64, 21, 19, 20, 23]
21.58[24, 32, 136, 75, 22, 20, 19, 22]
21.596[24, 28, 92, 61, 22, 17, 20, 22]
21.618[23, 32, 101, 55, 22, 17, 20, 20]
21.634[25, 33, 121, 57, 24, 17, 18, 19]
21.655[21, 32, 120, 58, 24, 17, 19, 19]
21.678[20, 31, 113, 41, 20, 16, 18, 19]
21.695[19, 33, 163, 56, 20, 22, 19, 17]
21.715[20, 31, 165, 59, 19, 22, 19, 18]
21.738[19, 30, 154, 57, 17, 22, 22, 19]
21.753[20, 30, 156, 57, 19, 23, 21, 17]
21.775[21, 29, 158, 58, 22, 23, 23, 16]
21.798[21, 30, 104, 42, 24, 21, 22, 17]
21.813[19, 31, 88, 40, 25, 21, 21, 17]
21.835[19, 30, 92, 36, 25, 21, 19, 18]
21.858[19, 28, 83, 38, 25, 20, 19, 18]
21.873[20, 32, 112, 41, 23, 20, 17, 19]
21.895[20, 29, 117, 40, 21, 19, 17, 19]
21.918[21, 27, 118, 41, 21, 18, 17, 21]
21.933[21, 27, 112, 42, 22, 19, 19, 19]
21.955[25, 30, 117, 42, 23, 18, 18, 21]
21.978[23, 26, 93, 37, 23, 17, 19, 21]
21.993[23, 26, 82, 36, 21, 16, 18, 20]
22.016[23, 26, 117, 38, 19, 16, 19, 18]
22.038[23, 30, 119, 38, 24, 14, 17, 19]
22.053[19, 29, 132, 40, 23, 16, 16, 16]
22.075[22, 29, 129, 39, 24, 17, 18, 19]
22.098[21, 29, 137, 42, 23, 19, 18, 20]
22.113[21, 30, 108, 39, 24, 20, 18, 20]
22.135[21, 30, 121, 39, 19, 21, 21, 20]
22.158[21, 29, 103, 34, 18, 21, 22, 21]
22.173[20, 29, 109, 36, 19, 21, 22, 19]
22.196[20, 30, 101, 38, 21, 18, 22, 19]
22.218[19, 30, 96, 40, 21, 20, 22, 18]
22.233[20, 25, 81, 44, 21, 19, 20, 18]
22.255[21, 27, 95, 44, 21, 17, 20, 20]
22.278[19, 28, 90, 44, 19, 18, 20, 20]
22.293[21, 26, 86, 40, 18, 18, 20, 18]
22.315[20, 26, 101, 40, 19, 17, 21, 20]
22.338[20, 29, 109, 36, 18, 19, 20, 18]
22.353[18, 28, 106, 38, 17, 21, 20, 17]
22.376[22, 31, 116, 43, 18, 20, 19, 17]
22.398[21, 30, 123, 45, 19, 22, 19, 18]
22.414[24, 30, 116, 54, 18, 23, 18, 17]
22.435[23, 29, 109, 56, 19, 22, 17, 20]
22.458[23, 29, 118, 58, 19, 20, 15, 20]
22.473[21, 25, 118, 55, 22, 22, 15, 20]
22.495[20, 26, 115, 55, 23, 23, 19, 20]
22.518[18, 27, 117, 44, 22, 22, 20, 20]
22.541[18, 28, 114, 42, 21, 21, 23, 18]
22.556[19, 28, 98, 39, 23, 22, 23, 17]
22.578[20, 29, 82, 38, 21, 20, 23, 17]
22.601[21, 28, 113, 38, 19, 19, 21, 18]
22.617[21, 27, 123, 41, 21, 18, 19, 18]
22.638[22, 26, 125, 40, 21, 19, 18, 19]
22.661[21, 26, 124, 36, 19, 20, 18, 19]
22.676[22, 25, 137, 40, 20, 19, 18, 19]
22.698[22, 24, 118, 39, 19, 17, 18, 18]
22.721[23, 27, 104, 40, 17, 21, 18, 18]
22.736[22, 25, 103, 41, 20, 20, 17, 19]
22.758[23, 24, 121, 51, 21, 21, 19, 19]
22.78[22, 26, 119, 49, 20, 23, 17, 18]
22.795[23, 28, 110, 48, 21, 22, 18, 18]
22.818[21, 24, 114, 44, 21, 22, 17, 19]
22.841[23, 24, 112, 46, 21, 23, 18, 18]
22.855[21, 25, 95, 37, 21, 22, 20, 19]
22.878[23, 25, 82, 38, 22, 21, 20, 20]
22.901[22, 23, 85, 37, 22, 22, 20, 19]
22.916[22, 23, 87, 36, 22, 22, 22, 19]
22.938[21, 24, 90, 33, 21, 22, 20, 19]
22.961[21, 24, 84, 33, 23, 24, 19, 19]
22.976[20, 24, 82, 29, 21, 23, 20, 17]
22.999[20, 26, 78, 30, 20, 23, 21, 20]
23.021[20, 25, 72, 35, 20, 21, 19, 20]
23.036[20, 30, 76, 33, 21, 20, 20, 20]
23.058[19, 31, 79, 31, 18, 19, 20, 20]
23.081[18, 29, 79, 34, 19, 19, 20, 21]
23.096[18, 30, 93, 39, 23, 20, 20, 21]
23.119[19, 31, 104, 39, 22, 20, 21, 23]
23.141[20, 26, 100, 42, 22, 22, 20, 22]
23.156[21, 26, 95, 42, 23, 22, 20, 22]
23.179[21, 26, 94, 41, 22, 22, 19, 23]
23.201[24, 25, 99, 39, 19, 20, 20, 20]
23.216[24, 27, 85, 34, 22, 20, 19, 19]
23.238[23, 27, 84, 34, 22, 18, 20, 20]
23.261[24, 26, 106, 39, 23, 19, 19, 20]
23.276[23, 27, 122, 41, 22, 20, 18, 19]
23.298[20, 28, 110, 40, 22, 23, 19, 19]
23.321[19, 27, 113, 42, 21, 22, 17, 19]
23.336[18, 29, 119, 43, 21, 22, 17, 20]
23.359[19, 28, 117, 37, 22, 23, 18, 19]
23.381[20, 28, 109, 37, 22, 22, 20, 19]
23.396[21, 27, 106, 35, 23, 20, 19, 21]
23.418[21, 24, 101, 36, 23, 19, 19, 20]
23.441[22, 22, 90, 32, 22, 19, 18, 18]
23.456[21, 24, 76, 33, 20, 17, 17, 18]
23.478[21, 22, 81, 39, 21, 19, 17, 21]
23.501[22, 26, 104, 40, 21, 18, 16, 19]
23.523[22, 29, 115, 39, 22, 19, 19, 19]
23.538[21, 29, 117, 39, 21, 19, 20, 20]
23.561[20, 29, 111, 39, 21, 20, 20, 19]
23.584[21, 28, 100, 30, 21, 18, 20, 16]
23.598[19, 27, 80, 28, 22, 17, 20, 17]
23.621[20, 26, 81, 25, 21, 18, 18, 18]
23.644[21, 25, 85, 25, 22, 19, 17, 19]
23.658[21, 25, 89, 29, 21, 18, 18, 19]
23.681[20, 28, 87, 29, 19, 18, 19, 20]
23.704[21, 24, 82, 30, 19, 19, 20, 19]
23.718[20, 24, 65, 30, 18, 19, 20, 20]
23.741[19, 26, 71, 29, 20, 19, 21, 19]
23.764[19, 25, 75, 28, 20, 21, 20, 19]
23.778[19, 21, 72, 28, 22, 21, 20, 18]
23.801[20, 24, 73, 29, 21, 21, 19, 18]
23.824[19, 24, 77, 28, 21, 21, 20, 16]
23.838[20, 22, 71, 27, 19, 19, 20, 18]
23.861[21, 21, 73, 24, 20, 17, 19, 18]
23.885[21, 24, 80, 28, 20, 17, 18, 20]
23.898[18, 21, 81, 26, 19, 16, 20, 20]
23.921[19, 23, 74, 27, 22, 19, 19, 21]
23.944[18, 24, 74, 30, 22, 18, 19, 20]
23.959[17, 25, 69, 31, 23, 18, 19, 20]
23.981[18, 23, 70, 33, 23, 21, 18, 20]
24.004[18, 26, 78, 34, 23, 22, 17, 20]
24.019[20, 27, 87, 34, 22, 21, 18, 19]
24.041[20, 26, 84, 34, 23, 23, 19, 19]
24.064[21, 26, 81, 33, 23, 24, 18, 21]
24.078[21, 26, 75, 27, 22, 21, 19, 20]
24.101[21, 27, 79, 27, 21, 20, 20, 19]
24.124[20, 23, 86, 28, 23, 19, 21, 20]
24.138[20, 25, 83, 27, 20, 17, 22, 21]
24.161[21, 26, 85, 26, 20, 19, 22, 19]
24.184[20, 26, 90, 33, 20, 20, 22, 20]
24.198[21, 26, 81, 32, 20, 20, 21, 20]
24.221[20, 28, 64, 31, 19, 20, 19, 19]
24.244[22, 28, 73, 30, 21, 20, 17, 19]
24.267[20, 27, 86, 30, 21, 17, 18, 19]
24.281[21, 28, 82, 26, 22, 19, 18, 19]
24.304[20, 26, 82, 25, 23, 19, 18, 20]
24.318[20, 24, 104, 25, 23, 20, 17, 22]
24.341[18, 27, 108, 29, 23, 20, 17, 21]
24.365[17, 26, 98, 28, 23, 21, 18, 22]
24.379[18, 26, 98, 25, 22, 21, 18, 21]
24.401[19, 26, 102, 29, 21, 21, 18, 21]
24.424[21, 28, 83, 32, 19, 20, 18, 21]
24.447[21, 24, 65, 28, 20, 22, 18, 22]
24.461[21, 23, 66, 29, 19, 21, 16, 24]
24.484[21, 23, 67, 31, 20, 20, 17, 24]
24.507[19, 24, 61, 28, 21, 20, 18, 24]
24.521[20, 24, 60, 28, 23, 20, 18, 23]
24.544[18, 27, 68, 32, 23, 19, 21, 21]
24.567[20, 28, 68, 32, 23, 21, 22, 20]
24.581[19, 28, 66, 32, 22, 22, 22, 19]
24.604[21, 26, 71, 33, 21, 20, 21, 18]
24.627[20, 26, 84, 34, 20, 20, 21, 18]
24.641[22, 23, 103, 32, 20, 20, 18, 19]
24.665[23, 24, 105, 33, 18, 18, 17, 18]
24.687[24, 23, 102, 32, 19, 18, 16, 19]
24.701[22, 24, 95, 29, 18, 17, 16, 19]
24.724[23, 27, 92, 26, 17, 17, 18, 19]
24.747[22, 28, 74, 24, 16, 19, 18, 17]
24.761[21, 28, 68, 23, 17, 20, 18, 18]
24.785[20, 28, 69, 23, 19, 20, 19, 18]
24.807[21, 31, 69, 23, 20, 23, 19, 18]
24.821[19, 27, 60, 25, 20, 23, 18, 18]
24.844[19, 25, 53, 27, 20, 21, 17, 18]
24.874[18, 24, 54, 25, 18, 22, 21, 18]
24.881[18, 25, 53, 25, 18, 22, 21, 20]
24.904[17, 24, 70, 27, 16, 19, 20, 18]
24.927[18, 26, 68, 24, 17, 20, 20, 20]
24.941[18, 27, 72, 26, 17, 20, 20, 20]
24.964[19, 28, 70, 27, 20, 19, 16, 19]
24.987[18, 28, 75, 28, 21, 18, 16, 17]
25.001[19, 25, 68, 27, 23, 19, 18, 19]
25.025[20, 23, 74, 27, 26, 20, 18, 18]
25.047[19, 23, 67, 24, 25, 20, 20, 19]
25.061[20, 20, 70, 24, 24, 20, 20, 20]
25.084[21, 22, 71, 24, 23, 22, 20, 20]
25.107[20, 21, 66, 25, 22, 21, 20, 21]
25.121[19, 24, 55, 24, 19, 22, 21, 20]
25.144[19, 22, 58, 23, 18, 20, 20, 19]
25.167[19, 23, 60, 24, 20, 21, 20, 20]
25.181[19, 24, 65, 26, 21, 18, 19, 21]
25.204[20, 24, 62, 24, 21, 20, 19, 20]
25.227[21, 25, 66, 26, 21, 18, 18, 21]
25.241[22, 24, 62, 25, 21, 20, 17, 23]
25.264[22, 27, 68, 26, 19, 17, 17, 22]
25.287[22, 24, 60, 25, 18, 17, 17, 23]
25.301[22, 25, 72, 26, 18, 17, 17, 22]
25.324[23, 26, 70, 26, 17, 16, 18, 22]
25.347[21, 26, 76, 28, 18, 16, 19, 21]
25.369[21, 22, 75, 28, 19, 16, 20, 20]
25.384[21, 24, 75, 27, 20, 19, 20, 21]
25.407[20, 23, 65, 27, 20, 18, 19, 20]
25.429[18, 19, 63, 25, 21, 18, 19, 20]
25.444[20, 23, 65, 24, 23, 17, 19, 20]
25.467[20, 25, 61, 22, 22, 17, 18, 20]
25.489[22, 25, 61, 23, 21, 15, 17, 18]
25.504[20, 25, 62, 25, 22, 16, 20, 19]
25.527[22, 25, 62, 26, 22, 19, 21, 18]
25.55[21, 24, 52, 27, 22, 19, 21, 18]
25.564[20, 23, 61, 31, 23, 20, 21, 17]
25.587[20, 21, 61, 31, 22, 19, 21, 17]
25.609[21, 22, 60, 29, 21, 19, 19, 17]
25.624[19, 22, 59, 31, 22, 18, 17, 17]
25.647[21, 25, 57, 30, 21, 19, 18, 16]
25.669[21, 23, 42, 25, 21, 20, 18, 17]
25.684[18, 24, 35, 23, 21, 20, 18, 19]
25.707[20, 23, 33, 24, 21, 22, 19, 18]
25.73[19, 24, 50, 25, 21, 21, 18, 20]
25.745[18, 20, 56, 25, 21, 19, 18, 19]
25.767[17, 24, 54, 25, 22, 19, 18, 19]
25.79[20, 24, 53, 24, 21, 19, 18, 17]
25.804[18, 24, 53, 25, 21, 18, 19, 18]
25.827[19, 23, 43, 23, 21, 19, 21, 17]
25.85[21, 23, 43, 22, 19, 19, 22, 19]
25.864[21, 25, 44, 24, 20, 20, 20, 18]
25.887[18, 25, 61, 27, 21, 22, 21, 19]
25.909[19, 27, 66, 28, 22, 20, 21, 17]
25.924[17, 27, 62, 28, 22, 19, 20, 19]
25.947[14, 29, 61, 28, 23, 20, 19, 19]
25.969[16, 25, 60, 28, 22, 18, 20, 20]
25.984[17, 25, 43, 27, 21, 19, 19, 21]
26.007[19, 22, 42, 24, 20, 18, 19, 21]
26.029[20, 24, 54, 25, 21, 20, 19, 19]
26.044[21, 24, 54, 26, 19, 19, 21, 19]
26.067[20, 22, 54, 26, 18, 19, 20, 19]
26.09[21, 22, 53, 22, 19, 17, 20, 19]
26.105[20, 23, 55, 23, 19, 20, 20, 19]
26.127[21, 23, 53, 24, 19, 19, 19, 19]
26.15[20, 22, 51, 25, 20, 20, 17, 18]
26.163[19, 25, 52, 24, 20, 21, 17, 18]
26.187[18, 25, 54, 26, 20, 20, 15, 18]
26.209[19, 25, 48, 24, 19, 20, 16, 19]
26.231[18, 24, 61, 26, 18, 20, 18, 19]
26.248[19, 24, 66, 27, 19, 20, 18, 20]
26.269[19, 23, 65, 27, 19, 19, 19, 21]
26.293[22, 22, 66, 28, 21, 19, 21, 21]
26.308[22, 24, 67, 28, 22, 17, 19, 21]
26.329[21, 25, 45, 24, 21, 17, 18, 23]
26.351[22, 24, 61, 24, 21, 18, 20, 21]
26.368[22, 23, 63, 26, 21, 19, 20, 20]
26.389[21, 23, 62, 23, 18, 18, 19, 20]
26.411[20, 21, 61, 23, 19, 19, 19, 20]
26.428[20, 24, 60, 24, 19, 18, 20, 19]
26.449[19, 24, 35, 22, 20, 17, 18, 19]
26.471[19, 24, 28, 21, 19, 17, 19, 19]
26.488[18, 24, 24, 21, 20, 18, 19, 18]
26.509[17, 25, 31, 22, 19, 18, 19, 19]
26.532[18, 21, 48, 24, 18, 19, 18, 19]
26.548[18, 21, 51, 24, 18, 20, 17, 20]
26.569[18, 21, 52, 25, 17, 21, 17, 19]
26.599[20, 23, 53, 25, 17, 21, 18, 21]
26.608[19, 20, 50, 23, 16, 21, 17, 20]
26.629[18, 23, 35, 22, 17, 20, 19, 20]
26.651[19, 25, 29, 21, 16, 20, 19, 19]
26.668[18, 23, 27, 21, 19, 20, 19, 20]
26.689[18, 22, 29, 23, 19, 20, 20, 18]
26.719[21, 22, 30, 24, 21, 18, 20, 20]
26.728[21, 19, 31, 23, 20, 20, 20, 20]
26.749[20, 21, 31, 23, 24, 20, 21, 20]
26.771[21, 22, 32, 21, 21, 19, 20, 19]
26.788[21, 23, 28, 19, 21, 19, 21, 19]
26.809[18, 24, 33, 21, 21, 20, 21, 18]
26.831[19, 25, 32, 20, 21, 19, 20, 18]
26.848[20, 23, 32, 20, 18, 19, 20, 18]
26.869[22, 26, 32, 19, 18, 18, 19, 17]
26.891[21, 25, 32, 20, 19, 19, 19, 18]
26.908[23, 26, 25, 17, 18, 20, 19, 16]
26.929[21, 26, 24, 18, 18, 20, 18, 18]
26.951[21, 24, 22, 18, 20, 20, 19, 16]
26.968[20, 22, 23, 18, 20, 21, 19, 17]
26.989[19, 24, 23, 19, 20, 19, 18, 16]
27.011[20, 22, 21, 19, 20, 19, 18, 18]
27.028[21, 24, 22, 20, 20, 18, 20, 17]
27.049[21, 25, 22, 19, 21, 16, 19, 18]
27.071[20, 23, 23, 21, 21, 17, 18, 17]
27.088[23, 21, 22, 20, 19, 16, 17, 20]
27.109[22, 21, 23, 21, 19, 16, 18, 19]
27.131[21, 19, 22, 19, 19, 18, 18, 20]
27.148[20, 22, 22, 20, 18, 19, 18, 20]
27.169[22, 23, 22, 21, 19, 19, 18, 22]
27.192[19, 25, 20, 22, 20, 20, 17, 20]
27.209[20, 27, 19, 24, 22, 19, 18, 21]
27.229[20, 27, 20, 24, 22, 19, 18, 20]
27.252[20, 26, 20, 25, 20, 19, 19, 22]
27.274[19, 26, 18, 24, 22, 17, 20, 20]
27.289[19, 26, 20, 23, 21, 19, 21, 20]
27.311[18, 24, 20, 22, 20, 19, 20, 19]
27.334[18, 26, 20, 23, 21, 18, 20, 19]
27.349[19, 22, 22, 20, 22, 19, 19, 17]
27.371[19, 25, 32, 21, 22, 21, 18, 17]
27.394[19, 25, 32, 21, 21, 20, 16, 17]
27.409[19, 25, 34, 19, 22, 20, 18, 17]
27.433[19, 23, 34, 18, 22, 19, 17, 16]
27.455[19, 26, 35, 19, 22, 20, 18, 18]
27.469[19, 24, 31, 19, 22, 19, 20, 19]
27.491[18, 23, 28, 21, 21, 19, 20, 18]
27.514[20, 24, 31, 20, 19, 21, 19, 21]
27.529[19, 27, 35, 24, 21, 23, 18, 22]
27.551[18, 25, 36, 24, 21, 21, 17, 21]
27.574[18, 25, 34, 22, 20, 20, 14, 21]
27.589[19, 26, 40, 20, 22, 20, 15, 22]
27.611[19, 25, 40, 20, 23, 18, 16, 21]
27.634[20, 25, 36, 16, 21, 18, 17, 21]
27.649[21, 23, 38, 16, 21, 16, 18, 20]
27.672[21, 24, 40, 17, 22, 18, 19, 20]
27.694[20, 23, 36, 17, 20, 17, 19, 19]
27.709[21, 27, 33, 18, 20, 19, 19, 17]
27.732[21, 24, 32, 19, 21, 20, 20, 19]
27.754[20, 26, 36, 20, 20, 22, 19, 19]
27.769[21, 24, 35, 23, 19, 22, 19, 18]
27.791[21, 25, 33, 21, 19, 23, 22, 19]
27.814[19, 21, 33, 22, 21, 22, 21, 18]
27.829[18, 21, 41, 22, 22, 23, 22, 15]
27.851[19, 20, 36, 21, 22, 23, 22, 16]
27.874[18, 21, 34, 21, 22, 21, 23, 18]
27.889[19, 22, 39, 23, 22, 21, 21, 17]
27.911[18, 23, 42, 23, 21, 22, 21, 19]
27.934[19, 23, 35, 22, 19, 19, 18, 18]
27.949[18, 24, 33, 21, 18, 20, 18, 18]
27.972[17, 26, 37, 20, 18, 20, 20, 17]
27.994[19, 25, 35, 20, 20, 20, 19, 17]
28.01[20, 24, 35, 20, 21, 21, 20, 16]
28.032[19, 24, 39, 22, 22, 22, 20, 17]
28.054[20, 26, 42, 21, 23, 20, 19, 17]
28.069[22, 25, 40, 21, 23, 22, 18, 18]
28.092[20, 26, 38, 20, 22, 20, 18, 17]
28.114[21, 25, 34, 20, 22, 21, 19, 18]
28.129[22, 26, 40, 20, 22, 20, 19, 20]
28.151[21, 25, 40, 20, 21, 20, 20, 21]
28.174[20, 25, 42, 20, 20, 18, 18, 21]
28.189[19, 24, 46, 20, 21, 18, 18, 21]
28.211[17, 24, 47, 21, 19, 16, 16, 24]
28.234[19, 25, 39, 19, 18, 16, 19, 24]
28.256[21, 25, 35, 19, 19, 15, 18, 24]
28.272[21, 24, 38, 22, 19, 16, 17, 23]
28.294[21, 24, 39, 23, 19, 18, 18, 23]
28.317[22, 28, 37, 22, 20, 20, 19, 20]
28.332[19, 27, 38, 22, 21, 20, 16, 17]
28.354[20, 27, 45, 22, 22, 22, 19, 16]
28.377[20, 26, 41, 19, 23, 21, 20, 17]
28.392[21, 27, 37, 18, 23, 20, 20, 17]
28.414[20, 24, 39, 18, 23, 18, 21, 18]
28.436[20, 24, 47, 16, 20, 20, 23, 19]
28.452[19, 23, 41, 18, 18, 18, 21, 19]
28.474[20, 26, 40, 19, 21, 18, 21, 19]
28.497[21, 25, 46, 21, 20, 21, 21, 20]
28.511[22, 25, 47, 20, 20, 21, 21, 19]
28.534[22, 23, 38, 20, 21, 19, 20, 19]
28.557[21, 26, 35, 20, 23, 20, 19, 21]
28.572[19, 24, 35, 21, 21, 19, 18, 21]
28.594[17, 23, 36, 21, 23, 16, 19, 20]
28.617[15, 23, 35, 21, 23, 15, 18, 21]
28.632[16, 28, 35, 22, 23, 16, 16, 19]
28.655[19, 25, 37, 22, 22, 16, 17, 18]
28.677[20, 26, 39, 22, 22, 17, 18, 19]
28.692[20, 26, 36, 21, 21, 17, 17, 22]
28.715[21, 27, 33, 20, 19, 18, 19, 22]
28.737[20, 24, 38, 20, 20, 18, 21, 23]
28.753[18, 25, 39, 19, 19, 18, 21, 22]
28.774[17, 23, 40, 18, 18, 17, 22, 22]
28.797[17, 25, 38, 16, 20, 18, 23, 19]
28.812[18, 25, 43, 16, 20, 17, 22, 19]
28.835[19, 24, 42, 16, 19, 17, 21, 18]
28.857[18, 23, 44, 17, 20, 18, 21, 18]
28.872[18, 22, 44, 18, 20, 18, 18, 16]
28.894[19, 23, 45, 19, 19, 18, 18, 17]
28.917[18, 21, 41, 19, 19, 17, 17, 17]
28.933[17, 21, 48, 20, 19, 18, 16, 18]
28.954[16, 22, 46, 20, 21, 18, 17, 18]
28.977[18, 24, 44, 21, 20, 18, 18, 19]
28.992[16, 26, 41, 22, 20, 18, 18, 20]
29.014[18, 26, 45, 22, 19, 19, 18, 20]
29.037[18, 26, 37, 23, 21, 19, 18, 19]
29.052[20, 31, 34, 24, 19, 18, 17, 19]
29.074[19, 30, 34, 23, 20, 17, 18, 18]
29.098[21, 27, 34, 23, 20, 17, 15, 17]
29.112[22, 29, 35, 23, 21, 15, 16, 17]
29.134[22, 28, 35, 22, 19, 16, 16, 17]
29.157[22, 23, 36, 20, 20, 17, 16, 18]
29.18[21, 24, 40, 22, 20, 18, 17, 17]
29.194[19, 27, 44, 20, 20, 17, 19, 17]
29.218[18, 25, 37, 20, 19, 18, 19, 16]
29.24[18, 25, 35, 19, 18, 17, 19, 16]
29.254[16, 26, 36, 19, 16, 18, 20, 16]
29.278[17, 26, 35, 19, 15, 18, 20, 16]
29.3[18, 24, 34, 21, 17, 17, 20, 17]
29.314[18, 24, 33, 23, 17, 17, 21, 17]
29.337[17, 23, 31, 23, 18, 19, 22, 18]
29.36[19, 23, 35, 23, 21, 18, 26, 18]
29.374[20, 23, 35, 22, 21, 19, 25, 18]
29.397[19, 21, 31, 20, 20, 19, 25, 16]
29.42[20, 20, 36, 18, 19, 22, 26, 16]
29.434[20, 20, 40, 20, 18, 22, 26, 18]
29.458[20, 23, 36, 20, 15, 21, 21, 20]
29.48[18, 21, 32, 21, 14, 20, 22, 20]
29.495[19, 23, 36, 21, 17, 22, 23, 20]
29.518[19, 23, 35, 20, 17, 19, 23, 21]
29.54[19, 25, 32, 18, 17, 18, 22, 20]
29.554[18, 23, 31, 16, 20, 18, 21, 19]
29.578[18, 22, 38, 14, 21, 18, 20, 19]
29.6[18, 22, 38, 15, 22, 18, 20, 19]
29.614[19, 24, 36, 16, 22, 18, 19, 18]
29.638[19, 23, 37, 19, 23, 18, 19, 17]
29.66[21, 21, 40, 20, 21, 18, 19, 17]
29.675[21, 23, 37, 20, 22, 17, 19, 17]
29.698[23, 23, 36, 19, 19, 16, 20, 15]
29.72[21, 23, 35, 19, 18, 16, 19, 16]
29.735[21, 22, 44, 16, 19, 16, 19, 16]
29.758[20, 24, 41, 18, 18, 16, 20, 15]
29.78[19, 28, 39, 20, 19, 18, 20, 16]
29.794[18, 28, 37, 20, 19, 19, 17, 17]
29.818[19, 28, 44, 21, 20, 20, 17, 16]
29.84[20, 31, 34, 21, 20, 19, 18, 19]
29.87[20, 29, 35, 20, 20, 20, 17, 20]
29.878[21, 25, 37, 19, 18, 19, 18, 19]
29.9[22, 24, 39, 19, 18, 18, 19, 19]
29.914[20, 24, 35, 18, 19, 19, 19, 20]
29.938[20, 22, 33, 18, 19, 20, 19, 17]
29.96[19, 21, 31, 19, 20, 20, 20, 17]
29.975[20, 22, 39, 19, 22, 22, 19, 17]
29.998[17, 22, 37, 20, 24, 22, 21, 17]
30.02[17, 20, 35, 19, 23, 21, 21, 15]
30.035[18, 22, 38, 22, 24, 20, 20, 16]
30.058[21, 22, 41, 22, 23, 19, 21, 15]
30.08[19, 20, 33, 22, 23, 18, 21, 16]
30.094[22, 24, 33, 21, 19, 17, 19, 17]
30.118[23, 26, 32, 22, 18, 17, 20, 16]
30.141[21, 23, 37, 19, 18, 18, 20, 17]
30.163[20, 23, 37, 18, 18, 17, 18, 18]
30.178[20, 25, 35, 19, 19, 17, 19, 18]
30.201[17, 24, 34, 21, 20, 18, 20, 18]
30.223[17, 23, 35, 21, 20, 17, 20, 20]
30.238[19, 26, 36, 25, 19, 16, 20, 20]
30.26[18, 26, 37, 24, 18, 16, 20, 20]
30.283[19, 26, 43, 25, 18, 16, 19, 20]
30.298[20, 26, 44, 24, 19, 15, 17, 20]
30.321[22, 25, 44, 23, 18, 14, 19, 19]
30.343[20, 22, 58, 23, 21, 16, 19, 18]
30.358[22, 26, 93, 27, 22, 17, 19, 17]
30.38[65, 30, 187, 54, 34, 23, 25, 31]
30.403[151, 122, 228, 61, 35, 32, 43, 45]
30.417[200, 148, 246, 63, 41, 43, 84, 89]
30.44[287, 258, 279, 83, 67, 92, 155, 132]
30.463[358, 360, 294, 118, 104, 172, 459, 279]
30.477[515, 508, 282, 182, 149, 231, 555, 397]
30.5[627, 543, 273, 207, 163, 254, 634, 462]
30.523[692, 567, 263, 212, 168, 279, 754, 525]
30.538[721, 544, 242, 216, 181, 301, 816, 548]
30.561[699, 505, 218, 208, 174, 274, 750, 530]
30.583[633, 397, 195, 153, 142, 232, 716, 480]
30.597[543, 341, 175, 125, 131, 210, 698, 473]
30.62[542, 343, 173, 118, 134, 202, 725, 479]
30.643[554, 324, 149, 97, 103, 153, 689, 494]
30.657[556, 309, 144, 82, 89, 145, 634, 461]
30.68[519, 290, 114, 81, 90, 150, 608, 475]
30.703[488, 301, 109, 71, 85, 150, 563, 467]
30.717[397, 253, 98, 71, 71, 111, 347, 455]
30.74[384, 268, 100, 78, 74, 110, 297, 498]
30.763[375, 294, 93, 70, 68, 104, 322, 562]
30.777[382, 286, 83, 61, 53, 86, 322, 553]
30.8[389, 263, 64, 54, 53, 77, 321, 538]
30.823[382, 254, 64, 49, 54, 90, 359, 492]
30.838[269, 242, 59, 38, 49, 84, 370, 435]
30.86[279, 215, 68, 39, 48, 77, 371, 374]
30.883[264, 199, 74, 36, 47, 77, 366, 379]
30.897[243, 206, 77, 40, 45, 78, 362, 385]
30.92[259, 228, 82, 45, 48, 71, 325, 390]
30.943[257, 221, 83, 48, 56, 82, 291, 366]
30.957[254, 259, 84, 51, 56, 84, 264, 431]
30.98[285, 253, 80, 56, 55, 92, 301, 447]
31.003[287, 260, 76, 52, 56, 96, 300, 426]
31.018[274, 247, 69, 48, 50, 89, 306, 416]
31.04[288, 262, 75, 48, 45, 80, 331, 482]
31.063[272, 195, 72, 46, 50, 79, 323, 424]
31.085[245, 211, 75, 42, 53, 67, 289, 366]
31.101[284, 194, 76, 42, 51, 56, 293, 371]
31.123[276, 193, 75, 41, 51, 60, 275, 417]
31.145[248, 173, 73, 38, 51, 63, 212, 351]
31.161[279, 175, 67, 35, 46, 59, 209, 331]
31.183[292, 150, 60, 35, 41, 60, 186, 366]
31.206[291, 174, 62, 36, 42, 63, 190, 439]
31.22[289, 173, 65, 37, 41, 57, 196, 396]
31.242[299, 208, 90, 37, 36, 49, 195, 390]
31.264[279, 210, 89, 40, 36, 52, 207, 407]
31.281[279, 220, 91, 40, 37, 55, 219, 383]
31.302[266, 198, 88, 44, 38, 52, 198, 331]
31.324[258, 194, 88, 42, 35, 52, 206, 363]
31.342[265, 150, 55, 43, 42, 62, 217, 354]
31.362[268, 152, 59, 46, 43, 59, 219, 367]
31.385[246, 150, 63, 45, 43, 60, 208, 372]
31.401[238, 144, 62, 37, 42, 63, 216, 343]
31.422[243, 167, 62, 38, 43, 64, 197, 302]
31.444[228, 160, 62, 40, 42, 57, 194, 367]
31.461[237, 156, 56, 34, 42, 61, 167, 350]
31.482[239, 216, 68, 38, 41, 56, 193, 360]
31.504[230, 227, 70, 38, 40, 57, 180, 354]
31.521[263, 218, 72, 40, 42, 58, 197, 425]
31.543[273, 218, 71, 39, 39, 58, 194, 375]
31.565[263, 219, 79, 39, 37, 52, 235, 395]
31.581[283, 146, 68, 38, 40, 51, 214, 382]
31.603[281, 142, 71, 39, 39, 47, 230, 413]
31.625[281, 134, 67, 39, 39, 51, 212, 356]
31.641[360, 138, 72, 39, 41, 58, 224, 388]
31.662[358, 125, 64, 41, 41, 64, 225, 368]
31.685[365, 130, 57, 44, 43, 70, 241, 404]
31.701[380, 129, 54, 44, 45, 77, 252, 376]
31.722[377, 136, 54, 44, 44, 74, 265, 449]
31.745[297, 147, 47, 47, 44, 71, 277, 433]
31.761[301, 175, 49, 46, 42, 65, 244, 435]
31.782[290, 189, 55, 45, 38, 60, 252, 421]
31.804[269, 193, 55, 44, 35, 50, 241, 467]
31.827[237, 206, 56, 45, 36, 50, 238, 408]
31.842[238, 197, 56, 37, 32, 48, 232, 447]
31.865[226, 186, 63, 42, 40, 58, 246, 452]
31.881[195, 187, 62, 40, 43, 61, 230, 443]
31.902[206, 203, 60, 39, 46, 65, 237, 406]
31.925[222, 192, 58, 36, 46, 65, 240, 416]
31.941[228, 198, 66, 41, 48, 64, 244, 366]
31.962[275, 186, 61, 35, 42, 57, 233, 381]
31.992[331, 162, 58, 37, 39, 53, 251, 399]
32.007[337, 140, 57, 39, 43, 51, 223, 423]
32.023[346, 149, 62, 43, 43, 47, 208, 397]
32.045[352, 134, 51, 42, 46, 51, 176, 411]
32.067[326, 140, 51, 46, 47, 47, 174, 412]
32.082[268, 158, 56, 42, 47, 51, 177, 437]
32.105[255, 162, 54, 42, 43, 48, 180, 422]
32.127[236, 144, 49, 42, 47, 56, 185, 468]
32.143[221, 152, 54, 41, 41, 50, 211, 438]
32.165[230, 148, 54, 39, 40, 50, 209, 410]
32.195[223, 130, 53, 39, 41, 49, 168, 478]
32.203[216, 122, 57, 43, 44, 51, 188, 523]
32.225[224, 124, 58, 39, 42, 45, 187, 500]
32.247[231, 110, 54, 38, 41, 48, 173, 562]
32.263[210, 105, 56, 41, 43, 48, 173, 562]
32.285[235, 122, 53, 44, 44, 46, 174, 461]
32.308[257, 117, 51, 41, 39, 45, 157, 398]
32.323[252, 149, 55, 42, 38, 43, 142, 437]
32.345[237, 155, 55, 45, 40, 41, 165, 386]
32.367[256, 179, 51, 40, 40, 44, 161, 400]
32.382[269, 173, 48, 38, 38, 44, 163, 401]
32.405[249, 168, 49, 37, 38, 43, 181, 384]
32.427[249, 136, 43, 37, 38, 45, 198, 397]
32.443[273, 139, 46, 37, 40, 59, 201, 517]
32.465[267, 108, 47, 39, 40, 58, 206, 518]
32.487[238, 109, 51, 42, 42, 61, 205, 536]
32.503[245, 115, 50, 44, 42, 58, 207, 534]
32.525[293, 129, 52, 46, 45, 61, 198, 466]
32.549[273, 140, 58, 45, 43, 48, 185, 310]
32.562[271, 146, 63, 43, 44, 52, 194, 321]
32.585[343, 159, 71, 40, 41, 50, 206, 307]
32.608[355, 160, 72, 37, 40, 50, 217, 363]
32.622[316, 145, 71, 34, 36, 48, 210, 373]
32.645[329, 131, 65, 33, 34, 47, 196, 396]
32.667[333, 136, 61, 35, 34, 44, 190, 398]
32.683[278, 125, 47, 35, 38, 50, 183, 422]
32.705[268, 128, 50, 39, 40, 54, 161, 381]
32.727[265, 136, 54, 39, 38, 55, 169, 370]
32.743[268, 141, 60, 40, 41, 64, 166, 359]
32.765[259, 139, 62, 44, 42, 62, 161, 399]
32.787[292, 126, 63, 44, 40, 62, 161, 367]
32.802[285, 123, 60, 42, 41, 62, 165, 396]
32.825[311, 121, 56, 40, 40, 62, 192, 461]
32.856[315, 129, 50, 40, 39, 52, 194, 442]
32.862[308, 131, 46, 36, 38, 56, 207, 442]
32.885[266, 176, 59, 35, 37, 62, 235, 459]
32.916[262, 183, 61, 33, 33, 61, 268, 444]
32.922[228, 190, 66, 37, 37, 67, 264, 438]
32.945[216, 185, 64, 36, 35, 66, 258, 458]
32.967[207, 181, 69, 39, 37, 68, 249, 422]
32.99[235, 139, 58, 41, 38, 60, 217, 395]
33.005[243, 128, 62, 43, 42, 66, 164, 426]
33.027[232, 108, 57, 41, 39, 58, 140, 376]
33.05[237, 120, 68, 45, 40, 60, 146, 399]
33.065[260, 116, 65, 44, 39, 57, 144, 379]
33.087[230, 121, 68, 43, 40, 60, 171, 422]
33.11[283, 115, 68, 46, 39, 62, 186, 384]
33.125[307, 134, 77, 46, 39, 62, 193, 439]
33.147[301, 122, 73, 43, 41, 62, 185, 389]
33.17[286, 133, 74, 41, 41, 59, 184, 418]
33.185[285, 134, 71, 43, 41, 61, 192, 387]
33.207[269, 135, 65, 38, 38, 51, 215, 393]
33.23[264, 125, 57, 40, 39, 56, 204, 353]
33.245[265, 117, 49, 40, 39, 57, 208, 369]
33.267[277, 114, 51, 40, 39, 59, 204, 320]
33.29[276, 113, 60, 41, 35, 54, 210, 308]
33.305[245, 129, 61, 41, 35, 54, 167, 305]
33.328[244, 145, 61, 39, 34, 53, 175, 316]
33.35[237, 154, 64, 38, 37, 57, 241, 336]
33.365[259, 158, 60, 36, 38, 59, 266, 339]
33.387[283, 171, 68, 44, 41, 67, 241, 383]
33.41[280, 165, 68, 46, 41, 66, 244, 381]
33.425[279, 170, 67, 46, 40, 64, 247, 355]
33.448[293, 166, 64, 48, 37, 60, 187, 353]
33.47[288, 167, 67, 49, 40, 58, 175, 452]
33.485[284, 152, 47, 40, 37, 45, 167, 410]
33.507[311, 150, 48, 39, 43, 67, 169, 434]
33.53[296, 128, 48, 38, 42, 73, 166, 446]
33.545[280, 132, 49, 38, 40, 72, 156, 424]
33.568[337, 144, 47, 37, 37, 75, 163, 375]
33.59[339, 147, 59, 40, 38, 77, 182, 471]
33.605[336, 144, 58, 41, 35, 64, 187, 491]
33.628[340, 146, 57, 40, 37, 55, 171, 480]
33.65[372, 143, 58, 37, 37, 59, 197, 477]
33.665[296, 127, 60, 38, 42, 60, 193, 463]
33.688[286, 117, 55, 38, 43, 62, 181, 367]
33.711[281, 121, 53, 35, 42, 59, 166, 304]
33.725[273, 116, 54, 39, 41, 60, 180, 281]
33.748[261, 128, 61, 38, 41, 58, 182, 410]
33.77[279, 115, 56, 36, 34, 53, 166, 376]
33.785[308, 119, 51, 34, 33, 50, 168, 409]
33.808[283, 111, 55, 35, 35, 50, 184, 440]
33.831[297, 105, 52, 31, 34, 51, 182, 485]
33.845[254, 91, 46, 30, 35, 47, 164, 387]
33.868[234, 100, 50, 30, 36, 48, 161, 394]
33.89[278, 101, 51, 33, 40, 50, 163, 451]
33.913[289, 119, 52, 33, 40, 50, 151, 463]
33.928[281, 137, 56, 34, 40, 57, 145, 445]
33.95[285, 138, 61, 33, 37, 68, 138, 439]
33.973[311, 132, 58, 34, 38, 70, 130, 430]
33.987[261, 140, 61, 35, 35, 69, 133, 338]
34.01[266, 128, 62, 34, 35, 72, 145, 290]
34.034[320, 134, 64, 34, 38, 67, 152, 262]
34.048[347, 127, 58, 36, 39, 68, 165, 293]
34.07[340, 129, 58, 37, 39, 69, 171, 321]
34.093[343, 124, 53, 32, 37, 67, 167, 326]
34.108[351, 127, 53, 33, 38, 65, 155, 399]
34.13[307, 114, 52, 34, 35, 63, 177, 415]
34.154[304, 142, 54, 34, 36, 52, 172, 395]
34.168[299, 143, 57, 33, 35, 50, 167, 370]
34.191[258, 148, 63, 34, 36, 57, 182, 450]
34.213[290, 146, 59, 32, 34, 58, 195, 423]
34.228[279, 153, 55, 33, 37, 57, 168, 399]
34.25[256, 134, 58, 32, 37, 58, 170, 431]
34.274[270, 136, 56, 32, 36, 55, 164, 428]
34.288[314, 126, 50, 31, 37, 51, 146, 370]
34.31[273, 134, 50, 34, 36, 46, 124, 331]
34.333[273, 124, 56, 31, 33, 45, 118, 371]
34.348[313, 118, 51, 35, 33, 42, 101, 364]
34.37[292, 109, 48, 38, 33, 42, 107, 423]
34.394[256, 131, 49, 42, 33, 41, 118, 407]
34.408[268, 126, 49, 43, 33, 46, 113, 388]
34.43[292, 166, 49, 43, 32, 49, 131, 386]
34.453[250, 173, 50, 41, 33, 49, 160, 425]
34.468[266, 183, 52, 41, 34, 49, 185, 370]
34.49[287, 169, 53, 38, 33, 46, 181, 344]
34.514[256, 165, 57, 36, 33, 47, 185, 349]
34.528[240, 121, 58, 39, 33, 43, 184, 312]
34.55[236, 110, 61, 44, 33, 48, 200, 245]
34.581[236, 108, 63, 43, 33, 49, 190, 266]
34.588[245, 106, 63, 41, 35, 48, 181, 269]
34.61[248, 135, 62, 40, 35, 42, 186, 280]
34.634[256, 135, 57, 39, 37, 44, 189, 322]
34.648[289, 170, 56, 33, 37, 43, 160, 317]
34.671[303, 172, 56, 31, 37, 42, 151, 307]
34.693[277, 174, 54, 31, 37, 44, 167, 333]
34.708[322, 155, 53, 32, 37, 47, 160, 326]
34.731[350, 165, 51, 31, 34, 47, 149, 352]
34.753[319, 133, 49, 32, 33, 47, 135, 336]
34.768[325, 138, 48, 32, 33, 57, 154, 373]
34.791[332, 135, 52, 33, 31, 55, 143, 356]
34.814[285, 137, 54, 36, 31, 52, 141, 379]
34.828[255, 132, 58, 36, 32, 53, 135, 349]
34.851[273, 128, 55, 34, 33, 51, 154, 385]
34.873[232, 111, 55, 34, 35, 44, 132, 366]
34.896[242, 114, 57, 35, 35, 47, 139, 371]
34.911[248, 128, 57, 35, 35, 49, 165, 382]
34.933[237, 115, 54, 37, 36, 53, 173, 358]
34.956[234, 117, 59, 38, 36, 53, 165, 329]
34.971[229, 137, 74, 41, 38, 57, 168, 320]
34.994[194, 148, 77, 43, 43, 58, 165, 352]
35.016[201, 134, 73, 43, 47, 60, 144, 311]
35.031[198, 149, 74, 42, 48, 58, 151, 310]
35.053[182, 157, 71, 41, 46, 54, 159, 316]
35.076[202, 149, 55, 38, 43, 51, 158, 314]
35.091[255, 135, 44, 33, 36, 48, 164, 267]
35.113[245, 132, 46, 29, 33, 47, 172, 278]
35.136[286, 123, 41, 31, 33, 45, 193, 291]
35.151[302, 149, 45, 31, 33, 48, 181, 289]
35.174[308, 146, 49, 37, 40, 52, 192, 320]
35.196[284, 149, 49, 39, 41, 51, 184, 326]
35.211[293, 158, 53, 40, 43, 52, 188, 337]
35.233[242, 158, 56, 42, 43, 52, 149, 316]
35.256[244, 122, 56, 42, 45, 50, 158, 352]
35.271[250, 113, 50, 36, 36, 40, 149, 310]
35.294[239, 115, 55, 39, 43, 48, 155, 324]
35.316[269, 108, 51, 40, 40, 44, 137, 335]
35.331[288, 124, 63, 43, 38, 45, 152, 336]
35.354[283, 128, 59, 43, 38, 45, 155, 289]
35.376[297, 136, 61, 45, 40, 48, 152, 339]
35.391[308, 129, 58, 41, 34, 38, 143, 378]
35.413[274, 129, 59, 41, 31, 37, 145, 356]
35.436[266, 104, 46, 34, 32, 40, 137, 359]
35.45[269, 93, 47, 31, 31, 38, 125, 370]
35.474[255, 85, 47, 31, 31, 40, 127, 350]
35.496[238, 100, 51, 32, 35, 44, 135, 311]
35.51[270, 107, 54, 32, 36, 46, 134, 315]
35.534[269, 106, 49, 36, 33, 44, 136, 323]
35.556[248, 116, 52, 36, 34, 46, 125, 307]
35.57[273, 119, 53, 35, 32, 44, 152, 370]
35.594[285, 125, 55, 41, 33, 45, 146, 361]
35.616[255, 124, 51, 39, 35, 48, 153, 351]
35.63[282, 137, 57, 37, 36, 46, 155, 358]
35.654[325, 143, 66, 40, 36, 43, 169, 368]
35.676[301, 147, 69, 44, 38, 45, 147, 408]
35.691[305, 131, 64, 37, 36, 49, 162, 409]
35.714[305, 124, 68, 41, 35, 46, 169, 413]
35.736[277, 126, 69, 40, 34, 44, 164, 415]
35.75[257, 115, 59, 45, 40, 48, 163, 437]
35.774[279, 119, 56, 45, 40, 47, 169, 380]
35.796[256, 121, 55, 45, 38, 38, 164, 372]
35.819[254, 131, 57, 42, 39, 40, 150, 367]
35.834[287, 121, 50, 43, 39, 43, 162, 379]
35.856[285, 119, 49, 37, 33, 42, 155, 332]
35.879[243, 110, 52, 31, 31, 43, 152, 365]
35.894[293, 128, 60, 35, 34, 42, 130, 362]
35.916[303, 131, 59, 37, 32, 41, 142, 371]
35.939[313, 125, 61, 36, 33, 43, 121, 352]
35.954[307, 135, 61, 36, 35, 47, 131, 406]
35.976[331, 130, 59, 37, 36, 46, 115, 336]
35.999[292, 114, 51, 37, 34, 48, 120, 335]
36.014[286, 109, 46, 36, 34, 46, 114, 331]
36.036[243, 134, 49, 36, 34, 42, 129, 347]
36.066[272, 138, 52, 37, 34, 38, 127, 301]
36.074[267, 146, 50, 35, 34, 35, 135, 288]
36.096[266, 145, 52, 35, 33, 32, 140, 331]
36.119[262, 146, 52, 33, 33, 33, 142, 320]
36.134[277, 127, 50, 35, 33, 34, 131, 328]
36.156[268, 110, 49, 37, 32, 36, 121, 320]
36.179[242, 112, 49, 40, 33, 39, 140, 328]
36.194[264, 124, 52, 39, 33, 38, 137, 325]
36.216[268, 121, 55, 40, 36, 38, 131, 330]
36.239[245, 132, 69, 37, 36, 38, 136, 357]
36.254[266, 151, 73, 35, 37, 39, 187, 367]
36.277[341, 148, 74, 32, 36, 41, 184, 417]
36.298[322, 141, 73, 33, 38, 49, 182, 391]
36.314[325, 148, 74, 34, 35, 50, 189, 406]
36.337[338, 135, 60, 37, 34, 51, 205, 356]
36.358[315, 114, 53, 36, 31, 51, 165, 347]
36.374[257, 112, 49, 37, 33, 49, 161, 276]
36.397[262, 117, 47, 38, 35, 46, 168, 351]
36.418[265, 106, 43, 36, 36, 47, 166, 333]
36.435[274, 114, 46, 33, 34, 46, 158, 337]
36.463[269, 122, 46, 35, 36, 46, 164, 357]
36.478[274, 114, 48, 35, 35, 46, 155, 384]
36.494[290, 119, 48, 34, 33, 43, 163, 320]
36.523[291, 120, 48, 37, 34, 42, 156, 330]
36.538[290, 120, 51, 39, 36, 40, 154, 338]
36.554[285, 120, 51, 40, 36, 38, 168, 329]
36.577[278, 126, 54, 40, 33, 36, 166, 291]
36.598[251, 128, 58, 41, 36, 42, 153, 378]
36.615[249, 126, 56, 39, 34, 40, 155, 390]
36.635[218, 126, 52, 37, 34, 41, 151, 401]
36.658[256, 122, 49, 34, 30, 39, 117, 385]
36.674[250, 126, 44, 37, 35, 46, 137, 387]
36.695[263, 119, 52, 39, 36, 47, 153, 388]
36.719[296, 113, 51, 40, 36, 49, 151, 385]
36.736[299, 109, 50, 42, 37, 49, 136, 347]
36.755[253, 104, 54, 41, 40, 53, 165, 372]
36.778[255, 97, 55, 40, 38, 50, 240, 382]
36.801[248, 100, 45, 36, 35, 45, 240, 363]
36.815[208, 109, 47, 37, 35, 46, 261, 376]
36.838[223, 110, 57, 34, 35, 46, 263, 455]
36.86[235, 110, 59, 35, 34, 43, 252, 450]
36.875[244, 115, 66, 39, 39, 46, 179, 456]
36.898[278, 119, 69, 38, 39, 45, 179, 458]
36.92[289, 113, 69, 40, 42, 45, 163, 460]
36.936[302, 113, 65, 41, 43, 46, 169, 400]
36.958[286, 116, 73, 52, 47, 46, 165, 388]
36.981[281, 112, 66, 51, 43, 40, 152, 361]
36.996[250, 117, 63, 51, 43, 48, 182, 332]
37.018[233, 127, 61, 50, 38, 45, 173, 316]
37.042[219, 128, 62, 49, 37, 46, 174, 316]
37.055[220, 132, 53, 36, 31, 43, 176, 319]
37.078[208, 148, 57, 35, 31, 44, 186, 345]
37.101[219, 154, 57, 37, 30, 37, 147, 292]
37.116[222, 152, 60, 37, 31, 36, 137, 351]
37.138[212, 157, 58, 39, 30, 38, 137, 349]
37.161[218, 151, 53, 37, 30, 39, 141, 347]
37.175[229, 135, 50, 38, 27, 38, 146, 345]
37.198[219, 115, 50, 35, 31, 41, 146, 369]
37.221[201, 119, 53, 36, 29, 42, 150, 301]
37.236[188, 109, 48, 33, 28, 37, 136, 283]
37.259[207, 114, 48, 36, 32, 40, 132, 266]
37.281[209, 110, 43, 34, 32, 43, 107, 269]
37.296[234, 106, 72, 67, 36, 40, 92, 267]
37.318[268, 106, 79, 70, 35, 40, 109, 244]
37.341[271, 116, 78, 72, 36, 47, 117, 282]
37.356[287, 126, 79, 72, 34, 45, 124, 313]
37.378[280, 133, 84, 73, 37, 47, 136, 341]
37.401[249, 139, 61, 48, 30, 46, 163, 330]
37.416[228, 138, 54, 48, 33, 48, 156, 347]
37.438[243, 139, 55, 46, 34, 45, 152, 335]
37.461[234, 137, 55, 46, 34, 54, 201, 312]
37.476[232, 135, 56, 45, 34, 50, 200, 303]
37.498[243, 138, 61, 42, 35, 54, 194, 316]
37.521[254, 134, 53, 35, 32, 51, 199, 350]
37.536[240, 125, 54, 34, 32, 52, 215, 358]
37.558[203, 120, 58, 33, 32, 43, 158, 355]
37.581[201, 125, 53, 33, 31, 46, 156, 322]
37.596[197, 119, 55, 31, 29, 42, 150, 375]
37.618[186, 117, 55, 31, 32, 54, 160, 332]
37.641[202, 141, 55, 30, 34, 51, 137, 321]
37.656[209, 138, 55, 34, 33, 50, 146, 320]
37.679[262, 135, 54, 31, 33, 48, 151, 318]
37.701[255, 135, 51, 37, 36, 49, 140, 237]
37.724[278, 133, 55, 38, 34, 41, 114, 247]
37.739[271, 118, 57, 39, 33, 43, 132, 257]
37.761[292, 116, 52, 36, 33, 41, 134, 263]
37.783[270, 119, 52, 40, 32, 39, 155, 270]
37.798[274, 123, 58, 39, 33, 39, 189, 359]
37.821[264, 130, 57, 40, 33, 35, 187, 369]
37.844[287, 117, 56, 43, 34, 36, 176, 361]
37.858[268, 127, 64, 48, 34, 39, 176, 375]
37.881[239, 115, 64, 46, 36, 43, 157, 363]
37.903[243, 116, 57, 43, 34, 44, 116, 258]
37.918[232, 127, 59, 44, 36, 51, 142, 285]
37.941[219, 151, 64, 42, 35, 53, 154, 319]
37.963[211, 150, 55, 37, 36, 52, 147, 309]
37.978[209, 164, 58, 33, 34, 49, 157, 367]
38.001[209, 159, 54, 37, 34, 47, 172, 392]
38.023[212, 167, 59, 36, 31, 42, 160, 353]
38.039[215, 146, 58, 38, 32, 40, 146, 320]
38.061[212, 148, 70, 38, 33, 41, 183, 311]
38.083[214, 142, 68, 42, 34, 43, 193, 259]
38.098[220, 146, 69, 38, 32, 43, 185, 238]
38.121[194, 122, 64, 36, 32, 47, 182, 247]
38.143[156, 136, 65, 33, 33, 46, 190, 285]
38.158[172, 122, 53, 34, 31, 44, 155, 329]
38.181[260, 116, 57, 31, 32, 44, 156, 323]
38.203[251, 109, 53, 31, 31, 41, 166, 336]
38.219[274, 114, 55, 34, 33, 36, 169, 388]
38.241[309, 113, 56, 36, 30, 33, 171, 375]
38.272[324, 119, 59, 36, 30, 34, 172, 355]
38.279[257, 118, 56, 37, 29, 33, 151, 354]
38.301[263, 124, 60, 40, 29, 35, 135, 348]
38.323[262, 125, 58, 38, 29, 41, 125, 289]
38.338[227, 125, 51, 36, 28, 43, 112, 273]
38.361[232, 129, 52, 38, 26, 41, 114, 258]
38.383[280, 126, 50, 37, 29, 45, 111, 295]
38.399[278, 128, 47, 36, 30, 47, 109, 285]
38.421[270, 129, 55, 37, 29, 43, 126, 269]
38.444[347, 116, 55, 37, 29, 41, 151, 335]
38.459[369, 113, 53, 36, 29, 41, 157, 344]
38.481[333, 116, 54, 37, 29, 37, 150, 296]
38.503[328, 111, 55, 37, 30, 38, 153, 295]
38.519[323, 102, 46, 37, 30, 38, 140, 296]
38.541[258, 123, 61, 40, 31, 40, 114, 196]
38.563[197, 119, 61, 37, 31, 42, 138, 202]
38.579[222, 120, 60, 36, 30, 41, 146, 236]
38.601[226, 137, 66, 34, 29, 39, 145, 229]
38.624[263, 151, 72, 32, 30, 41, 167, 258]
38.654[291, 135, 57, 27, 28, 39, 179, 270]
38.661[298, 139, 57, 26, 32, 39, 160, 261]
38.683[284, 146, 60, 29, 35, 39, 160, 272]
38.706[284, 136, 63, 30, 35, 38, 170, 264]
38.721[265, 123, 56, 30, 34, 40, 158, 245]
38.743[231, 134, 57, 33, 35, 43, 144, 238]
38.767[221, 132, 57, 35, 33, 42, 142, 259]
38.781[250, 128, 60, 34, 29, 42, 139, 236]
38.803[311, 120, 53, 35, 28, 43, 141, 240]
38.827[297, 137, 54, 36, 30, 45, 159, 248]
38.841[284, 122, 56, 33, 31, 44, 157, 236]
38.864[290, 129, 57, 35, 30, 43, 152, 208]
38.887[302, 135, 52, 40, 30, 47, 167, 209]
38.901[254, 136, 58, 42, 34, 50, 162, 219]
38.932[254, 153, 55, 40, 30, 47, 139, 205]
38.947[245, 164, 56, 42, 31, 44, 140, 211]
38.961[229, 165, 53, 39, 31, 45, 136, 185]
38.983[180, 156, 55, 37, 32, 40, 135, 174]
39.007[174, 166, 52, 36, 30, 46, 140, 226]
39.021[194, 153, 53, 37, 33, 44, 143, 258]
39.044[206, 141, 52, 35, 34, 45, 145, 279]
39.067[243, 144, 58, 37, 36, 43, 176, 291]
39.082[246, 151, 57, 35, 37, 48, 178, 297]
39.103[241, 149, 52, 34, 36, 40, 171, 309]
39.127[251, 131, 51, 32, 34, 39, 169, 329]
39.142[253, 135, 53, 35, 32, 41, 169, 312]
39.164[263, 121, 45, 36, 31, 45, 161, 321]
39.187[317, 149, 55, 34, 29, 45, 187, 317]
39.201[374, 147, 58, 37, 28, 43, 196, 297]
39.224[370, 146, 58, 40, 29, 43, 194, 250]
39.247[363, 144, 56, 37, 27, 40, 191, 257]
39.261[347, 154, 59, 37, 22, 40, 190, 278]
39.283[339, 126, 48, 38, 27, 37, 155, 282]
39.307[296, 115, 47, 33, 26, 38, 162, 320]
39.321[273, 122, 49, 31, 26, 44, 208, 341]
39.343[316, 118, 51, 31, 28, 50, 209, 347]
39.367[298, 109, 64, 29, 29, 47, 200, 345]
39.381[242, 104, 70, 29, 26, 59, 196, 343]
39.403[200, 110, 85, 31, 27, 79, 181, 262]
39.427[220, 107, 140, 43, 29, 90, 133, 228]
39.441[183, 109, 145, 44, 29, 92, 132, 205]
39.463[190, 96, 144, 44, 29, 92, 118, 148]
39.487[184, 88, 204, 55, 29, 84, 109, 103]
39.501[175, 77, 219, 62, 28, 67, 88, 94]
39.523[143, 57, 208, 58, 28, 50, 69, 79]
39.547[122, 52, 206, 57, 27, 43, 59, 68]
39.561[105, 52, 208, 57, 25, 44, 57, 64]
39.583[144, 56, 243, 51, 26, 44, 54, 73]
39.607[159, 49, 272, 56, 29, 49, 54, 74]
39.629[164, 45, 293, 69, 30, 45, 47, 71]
39.643[143, 53, 328, 105, 37, 42, 46, 74]
39.667[154, 55, 369, 124, 38, 40, 42, 85]
39.69[127, 52, 346, 156, 41, 39, 43, 75]
39.703[154, 58, 351, 172, 47, 36, 46, 149]
39.727[152, 63, 343, 169, 48, 35, 45, 153]
39.749[156, 62, 336, 179, 50, 38, 45, 152]
39.764[143, 65, 354, 191, 58, 38, 47, 150]
39.787[144, 73, 370, 193, 64, 39, 47, 154]
39.809[112, 77, 363, 184, 61, 31, 37, 84]
39.824[111, 72, 363, 183, 58, 32, 35, 80]
39.854[106, 71, 353, 168, 56, 30, 33, 76]
39.869[102, 75, 330, 159, 48, 29, 26, 61]
39.884[83, 64, 281, 124, 35, 25, 21, 49]
39.908[50, 54, 295, 115, 32, 24, 20, 43]
39.929[41, 55, 284, 117, 33, 22, 20, 32]
39.944[34, 53, 282, 102, 26, 19, 19, 32]
39.967[31, 40, 228, 68, 24, 20, 20, 46]
39.989[109, 41, 229, 70, 25, 20, 21, 57]
40.004[114, 42, 264, 79, 25, 20, 19, 59]
40.027[116, 37, 262, 72, 23, 23, 19, 59]
40.049[117, 32, 250, 92, 25, 23, 21, 58]
40.064[117, 34, 259, 107, 25, 22, 21, 48]
40.087[54, 31, 263, 105, 24, 23, 19, 31]
40.109[44, 26, 195, 94, 23, 24, 19, 26]
40.123[38, 28, 178, 95, 23, 22, 20, 25]
40.147[32, 32, 207, 74, 22, 22, 19, 24]
40.169[30, 43, 301, 74, 26, 22, 20, 20]
40.184[25, 44, 324, 81, 26, 22, 21, 21]
40.207[23, 41, 299, 80, 25, 22, 21, 21]
40.229[23, 41, 309, 80, 26, 22, 19, 22]
40.244[23, 38, 293, 76, 25, 22, 19, 22]
40.267[23, 25, 215, 73, 24, 21, 18, 20]
40.289[22, 24, 174, 69, 23, 20, 16, 21]
40.303[24, 25, 175, 67, 26, 20, 17, 19]
40.327[51, 24, 169, 66, 25, 19, 19, 28]
40.349[61, 27, 171, 66, 25, 18, 20, 31]
40.364[62, 23, 131, 38, 22, 18, 20, 31]
40.387[62, 24, 130, 35, 24, 19, 20, 31]
40.409[63, 24, 141, 52, 21, 17, 20, 32]
40.423[45, 27, 123, 54, 21, 18, 20, 24]
40.447[31, 25, 103, 53, 21, 18, 18, 20]
40.47[28, 26, 97, 55, 19, 18, 20, 20]
40.484[26, 24, 111, 61, 17, 17, 21, 20]
40.507[24, 25, 99, 45, 17, 18, 20, 18]
40.53[22, 23, 118, 41, 18, 17, 19, 19]
40.553[21, 20, 118, 45, 17, 17, 20, 18]
40.567[19, 20, 123, 46, 18, 16, 18, 19]
40.589[20, 21, 103, 35, 19, 16, 18, 16]
40.612[19, 20, 96, 36, 19, 17, 19, 17]
40.627[19, 19, 70, 38, 19, 18, 19, 17]
40.65[18, 21, 76, 32, 22, 18, 18, 17]
40.672[18, 20, 71, 30, 22, 20, 19, 15]
40.687[17, 21, 72, 35, 21, 20, 20, 17]
40.709[19, 20, 70, 32, 23, 20, 20, 17]
40.732[18, 20, 77, 30, 24, 20, 20, 15]
40.747[21, 20, 77, 31, 22, 20, 19, 17]
40.769[22, 21, 70, 29, 21, 20, 19, 16]
40.792[21, 21, 70, 25, 22, 21, 20, 16]
40.807[20, 19, 86, 27, 20, 21, 21, 19]
40.83[20, 21, 81, 29, 18, 23, 21, 18]
40.852[18, 21, 76, 33, 18, 22, 22, 18]
40.867[17, 21, 78, 31, 19, 22, 22, 19]
40.889[19, 20, 84, 31, 18, 19, 20, 20]
40.912[18, 22, 69, 30, 19, 19, 19, 17]
40.927[20, 22, 68, 31, 19, 15, 19, 18]
40.95[18, 23, 84, 31, 20, 15, 18, 18]
40.972[20, 24, 83, 33, 22, 16, 17, 17]
40.987[20, 24, 74, 31, 20, 15, 17, 16]
41.009[20, 23, 75, 32, 22, 16, 17, 18]
41.032[20, 23, 69, 28, 25, 17, 17, 19]
41.046[20, 21, 62, 27, 24, 17, 19, 19]
41.07[20, 22, 60, 30, 25, 16, 18, 19]
41.092[19, 22, 60, 30, 26, 16, 19, 19]
41.107[21, 22, 60, 30, 24, 19, 17, 18]
41.13[20, 21, 73, 37, 21, 19, 18, 18]
41.152[22, 20, 63, 36, 22, 19, 17, 19]
41.167[21, 21, 63, 32, 21, 20, 19, 20]
41.189[21, 24, 63, 31, 22, 20, 21, 22]
41.212[19, 25, 60, 31, 22, 17, 22, 21]
41.226[18, 24, 66, 29, 22, 18, 22, 20]
41.25[19, 26, 66, 28, 22, 18, 22, 18]
41.271[19, 23, 69, 29, 21, 20, 21, 19]
41.295[19, 21, 70, 29, 20, 21, 19, 19]
41.31[19, 20, 66, 33, 21, 23, 20, 18]
41.331[18, 21, 55, 28, 22, 23, 19, 18]
41.354[18, 21, 65, 26, 25, 23, 20, 19]
41.37[17, 20, 63, 28, 24, 21, 20, 18]
41.391[17, 20, 61, 31, 23, 20, 22, 15]
41.414[19, 20, 62, 29, 23, 19, 20, 15]
41.43[18, 17, 64, 28, 22, 19, 20, 17]
41.451[17, 15, 61, 28, 17, 19, 19, 17]
41.474[17, 18, 63, 27, 20, 19, 19, 17]
41.49[16, 18, 62, 27, 21, 19, 18, 19]
41.511[15, 18, 62, 26, 23, 20, 21, 21]
41.534[16, 18, 54, 26, 23, 21, 23, 19]
41.55[15, 20, 43, 27, 24, 21, 24, 19]
41.571[17, 20, 37, 27, 22, 20, 22, 19]
41.594[20, 20, 38, 27, 23, 20, 24, 21]
41.61[19, 20, 40, 26, 21, 19, 21, 19]
41.633[18, 21, 37, 25, 22, 20, 20, 22]
41.654[19, 21, 35, 24, 21, 20, 21, 23]
41.67[19, 20, 35, 25, 20, 21, 22, 23]
41.692[19, 20, 33, 19, 22, 20, 21, 21]
41.714[19, 20, 38, 18, 21, 20, 22, 21]
41.73[21, 21, 35, 20, 19, 18, 22, 20]
41.751[20, 20, 33, 20, 19, 19, 18, 18]
41.774[18, 20, 34, 20, 21, 19, 19, 19]
41.798[17, 19, 39, 20, 20, 20, 18, 20]
41.811[18, 20, 33, 21, 21, 20, 18, 20]
41.834[18, 17, 33, 21, 21, 20, 18, 20]
41.851[20, 18, 34, 20, 21, 20, 18, 21]
41.871[21, 17, 43, 20, 23, 19, 19, 19]
41.894[22, 18, 40, 20, 22, 19, 20, 21]
41.91[22, 19, 38, 19, 23, 19, 20, 20]
41.931[21, 21, 38, 18, 23, 20, 20, 19]
41.954[20, 20, 41, 21, 22, 21, 20, 18]
41.97[18, 22, 35, 22, 19, 22, 19, 18]
41.991[19, 22, 34, 23, 19, 22, 19, 19]
42.014[19, 21, 38, 26, 20, 21, 19, 19]
42.03[20, 21, 41, 27, 20, 21, 18, 19]
42.052[19, 22, 36, 25, 20, 19, 18, 19]
42.074[20, 21, 37, 23, 20, 19, 18, 19]
42.097[21, 21, 39, 23, 20, 19, 19, 17]
42.111[20, 21, 37, 22, 18, 19, 19, 19]
42.134[20, 22, 34, 20, 20, 21, 19, 20]
42.149[21, 20, 38, 21, 20, 22, 20, 19]
42.171[19, 19, 36, 22, 21, 21, 22, 20]
42.194[17, 22, 33, 20, 22, 21, 20, 21]
42.209[21, 21, 32, 18, 21, 22, 20, 19]
42.231[21, 21, 36, 18, 20, 20, 20, 18]
42.254[21, 23, 35, 18, 20, 18, 18, 20]
42.269[21, 22, 32, 21, 19, 17, 18, 22]
42.292[22, 20, 35, 21, 19, 15, 18, 21]
42.314[22, 23, 39, 21, 20, 16, 18, 22]
42.329[21, 22, 35, 20, 19, 19, 19, 22]
42.352[20, 24, 35, 19, 19, 20, 19, 22]
42.374[20, 23, 40, 16, 20, 22, 19, 19]
42.389[20, 24, 40, 18, 19, 23, 20, 19]
42.411[17, 23, 35, 20, 22, 22, 20, 20]
42.434[19, 22, 33, 22, 23, 19, 19, 20]
42.456[18, 19, 34, 23, 22, 19, 19, 19]
42.471[18, 20, 35, 22, 23, 18, 17, 19]
42.495[18, 19, 38, 21, 22, 15, 17, 22]
42.517[18, 19, 39, 20, 20, 17, 17, 21]
42.532[19, 19, 40, 17, 19, 19, 18, 21]
42.554[20, 20, 48, 17, 20, 19, 17, 20]
42.577[20, 20, 44, 17, 19, 19, 16, 21]
42.599[20, 22, 38, 19, 20, 21, 15, 18]
42.614[19, 20, 38, 18, 20, 21, 16, 18]
42.637[23, 21, 37, 21, 22, 20, 16, 17]
42.652[22, 21, 29, 22, 23, 21, 15, 17]
42.674[22, 20, 31, 22, 22, 21, 19, 19]
42.696[24, 21, 32, 21, 21, 19, 19, 19]
42.712[22, 22, 31, 21, 22, 20, 18, 20]
42.734[16, 22, 31, 19, 20, 19, 17, 20]
42.757[18, 23, 30, 18, 20, 17, 19, 20]
42.771[19, 23, 32, 19, 20, 19, 18, 19]
42.794[16, 21, 34, 18, 21, 21, 19, 19]
42.817[18, 19, 36, 19, 21, 20, 19, 19]
42.831[20, 19, 37, 18, 22, 22, 22, 19]
42.854[19, 20, 43, 19, 20, 22, 20, 19]
42.876[19, 20, 40, 20, 21, 20, 19, 19]
42.891[18, 20, 38, 20, 20, 20, 19, 20]
42.914[19, 21, 36, 20, 20, 20, 18, 19]
42.936[18, 22, 41, 22, 21, 19, 15, 18]
42.951[17, 21, 32, 21, 22, 20, 15, 18]
42.974[17, 21, 32, 20, 22, 20, 14, 17]
42.997[17, 21, 31, 23, 22, 20, 16, 17]
43.011[17, 20, 40, 23, 21, 20, 17, 20]
43.034[17, 20, 37, 22, 21, 21, 19, 19]
43.056[19, 20, 38, 21, 20, 21, 19, 21]
43.071[18, 20, 37, 20, 19, 21, 19, 21]
43.094[19, 21, 40, 22, 19, 21, 19, 21]
43.117[18, 22, 35, 22, 19, 22, 21, 19]
43.132[19, 20, 33, 23, 17, 21, 21, 20]
43.154[17, 19, 32, 23, 16, 20, 22, 17]
43.177[19, 18, 31, 23, 19, 21, 22, 19]
43.191[19, 21, 28, 20, 19, 20, 21, 18]
43.214[17, 20, 29, 19, 20, 18, 19, 19]
43.237[18, 21, 33, 19, 20, 19, 19, 20]
43.259[19, 22, 35, 20, 22, 20, 19, 20]
43.274[19, 22, 36, 20, 20, 19, 20, 19]
43.297[20, 19, 35, 19, 20, 19, 20, 19]
43.312[21, 21, 31, 19, 21, 21, 21, 18]
43.334[21, 20, 33, 20, 22, 19, 21, 19]
43.357[20, 20, 35, 19, 21, 19, 20, 18]
43.379[21, 20, 34, 20, 21, 20, 18, 19]
43.395[20, 20, 35, 20, 22, 21, 17, 17]
43.417[22, 17, 36, 22, 20, 20, 16, 18]
43.439[21, 19, 33, 21, 19, 21, 17, 17]
43.454[22, 18, 33, 22, 20, 22, 18, 19]
43.477[20, 20, 35, 20, 20, 21, 17, 18]
43.499[20, 22, 35, 21, 20, 20, 18, 18]
43.514[19, 22, 36, 19, 19, 22, 19, 19]
43.537[17, 21, 32, 18, 20, 21, 19, 18]
43.559[17, 21, 34, 15, 19, 20, 19, 17]
43.574[17, 19, 33, 17, 20, 20, 22, 17]
43.597[18, 19, 33, 17, 20, 19, 21, 17]
43.619[19, 18, 31, 16, 21, 18, 20, 17]
43.634[20, 18, 31, 17, 20, 19, 20, 18]
43.657[21, 19, 27, 18, 20, 18, 19, 17]
43.679[19, 22, 28, 18, 21, 19, 17, 19]
43.694[19, 21, 30, 17, 20, 18, 19, 20]
43.717[18, 23, 34, 19, 21, 18, 18, 21]
43.74[17, 23, 33, 18, 21, 18, 18, 20]
43.754[17, 23, 31, 18, 23, 19, 18, 21]
43.777[19, 21, 28, 18, 22, 18, 19, 20]
43.8[18, 22, 33, 19, 21, 20, 17, 20]
43.814[20, 22, 31, 21, 20, 21, 20, 18]
43.837[20, 21, 33, 20, 21, 20, 20, 19]
43.859[19, 22, 31, 21, 18, 20, 21, 18]
43.875[19, 21, 30, 21, 20, 20, 20, 18]
43.896[20, 21, 34, 22, 21, 18, 21, 19]
43.92[18, 20, 35, 21, 22, 17, 19, 20]
43.934[18, 21, 34, 21, 22, 19, 18, 21]
43.957[20, 20, 40, 21, 22, 18, 19, 23]
43.98[19, 21, 44, 21, 20, 20, 21, 21]
43.994[19, 20, 34, 18, 20, 21, 20, 19]
44.017[19, 21, 33, 19, 20, 20, 21, 19]
44.04[19, 21, 33, 20, 22, 22, 21, 19]
44.054[19, 22, 33, 19, 21, 22, 20, 16]
44.078[18, 20, 33, 18, 22, 22, 18, 20]
44.1[19, 20, 34, 19, 22, 23, 18, 20]
44.115[18, 21, 34, 20, 21, 24, 15, 20]
44.137[18, 21, 33, 20, 17, 22, 17, 20]
44.16[20, 21, 28, 21, 17, 22, 17, 20]
44.174[19, 24, 21, 21, 16, 20, 18, 18]
44.197[20, 25, 28, 22, 17, 18, 18, 18]
44.22[22, 26, 30, 19, 19, 17, 19, 18]
44.234[23, 24, 30, 21, 18, 19, 18, 18]
44.257[22, 25, 29, 21, 20, 18, 18, 19]
44.279[24, 23, 30, 21, 19, 18, 18, 18]
44.294[23, 22, 24, 20, 20, 18, 17, 18]
44.317[21, 21, 19, 20, 20, 17, 19, 20]
44.34[21, 21, 21, 19, 21, 17, 18, 19]
44.362[22, 22, 21, 18, 21, 17, 18, 18]
44.377[21, 23, 29, 18, 22, 19, 19, 18]
44.4[22, 23, 32, 20, 20, 19, 19, 20]
44.423[22, 22, 33, 21, 18, 21, 19, 17]
44.437[22, 24, 35, 20, 18, 21, 20, 18]
44.46[21, 21, 35, 21, 19, 20, 21, 18]
44.483[20, 21, 29, 19, 18, 21, 20, 19]
44.497[19, 22, 25, 17, 18, 20, 21, 20]
44.52[20, 23, 24, 16, 19, 20, 19, 21]
44.543[19, 21, 20, 16, 20, 17, 19, 22]
44.557[20, 23, 21, 16, 20, 17, 20, 22]
44.58[21, 22, 22, 18, 21, 16, 19, 22]
44.603[21, 21, 22, 19, 21, 18, 18, 21]
44.617[20, 19, 22, 20, 22, 17, 19, 21]
44.64[20, 19, 23, 21, 23, 18, 19, 23]
44.663[20, 18, 23, 21, 24, 20, 18, 22]
44.677[18, 17, 22, 19, 23, 20, 19, 23]
44.7[17, 20, 22, 20, 25, 18, 21, 24]
44.723[17, 21, 21, 21, 25, 19, 20, 23]
44.737[17, 21, 23, 22, 23, 19, 20, 21]
44.76[18, 21, 21, 23, 22, 18, 22, 20]
44.783[19, 20, 22, 24, 22, 20, 21, 19]
44.797[18, 21, 22, 23, 21, 21, 20, 18]
44.82[19, 21, 23, 23, 20, 21, 21, 18]
44.851[19, 20, 22, 22, 20, 21, 20, 18]
44.857[18, 21, 22, 21, 18, 20, 18, 20]
44.88[20, 21, 21, 20, 19, 19, 19, 19]
44.903[19, 19, 21, 22, 18, 17, 19, 19]
44.917[18, 18, 20, 21, 17, 17, 20, 19]
44.94[19, 19, 18, 19, 18, 16, 20, 19]
44.963[17, 20, 20, 20, 19, 16, 21, 19]
44.977[17, 20, 18, 20, 18, 17, 19, 19]
45.0[21, 19, 19, 19, 19, 18, 18, 20]
45.023[20, 21, 19, 20, 19, 19, 16, 19]
45.037[20, 20, 19, 21, 19, 21, 17, 20]
45.06[22, 20, 21, 20, 19, 21, 19, 20]
45.082[21, 20, 22, 19, 20, 20, 19, 19]
45.097[18, 20, 20, 21, 19, 21, 19, 19]
45.12[18, 19, 20, 20, 20, 21, 20, 18]
45.143[20, 17, 21, 19, 21, 21, 20, 18]
45.157[19, 16, 21, 20, 21, 22, 18, 18]
45.18[18, 18, 20, 19, 21, 21, 19, 16]
45.203[21, 21, 22, 17, 21, 21, 19, 16]
45.217[21, 23, 21, 19, 21, 19, 18, 16]
45.24[19, 24, 22, 18, 19, 19, 16, 17]
45.263[19, 24, 24, 18, 21, 18, 16, 17]
45.285[20, 23, 27, 18, 23, 20, 17, 18]
45.3[18, 22, 27, 19, 22, 18, 18, 17]
45.323[19, 22, 27, 17, 23, 19, 20, 18]
45.345[19, 21, 26, 19, 22, 19, 20, 17]
45.36[19, 21, 23, 19, 20, 20, 20, 18]
45.383[18, 21, 21, 18, 19, 21, 20, 17]
45.406[20, 21, 20, 17, 18, 22, 19, 18]
45.42[21, 22, 21, 19, 19, 22, 19, 18]
45.443[21, 22, 21, 20, 19, 21, 19, 18]
45.465[21, 23, 20, 20, 19, 21, 19, 16]
45.48[22, 23, 20, 20, 20, 19, 18, 16]
45.503[22, 22, 20, 21, 20, 20, 17, 16]
45.525[21, 21, 21, 20, 20, 19, 18, 14]
45.54[21, 21, 22, 19, 21, 19, 18, 15]
45.563[21, 19, 22, 19, 19, 18, 18, 17]
45.585[21, 20, 21, 20, 19, 20, 18, 19]
45.6[19, 21, 20, 20, 20, 18, 19, 17]
45.623[19, 22, 17, 20, 20, 19, 19, 19]
45.645[18, 22, 18, 20, 20, 20, 18, 20]
45.66[19, 22, 17, 19, 21, 20, 20, 19]
45.683[18, 23, 18, 19, 21, 20, 20, 18]
45.705[17, 22, 20, 18, 21, 20, 20, 20]
45.72[16, 22, 21, 17, 20, 20, 21, 21]
45.75[16, 21, 20, 16, 20, 20, 21, 19]
45.766[16, 22, 19, 16, 20, 19, 21, 20]
45.779[16, 20, 20, 17, 18, 19, 22, 22]
45.803[18, 20, 20, 17, 19, 19, 22, 21]
45.825[20, 18, 20, 18, 21, 19, 23, 20]
45.84[21, 19, 22, 19, 21, 18, 23, 22]
45.863[21, 19, 22, 21, 19, 20, 21, 20]
45.886[20, 20, 20, 22, 20, 19, 20, 18]
45.899[19, 20, 22, 22, 19, 19, 19, 16]
45.922[17, 21, 23, 23, 20, 19, 19, 16]
45.945[17, 21, 21, 22, 20, 19, 19, 16]
45.96[16, 21, 21, 20, 21, 20, 19, 17]
45.983[19, 21, 22, 20, 20, 20, 19, 17]
46.005[20, 22, 22, 20, 18, 21, 19, 19]
46.019[21, 21, 18, 20, 18, 20, 18, 19]
46.043[20, 22, 19, 22, 19, 21, 18, 20]
46.065[21, 22, 19, 22, 19, 20, 18, 20]
46.088[20, 23, 20, 22, 21, 19, 19, 21]
46.103[21, 22, 20, 23, 21, 20, 21, 20]
46.125[19, 22, 21, 21, 21, 20, 20, 20]
46.139[21, 22, 21, 20, 21, 20, 20, 20]
46.163[21, 24, 21, 20, 20, 18, 21, 19]
46.185[20, 22, 20, 19, 22, 20, 20, 20]
46.199[19, 22, 19, 17, 22, 18, 18, 20]
46.223[21, 21, 18, 18, 23, 18, 19, 20]
46.245[20, 21, 18, 17, 23, 18, 18, 20]
46.268[20, 21, 16, 19, 23, 19, 17, 20]
46.283[19, 23, 18, 19, 21, 18, 17, 18]
46.305[17, 22, 21, 20, 20, 18, 17, 21]
46.327[15, 22, 21, 21, 19, 18, 15, 21]
46.343[16, 22, 20, 21, 19, 19, 17, 21]
46.365[14, 20, 20, 20, 20, 19, 17, 22]
46.387[16, 17, 20, 20, 18, 20, 17, 21]
46.403[16, 20, 19, 20, 18, 20, 19, 19]
46.425[16, 20, 20, 19, 18, 20, 19, 19]
46.447[17, 20, 20, 20, 18, 19, 19, 20]
46.464[18, 21, 21, 19, 17, 18, 20, 20]
46.485[20, 23, 20, 21, 19, 16, 20, 21]
46.507[21, 20, 19, 21, 19, 17, 19, 22]
46.524[22, 21, 19, 22, 19, 18, 20, 23]
46.545[21, 22, 20, 22, 20, 18, 20, 21]
46.567[21, 20, 20, 22, 19, 19, 19, 21]
46.584[18, 19, 20, 20, 18, 19, 20, 22]
46.605[19, 20, 20, 19, 18, 18, 19, 21]
46.627[18, 20, 20, 21, 20, 19, 19, 21]
46.644[19, 19, 18, 21, 21, 20, 20, 22]
46.665[20, 21, 19, 20, 21, 19, 19, 22]
46.687[20, 23, 19, 21, 22, 21, 20, 22]
46.703[19, 22, 20, 21, 20, 21, 21, 22]
46.724[20, 21, 22, 21, 19, 21, 20, 19]
46.747[18, 22, 21, 20, 19, 20, 19, 19]
46.763[19, 21, 20, 21, 19, 22, 21, 20]
46.792[19, 18, 21, 20, 19, 20, 22, 19]
46.807[19, 19, 20, 21, 19, 21, 19, 20]
46.831[19, 22, 20, 18, 20, 21, 19, 20]
46.845[20, 20, 19, 18, 19, 22, 21, 20]
46.867[18, 19, 20, 20, 20, 21, 19, 18]
46.884[18, 19, 20, 20, 21, 20, 17, 18]
46.905[18, 19, 20, 20, 21, 21, 18, 19]
46.927[18, 17, 20, 20, 21, 22, 19, 19]
46.943[18, 19, 22, 21, 21, 20, 18, 18]
46.965[18, 21, 21, 18, 21, 20, 18, 19]
46.987[19, 20, 20, 17, 20, 20, 18, 18]
47.004[19, 20, 21, 17, 21, 18, 20, 18]
47.025[20, 21, 21, 18, 20, 19, 19, 19]
47.048[22, 21, 20, 17, 19, 18, 19, 18]
47.064[21, 20, 21, 17, 17, 20, 19, 16]
47.085[20, 22, 22, 18, 19, 23, 19, 17]
47.107[20, 22, 22, 19, 19, 22, 17, 16]
47.124[20, 20, 20, 19, 19, 20, 18, 18]
47.145[19, 21, 20, 19, 20, 21, 19, 18]
47.167[19, 21, 20, 20, 23, 19, 19, 20]
47.19[19, 20, 17, 19, 22, 16, 20, 21]
47.205[18, 21, 18, 18, 21, 18, 20, 21]
47.227[17, 23, 20, 17, 22, 19, 19, 19]
47.25[18, 21, 21, 18, 23, 20, 21, 19]
47.265[18, 20, 21, 17, 20, 20, 20, 19]
47.287[19, 19, 22, 17, 21, 21, 20, 18]
47.31[20, 19, 21, 17, 22, 22, 20, 18]
47.325[21, 19, 18, 17, 21, 20, 20, 20]
47.347[20, 20, 19, 17, 20, 19, 18, 19]
47.37[20, 20, 19, 17, 21, 20, 17, 19]
47.385[20, 22, 19, 17, 20, 20, 21, 19]
47.407[19, 21, 20, 19, 19, 20, 21, 18]
47.43[20, 21, 22, 21, 20, 22, 20, 18]
47.445[20, 23, 22, 20, 19, 22, 20, 18]
47.467[20, 24, 21, 21, 19, 21, 21, 17]
47.49[20, 22, 21, 21, 18, 23, 16, 17]
47.505[21, 23, 22, 20, 18, 21, 16, 16]
47.527[20, 24, 22, 18, 17, 20, 20, 16]
47.55[20, 23, 23, 19, 20, 21, 19, 15]
47.565[20, 21, 22, 18, 20, 22, 21, 16]
47.587[20, 21, 22, 17, 20, 20, 22, 18]
47.61[20, 22, 21, 17, 20, 22, 24, 18]
47.626[20, 20, 18, 17, 22, 21, 22, 19]
47.647[21, 18, 19, 17, 19, 21, 22, 19]
47.67[20, 19, 18, 16, 18, 21, 20, 20]
47.685[19, 19, 19, 18, 18, 21, 20, 21]
47.707[20, 17, 18, 20, 20, 19, 19, 22]
47.73[20, 18, 17, 21, 18, 20, 17, 21]
47.745[21, 19, 21, 21, 19, 19, 18, 23]
47.767[20, 20, 21, 20, 21, 17, 18, 21]
47.79[21, 20, 22, 20, 21, 17, 18, 19]
47.805[20, 21, 22, 19, 19, 18, 18, 19]
47.827[19, 24, 23, 18, 20, 19, 18, 20]
47.85[18, 24, 19, 20, 20, 20, 18, 18]
47.865[20, 24, 20, 22, 21, 20, 17, 19]
47.887[18, 24, 20, 23, 21, 19, 17, 18]
47.91[18, 23, 20, 21, 23, 19, 16, 18]
47.925[18, 21, 20, 24, 23, 18, 18, 17]
47.947[18, 20, 21, 23, 23, 17, 18, 16]
47.97[18, 20, 19, 22, 22, 18, 18, 17]
47.985[17, 21, 21, 22, 21, 19, 18, 18]
48.007[19, 22, 21, 22, 21, 18, 19, 17]
48.03[21, 22, 21, 20, 21, 18, 17, 17]
48.045[23, 22, 20, 18, 20, 19, 17, 16]
48.068[21, 23, 20, 21, 18, 19, 15, 17]
48.09[23, 22, 19, 21, 19, 19, 19, 17]
48.105[21, 21, 19, 21, 19, 19, 19, 17]
48.128[20, 22, 19, 22, 18, 20, 19, 18]
48.15[19, 22, 22, 23, 19, 18, 19, 19]
48.172[20, 21, 22, 21, 20, 19, 20, 19]
48.187[19, 22, 22, 20, 19, 19, 18, 19]
48.218[19, 21, 23, 19, 18, 21, 17, 19]
48.232[20, 21, 22, 19, 19, 19, 19, 19]
48.248[21, 21, 21, 18, 18, 22, 19, 18]
48.27[21, 22, 20, 19, 19, 21, 18, 18]
48.292[22, 22, 21, 19, 20, 21, 18, 19]
48.308[22, 21, 19, 21, 21, 20, 17, 19]
48.33[21, 21, 21, 21, 21, 21, 16, 18]
48.353[20, 20, 22, 21, 21, 18, 17, 18]
48.367[19, 19, 22, 20, 20, 19, 17, 18]
48.39[17, 18, 22, 20, 19, 19, 18, 16]
48.412[18, 20, 23, 19, 19, 19, 19, 17]
48.427[17, 19, 22, 18, 18, 19, 18, 18]
48.45[17, 21, 21, 18, 18, 19, 19, 17]
48.473[18, 21, 22, 18, 19, 20, 19, 16]
48.487[19, 22, 21, 20, 20, 19, 18, 17]
48.51[19, 22, 20, 21, 20, 18, 18, 17]
48.533[20, 21, 21, 21, 22, 20, 19, 17]
48.547[19, 21, 22, 22, 22, 18, 17, 20]
48.57[18, 19, 22, 23, 21, 17, 18, 20]
48.592[17, 20, 21, 22, 20, 20, 20, 19]
48.607[17, 17, 22, 21, 21, 20, 18, 20]
48.63[17, 20, 21, 22, 20, 20, 18, 21]
48.652[19, 20, 19, 21, 20, 20, 19, 18]
48.667[19, 21, 20, 19, 20, 20, 19, 18]
48.69[20, 20, 22, 17, 22, 19, 15, 18]
48.713[20, 21, 20, 19, 22, 21, 17, 18]
48.727[21, 21, 22, 19, 23, 20, 18, 17]
48.758[21, 19, 21, 17, 23, 21, 17, 18]
48.772[21, 20, 19, 19, 25, 22, 17, 19]
48.787[21, 21, 17, 20, 23, 22, 19, 21]
48.81[22, 20, 18, 17, 22, 20, 18, 19]
48.833[22, 18, 17, 16, 20, 20, 17, 21]
48.847[21, 20, 19, 17, 21, 19, 18, 21]
48.87[22, 21, 20, 18, 21, 18, 19, 20]
48.892[22, 20, 20, 18, 23, 16, 17, 18]
48.907[21, 21, 20, 20, 22, 16, 18, 19]
48.93[21, 22, 20, 19, 24, 15, 19, 19]
48.953[22, 22, 20, 20, 23, 17, 18, 17]
48.967[20, 21, 21, 19, 23, 16, 20, 19]
48.99[20, 22, 22, 18, 19, 16, 21, 19]
49.013[19, 23, 22, 17, 20, 17, 22, 18]
49.027[19, 23, 22, 18, 20, 19, 21, 17]
49.05[19, 21, 23, 18, 21, 18, 21, 17]
49.072[19, 22, 22, 19, 20, 18, 19, 16]
49.096[18, 23, 21, 18, 21, 20, 19, 16]
49.11[18, 21, 21, 19, 21, 20, 17, 16]
49.132[18, 22, 22, 18, 19, 20, 19, 16]
49.156[17, 26, 22, 18, 22, 21, 19, 16]
49.17[17, 24, 23, 17, 23, 22, 19, 17]
49.192[17, 23, 22, 19, 23, 20, 19, 17]
49.216[17, 22, 22, 18, 24, 19, 19, 18]
49.231[17, 22, 19, 18, 24, 18, 19, 18]
49.252[18, 17, 19, 18, 21, 18, 18, 18]
49.276[18, 17, 20, 17, 19, 17, 19, 17]
49.29[17, 17, 20, 17, 19, 19, 19, 17]
49.312[17, 20, 20, 18, 19, 18, 20, 16]
49.336[17, 19, 20, 17, 18, 19, 19, 17]
49.359[17, 19, 20, 20, 19, 18, 21, 16]
49.372[19, 19, 18, 22, 18, 18, 19, 18]
49.396[19, 19, 17, 21, 21, 17, 19, 20]
49.41[19, 19, 17, 21, 21, 19, 18, 20]
49.433[20, 18, 17, 22, 21, 19, 19, 20]
49.456[20, 18, 18, 18, 19, 19, 17, 20]
49.47[20, 21, 19, 17, 19, 19, 18, 19]
49.493[21, 21, 19, 17, 18, 20, 18, 17]
49.516[20, 21, 18, 17, 17, 20, 17, 17]
49.531[19, 21, 19, 19, 19, 20, 16, 18]
49.554[21, 21, 18, 18, 20, 20, 15, 17]
49.576[18, 19, 19, 18, 21, 21, 17, 19]
49.59[18, 20, 19, 18, 21, 19, 19, 19]
49.613[18, 21, 20, 18, 20, 19, 19, 20]
49.636[19, 22, 22, 16, 19, 18, 21, 18]
49.65[20, 21, 22, 17, 20, 19, 22, 18]
49.673[21, 22, 19, 17, 21, 18, 20, 16]
49.696[22, 21, 20, 17, 22, 17, 18, 17]
49.71[22, 19, 21, 18, 22, 17, 19, 16]
49.733[21, 18, 22, 19, 22, 17, 17, 17]
49.756[21, 19, 21, 20, 22, 17, 16, 17]
49.77[19, 18, 23, 20, 23, 20, 16, 17]
49.793[18, 22, 23, 22, 22, 21, 16, 16]
49.816[19, 21, 23, 22, 24, 21, 18, 18]
49.83[19, 21, 22, 21, 23, 21, 16, 18]
49.854[17, 24, 24, 22, 22, 21, 17, 18]
49.876[17, 25, 23, 21, 20, 19, 17, 18]
49.89[18, 22, 22, 21, 20, 17, 17, 17]
49.914[17, 22, 20, 20, 19, 17, 17, 15]
49.936[18, 23, 19, 23, 20, 18, 17, 15]
49.95[19, 20, 18, 22, 19, 19, 17, 15]
49.973[18, 20, 17, 23, 20, 19, 17, 15]
49.996[20, 19, 19, 21, 20, 20, 16, 16]
50.018[21, 21, 19, 23, 20, 20, 16, 16]
50.034[20, 20, 19, 21, 21, 19, 16, 16]
50.056[19, 20, 18, 20, 20, 19, 18, 19]
50.078[19, 21, 19, 20, 19, 19, 19, 19]
50.093[20, 20, 20, 22, 20, 20, 19, 20]
50.116[20, 20, 20, 21, 20, 20, 18, 20]
50.138[20, 20, 21, 21, 18, 21, 19, 20]
50.154[20, 20, 21, 23, 20, 23, 18, 19]
50.176[20, 19, 20, 22, 20, 22, 17, 20]
50.198[16, 20, 20, 21, 18, 22, 18, 21]
50.213[16, 22, 21, 20, 17, 22, 19, 21]
50.236[17, 20, 21, 20, 17, 21, 19, 21]
50.259[18, 21, 21, 20, 16, 20, 20, 20]
50.273