[18, 20, 22, 22, 18, 16, 17, 17]
1.404[19, 21, 22, 23, 19, 18, 16, 19]
1.427[18, 21, 20, 23, 19, 21, 17, 17]
1.443[17, 19, 19, 24, 20, 21, 16, 16]
1.465[18, 18, 18, 22, 21, 19, 18, 17]
1.485[17, 18, 17, 22, 22, 21, 18, 20]
1.502[17, 18, 20, 22, 24, 25, 22, 24]
1.526[23, 25, 24, 21, 25, 27, 25, 26]
1.548[24, 28, 25, 20, 24, 27, 25, 27]
1.562[24, 28, 26, 20, 24, 29, 25, 29]
1.583[26, 28, 27, 20, 23, 28, 26, 27]
1.605[26, 29, 25, 20, 21, 23, 23, 22]
1.622[20, 23, 22, 20, 19, 19, 19, 19]
1.644[20, 22, 22, 21, 18, 19, 21, 19]
1.666[20, 23, 20, 22, 18, 18, 20, 20]
1.688[19, 23, 20, 22, 18, 21, 19, 20]
1.703[19, 20, 20, 22, 20, 22, 20, 20]
1.733[19, 19, 20, 23, 20, 22, 21, 20]
1.749[17, 19, 19, 22, 22, 22, 19, 21]
1.763[14, 15, 19, 20, 20, 20, 21, 20]
1.793[13, 18, 18, 20, 19, 20, 21, 22]
1.807[18, 20, 19, 18, 17, 20, 21, 23]
1.823[17, 19, 20, 17, 17, 20, 19, 22]
1.852[21, 20, 20, 20, 16, 20, 18, 21]
1.868[21, 22, 21, 21, 17, 21, 19, 21]
1.883[22, 20, 23, 19, 17, 18, 17, 21]
1.905[18, 20, 20, 20, 19, 19, 17, 19]
1.927[19, 21, 19, 20, 20, 20, 19, 21]
1.942[18, 19, 18, 20, 18, 21, 19, 21]
1.965[18, 18, 19, 19, 19, 20, 20, 20]
1.996[19, 19, 16, 22, 19, 20, 20, 20]
2.002[20, 18, 18, 21, 19, 19, 19, 20]
2.025[20, 17, 20, 21, 18, 20, 18, 20]
2.047[19, 17, 19, 20, 19, 22, 21, 20]
2.062[20, 17, 19, 20, 21, 23, 20, 20]
2.085[20, 16, 20, 17, 22, 24, 23, 21]
2.107[18, 17, 19, 18, 22, 25, 26, 21]
2.13[18, 19, 17, 19, 22, 23, 26, 21]
2.146[19, 19, 18, 21, 22, 22, 24, 22]
2.167[19, 20, 18, 21, 20, 23, 23, 22]
2.182[18, 21, 18, 22, 20, 22, 24, 21]
2.205[18, 20, 18, 21, 19, 21, 22, 22]
2.229[19, 19, 18, 20, 20, 21, 22, 21]
2.242[19, 20, 17, 19, 19, 20, 22, 19]
2.265[18, 21, 17, 18, 20, 20, 23, 18]
2.287[18, 21, 17, 17, 20, 20, 22, 20]
2.31[18, 21, 18, 19, 20, 20, 19, 19]
2.332[16, 20, 19, 18, 20, 21, 19, 20]
2.356[18, 19, 20, 19, 21, 20, 18, 20]
2.37[18, 20, 23, 19, 21, 19, 17, 19]
2.393[19, 18, 21, 19, 22, 19, 17, 19]
2.407[19, 18, 22, 19, 22, 19, 18, 19]
2.43[20, 20, 20, 20, 21, 18, 19, 18]
2.452[17, 19, 20, 19, 20, 18, 20, 18]
2.467[19, 18, 18, 18, 20, 19, 19, 18]
2.49[17, 19, 18, 19, 20, 21, 19, 17]
2.512[18, 20, 18, 19, 20, 20, 18, 17]
2.527[17, 20, 19, 19, 19, 21, 18, 19]
2.55[18, 22, 19, 18, 20, 20, 19, 19]
2.573[17, 22, 19, 20, 20, 22, 20, 17]
2.587[19, 22, 20, 20, 20, 21, 20, 17]
2.61[19, 20, 18, 20, 19, 21, 20, 17]
2.633[18, 20, 19, 19, 20, 20, 18, 18]
2.647[19, 20, 19, 19, 20, 21, 19, 19]
2.67[19, 23, 22, 18, 20, 18, 17, 20]
2.701[18, 22, 22, 19, 19, 17, 18, 21]
2.708[19, 23, 23, 20, 19, 16, 17, 20]
2.73[20, 21, 23, 22, 18, 16, 18, 18]
2.752[18, 22, 23, 21, 19, 17, 15, 17]
2.767[19, 19, 21, 21, 18, 18, 16, 19]
2.79[20, 19, 22, 20, 18, 17, 15, 18]
2.813[21, 19, 20, 20, 19, 17, 15, 18]
2.827[22, 23, 20, 19, 20, 18, 17, 18]
2.85[21, 22, 20, 19, 19, 17, 19, 17]
2.872[22, 24, 19, 19, 19, 16, 19, 17]
2.888[21, 25, 19, 18, 20, 16, 20, 17]
2.912[19, 25, 20, 17, 21, 16, 21, 19]
2.932[20, 23, 22, 18, 21, 17, 20, 20]
2.947[22, 22, 20, 18, 20, 17, 19, 19]
2.978[21, 20, 23, 17, 20, 16, 19, 19]
3.001[21, 20, 23, 18, 19, 18, 21, 18]
3.007[21, 21, 24, 20, 18, 19, 19, 17]
3.03[20, 21, 22, 20, 18, 19, 21, 17]
3.052[19, 21, 24, 19, 18, 20, 20, 18]
3.067[20, 21, 22, 19, 19, 21, 21, 20]
3.09[20, 21, 22, 20, 21, 20, 21, 19]
3.121[19, 20, 20, 17, 22, 20, 21, 19]
3.136[19, 20, 21, 19, 22, 20, 20, 21]
3.15[18, 22, 21, 19, 22, 19, 21, 21]
3.173[18, 23, 20, 19, 21, 17, 21, 20]
3.196[20, 23, 21, 19, 19, 19, 20, 21]
3.21[21, 24, 22, 30, 22, 18, 20, 23]
3.241[22, 24, 23, 30, 22, 18, 21, 21]
3.256[21, 22, 23, 44, 23, 17, 20, 21]
3.27[21, 21, 23, 50, 24, 18, 20, 21]
3.292[19, 20, 23, 50, 26, 16, 21, 21]
3.316[17, 19, 23, 65, 22, 16, 21, 19]
3.33[17, 21, 29, 109, 41, 18, 22, 19]
3.353[18, 23, 32, 113, 41, 21, 23, 19]
3.375[17, 23, 34, 115, 41, 21, 21, 19]
3.398[18, 23, 32, 122, 41, 22, 19, 21]
3.413[18, 25, 35, 118, 42, 23, 18, 22]
3.444[19, 22, 29, 86, 27, 21, 18, 22]
3.45[21, 21, 25, 76, 26, 20, 17, 22]
3.475[21, 21, 25, 71, 24, 21, 18, 24]
3.495[20, 22, 25, 58, 23, 21, 18, 22]
3.51[20, 20, 22, 50, 21, 20, 18, 21]
3.534[19, 21, 22, 36, 18, 20, 18, 22]
3.556[19, 20, 21, 29, 19, 19, 19, 23]
3.57[19, 21, 21, 26, 20, 19, 19, 21]
3.592[21, 20, 20, 23, 21, 18, 20, 21]
3.617[21, 20, 19, 19, 20, 18, 21, 20]
3.63[22, 19, 19, 39, 19, 19, 20, 19]
3.653[22, 18, 22, 42, 19, 20, 20, 19]
3.676[23, 18, 21, 57, 20, 20, 22, 19]
3.691[23, 19, 26, 96, 32, 23, 23, 19]
3.713[22, 18, 29, 106, 39, 24, 22, 20]
3.735[21, 20, 29, 102, 39, 23, 22, 19]
3.758[19, 22, 27, 103, 39, 22, 21, 20]
3.773[17, 22, 26, 97, 39, 22, 19, 21]
3.796[17, 21, 23, 61, 31, 20, 17, 21]
3.81[17, 20, 19, 73, 24, 19, 17, 20]
3.833[18, 20, 19, 73, 25, 18, 15, 21]
3.856[20, 19, 19, 72, 24, 20, 17, 21]
3.87[20, 20, 21, 70, 24, 18, 16, 19]
3.893[19, 20, 21, 69, 25, 19, 19, 19]
3.917[21, 23, 20, 35, 24, 18, 18, 18]
3.93[20, 20, 20, 27, 22, 18, 20, 20]
3.953[21, 22, 20, 25, 22, 14, 18, 19]
3.976[21, 22, 20, 22, 21, 15, 19, 20]
3.999[20, 24, 19, 21, 19, 16, 19, 18]
4.013[20, 22, 20, 38, 17, 17, 19, 18]
4.036[19, 24, 22, 40, 18, 19, 19, 16]
4.05[20, 22, 21, 40, 18, 22, 21, 15]
4.073[19, 21, 20, 41, 19, 24, 22, 16]
4.096[23, 23, 22, 68, 23, 23, 22, 18]
4.118[22, 23, 23, 73, 25, 25, 22, 20]
4.148[22, 21, 23, 73, 26, 24, 22, 19]
4.156[21, 23, 24, 74, 26, 24, 21, 21]
4.178[21, 23, 23, 74, 25, 22, 21, 20]
4.193[17, 19, 22, 52, 24, 22, 21, 22]
4.216[17, 19, 21, 31, 22, 19, 19, 22]
4.238[18, 19, 20, 28, 21, 19, 20, 23]
4.253[18, 18, 21, 34, 21, 18, 18, 23]
4.275[18, 17, 21, 40, 21, 19, 18, 22]
4.298[19, 19, 22, 41, 21, 19, 17, 21]
4.313[19, 19, 21, 42, 20, 19, 17, 20]
4.335[18, 18, 20, 42, 20, 19, 17, 19]
4.358[18, 20, 18, 33, 19, 17, 18, 19]
4.374[19, 21, 18, 26, 19, 17, 19, 20]
4.396[18, 20, 20, 24, 18, 17, 21, 19]
4.418[20, 21, 20, 21, 18, 16, 22, 19]
4.433[21, 22, 21, 19, 18, 17, 22, 20]
4.456[21, 19, 20, 20, 19, 18, 22, 19]
4.478[20, 19, 22, 19, 19, 19, 21, 19]
4.493[21, 20, 21, 17, 18, 19, 18, 18]
4.515[20, 20, 20, 18, 19, 19, 19, 19]
4.538[20, 20, 19, 18, 19, 20, 18, 18]
4.553[20, 21, 20, 17, 18, 22, 18, 18]
4.575[20, 22, 21, 17, 18, 20, 19, 18]
4.598[21, 22, 21, 17, 20, 20, 20, 18]
4.612[21, 22, 21, 16, 21, 19, 19, 18]
4.635[21, 22, 20, 17, 21, 18, 19, 18]
4.658[22, 21, 20, 18, 22, 17, 19, 16]
4.672[22, 20, 18, 20, 21, 18, 19, 16]
4.696[21, 20, 17, 19, 20, 17, 20, 18]
4.726[22, 20, 17, 22, 20, 18, 20, 17]
4.732[22, 19, 20, 21, 20, 19, 19, 18]
4.756[21, 18, 20, 20, 19, 18, 19, 20]
4.778[23, 18, 20, 19, 21, 19, 20, 20]
4.793[22, 17, 21, 19, 21, 19, 20, 18]
4.816[20, 17, 21, 19, 19, 19, 19, 18]
4.838[20, 18, 19, 20, 20, 19, 21, 17]
4.861[20, 19, 19, 20, 21, 18, 20, 19]
4.875[17, 20, 19, 18, 21, 19, 20, 19]
4.898[17, 21, 19, 18, 20, 19, 20, 19]
4.92[18, 21, 21, 19, 20, 18, 20, 19]
4.936[19, 21, 22, 35, 19, 19, 18, 21]
4.959[19, 22, 23, 37, 19, 19, 20, 21]
4.981[18, 21, 23, 39, 19, 17, 20, 20]
4.995[18, 20, 23, 39, 20, 19, 19, 20]
5.018[18, 19, 21, 41, 21, 19, 20, 19]
5.041[17, 19, 21, 28, 21, 18, 20, 19]
5.056[17, 17, 20, 26, 20, 19, 18, 17]
5.078[17, 18, 20, 25, 19, 19, 18, 16]
5.108[17, 20, 18, 24, 18, 16, 18, 16]
5.116[20, 21, 19, 20, 16, 18, 17, 17]
5.146[18, 21, 17, 17, 17, 18, 19, 15]
5.16[18, 23, 16, 17, 19, 17, 18, 14]
5.183[19, 23, 17, 20, 21, 18, 19, 15]
5.198[19, 22, 18, 19, 21, 19, 20, 16]
5.22[17, 21, 20, 44, 22, 18, 22, 16]
5.236[17, 25, 22, 46, 24, 18, 20, 17]
5.258[19, 23, 24, 46, 24, 19, 20, 20]
5.281[18, 22, 24, 45, 22, 17, 19, 20]
5.296[18, 22, 24, 46, 23, 17, 18, 21]
5.318[18, 24, 23, 26, 23, 18, 16, 21]
5.34[18, 21, 21, 23, 20, 18, 16, 22]
5.356[18, 23, 20, 20, 18, 18, 19, 20]
5.377[18, 22, 20, 22, 20, 20, 19, 20]
5.4[18, 23, 18, 21, 19, 18, 19, 19]
5.416[19, 21, 18, 21, 19, 19, 20, 19]
5.438[19, 22, 18, 21, 18, 18, 20, 18]
5.461[18, 21, 17, 22, 18, 18, 18, 18]
5.476[19, 22, 17, 19, 17, 18, 17, 19]
5.497[20, 20, 19, 18, 15, 19, 19, 21]
5.52[19, 19, 18, 18, 15, 19, 17, 20]
5.536[19, 20, 20, 18, 16, 17, 19, 21]
5.557[19, 19, 18, 18, 16, 17, 20, 21]
5.582[19, 20, 20, 20, 16, 15, 20, 21]
5.596[19, 21, 20, 20, 17, 16, 18, 19]
5.618[18, 22, 19, 21, 18, 15, 20, 19]
5.64[19, 22, 20, 22, 18, 17, 19, 19]
5.657[20, 21, 20, 22, 18, 19, 18, 19]
5.677[19, 20, 20, 22, 20, 19, 18, 19]
5.701[18, 20, 20, 23, 21, 20, 20, 19]
5.724[18, 19, 22, 22, 21, 20, 17, 19]
5.739[18, 17, 22, 21, 22, 20, 16, 20]
5.76[17, 18, 23, 22, 22, 20, 17, 20]
5.776[17, 20, 22, 22, 20, 21, 18, 20]
5.797[16, 19, 21, 21, 20, 19, 17, 20]
5.82[17, 19, 20, 20, 21, 21, 19, 20]
5.844[18, 21, 20, 20, 19, 21, 20, 19]
5.857[20, 21, 20, 19, 19, 20, 20, 20]
5.88[20, 19, 20, 20, 18, 19, 20, 20]
5.896[21, 21, 20, 19, 19, 19, 19, 19]
5.917[22, 21, 20, 21, 18, 19, 18, 19]
5.94[20, 20, 20, 21, 20, 18, 18, 20]
5.957[19, 20, 21, 21, 22, 18, 17, 19]
5.977[20, 20, 21, 21, 22, 17, 18, 18]
6.0[19, 18, 21, 42, 24, 19, 19, 18]
6.023[18, 18, 24, 48, 23, 18, 19, 18]
6.045[19, 17, 24, 52, 22, 18, 19, 17]
6.06[19, 19, 24, 52, 21, 19, 19, 17]
6.091[18, 19, 25, 53, 22, 20, 20, 16]
6.097[18, 19, 26, 80, 23, 19, 18, 17]
6.121[19, 23, 27, 86, 25, 20, 17, 18]
6.143[19, 23, 29, 85, 25, 19, 19, 18]
6.157[18, 21, 29, 95, 25, 18, 20, 18]
6.18[19, 21, 29, 103, 27, 19, 20, 19]
6.202[19, 21, 28, 84, 25, 19, 19, 20]
6.219[19, 17, 25, 75, 23, 18, 20, 18]
6.24[17, 17, 22, 77, 23, 18, 18, 18]
6.263[18, 19, 22, 65, 23, 18, 17, 20]
6.277[17, 18, 21, 88, 23, 16, 18, 19]
6.301[17, 20, 25, 102, 27, 17, 19, 18]
6.324[19, 21, 26, 104, 27, 19, 19, 19]
6.337[19, 22, 28, 114, 29, 19, 20, 20]
6.36[18, 21, 30, 118, 29, 19, 20, 20]
6.384[19, 21, 31, 105, 34, 21, 19, 22]
6.405[18, 21, 26, 92, 30, 19, 17, 22]
6.42[16, 21, 26, 90, 32, 21, 20, 22]
6.451[17, 21, 25, 76, 29, 21, 21, 21]
6.457[18, 21, 23, 82, 29, 21, 21, 20]
6.48[19, 24, 25, 111, 30, 22, 21, 18]
6.503[22, 23, 26, 118, 34, 23, 22, 19]
6.525[22, 23, 26, 119, 32, 22, 20, 18]
6.54[23, 24, 27, 126, 35, 22, 20, 21]
6.565[22, 22, 25, 134, 39, 21, 20, 20]
6.593[23, 19, 25, 105, 36, 21, 20, 19]
6.6[22, 20, 25, 98, 34, 20, 19, 19]
6.623[22, 20, 24, 107, 33, 21, 19, 18]
6.637[20, 23, 29, 124, 37, 22, 20, 17]
6.66[20, 25, 31, 128, 35, 23, 22, 17]
6.682[20, 25, 31, 129, 32, 23, 20, 18]
6.697[19, 25, 30, 130, 34, 24, 22, 19]
6.721[20, 24, 32, 123, 35, 24, 21, 20]
6.743[19, 21, 28, 104, 29, 23, 21, 19]
6.757[19, 19, 26, 78, 26, 23, 18, 21]
6.781[19, 20, 25, 82, 32, 23, 19, 18]
6.803[18, 21, 26, 91, 33, 22, 18, 18]
6.819[18, 20, 24, 98, 35, 21, 17, 17]
6.841[18, 19, 22, 94, 33, 21, 18, 18]
6.863[17, 20, 23, 91, 34, 21, 19, 19]
6.877[16, 20, 23, 111, 31, 20, 21, 19]
6.9[17, 21, 24, 102, 33, 21, 21, 19]
6.923[18, 22, 24, 99, 32, 20, 20, 19]
6.945[19, 22, 28, 118, 38, 20, 20, 18]
6.96[20, 22, 29, 135, 42, 20, 20, 16]
6.982[20, 22, 26, 116, 43, 20, 18, 17]
7.005[20, 21, 26, 117, 39, 18, 19, 17]
7.02[20, 21, 26, 113, 38, 20, 19, 17]
7.051[18, 21, 24, 92, 34, 19, 21, 18]
7.065[19, 21, 22, 70, 28, 20, 20, 19]
7.088[20, 22, 23, 65, 23, 19, 18, 19]
7.102[19, 23, 21, 59, 25, 19, 20, 19]
7.125[19, 23, 23, 49, 25, 18, 20, 19]
7.14[20, 22, 20, 43, 22, 18, 19, 20]
7.162[19, 22, 23, 64, 23, 17, 18, 21]
7.185[18, 20, 22, 73, 23, 18, 20, 20]
7.2[19, 19, 24, 75, 22, 19, 17, 19]
7.222[18, 18, 24, 75, 22, 20, 18, 21]
7.245[17, 20, 24, 75, 22, 19, 19, 21]
7.26[16, 21, 23, 54, 22, 21, 19, 20]
7.283[16, 23, 24, 40, 23, 21, 17, 21]
7.305[15, 22, 23, 39, 23, 22, 19, 20]
7.32[16, 22, 23, 60, 23, 21, 19, 18]
7.342[16, 20, 24, 63, 23, 21, 18, 16]
7.365[17, 22, 22, 63, 21, 20, 18, 17]
7.38[18, 21, 20, 63, 19, 18, 20, 16]
7.402[19, 20, 20, 59, 18, 17, 18, 15]
7.425[17, 19, 20, 37, 19, 18, 19, 17]
7.44[19, 20, 19, 30, 19, 18, 18, 16]
7.462[19, 19, 21, 26, 19, 17, 19, 17]
7.485[20, 20, 23, 22, 21, 20, 17, 18]
7.5[20, 20, 23, 21, 21, 19, 19, 19]
7.522[20, 21, 21, 23, 20, 19, 17, 20]
7.545[22, 21, 22, 22, 19, 19, 18, 21]
7.56[21, 22, 22, 53, 22, 20, 20, 20]
7.582[19, 21, 21, 56, 23, 20, 20, 20]
7.605[20, 21, 20, 57, 24, 19, 19, 20]
7.62[20, 21, 22, 56, 24, 19, 21, 19]
7.644[19, 22, 22, 57, 24, 18, 20, 19]
7.665[19, 20, 23, 31, 22, 18, 20, 19]
7.68[20, 20, 22, 24, 20, 17, 20, 20]
7.702[19, 22, 24, 45, 22, 18, 20, 21]
7.725[20, 22, 27, 69, 24, 18, 20, 22]
7.74[20, 21, 27, 72, 25, 18, 21, 21]
7.763[21, 21, 27, 83, 27, 21, 21, 22]
7.785[20, 21, 27, 95, 29, 23, 20, 21]
7.8[21, 22, 26, 92, 29, 22, 21, 20]
7.831[20, 23, 22, 86, 28, 22, 21, 19]
7.845[20, 23, 26, 113, 29, 23, 20, 19]
7.869[19, 25, 29, 116, 28, 21, 19, 18]
7.884[20, 25, 29, 107, 26, 19, 19, 19]
7.905[20, 23, 29, 103, 25, 20, 19, 21]
7.928[19, 20, 29, 97, 23, 20, 19, 21]
7.942[20, 22, 26, 62, 20, 19, 21, 21]
7.965[22, 19, 21, 36, 19, 18, 21, 21]
7.988[22, 18, 22, 35, 20, 18, 21, 20]
8.003[20, 18, 22, 33, 20, 17, 20, 19]
8.033[22, 19, 24, 49, 22, 17, 20, 18]
8.056[20, 18, 25, 55, 25, 18, 19, 18]
8.062[19, 19, 30, 124, 40, 22, 19, 19]
8.085[20, 22, 31, 135, 44, 21, 23, 20]
8.108[19, 23, 32, 136, 45, 23, 23, 19]
8.122[19, 22, 30, 133, 44, 23, 25, 20]
8.145[20, 22, 29, 139, 44, 23, 24, 19]
8.168[18, 22, 26, 94, 31, 20, 23, 19]
8.191[17, 21, 24, 85, 29, 19, 20, 18]
8.205[17, 19, 24, 85, 28, 18, 21, 18]
8.236[17, 20, 25, 81, 29, 20, 18, 19]
8.242[17, 20, 25, 67, 27, 18, 21, 20]
8.265[18, 19, 23, 53, 27, 19, 22, 20]
8.288[19, 19, 22, 39, 22, 20, 21, 19]
8.303[22, 21, 22, 34, 21, 22, 19, 18]
8.326[21, 22, 22, 38, 22, 21, 19, 18]
8.348[22, 23, 23, 43, 24, 22, 18, 19]
8.362[21, 25, 23, 78, 26, 23, 17, 19]
8.385[21, 25, 24, 81, 29, 21, 16, 20]
8.408[19, 24, 23, 84, 29, 21, 18, 21]
8.422[19, 22, 23, 89, 29, 22, 18, 21]
8.445[21, 21, 22, 89, 28, 20, 19, 20]
8.468[21, 18, 22, 60, 25, 19, 19, 19]
8.482[21, 17, 21, 55, 23, 20, 20, 18]
8.505[21, 17, 21, 51, 23, 19, 18, 21]
8.528[21, 20, 22, 37, 21, 17, 18, 22]
8.543[20, 21, 25, 87, 26, 21, 16, 22]
8.565[20, 23, 25, 93, 28, 20, 17, 22]
8.588[20, 23, 25, 95, 27, 20, 17, 22]
8.602[19, 23, 25, 95, 26, 20, 18, 21]
8.625[20, 22, 25, 101, 26, 22, 19, 18]
8.648[18, 22, 20, 59, 22, 20, 19, 18]
8.663[18, 20, 20, 48, 20, 21, 19, 17]
8.685[17, 23, 20, 44, 20, 22, 18, 20]
8.715[18, 22, 20, 43, 20, 22, 17, 20]
8.73[17, 24, 21, 23, 20, 20, 16, 21]
8.745[20, 22, 21, 26, 19, 21, 16, 21]
8.768[20, 23, 22, 32, 20, 20, 15, 21]
8.791[20, 21, 22, 32, 19, 21, 16, 21]
8.805[21, 23, 22, 33, 19, 20, 15, 20]
8.828[22, 20, 21, 40, 21, 20, 16, 20]
8.851[19, 22, 23, 91, 25, 19, 17, 23]
8.865[19, 24, 24, 96, 26, 18, 19, 23]
8.888[18, 24, 25, 100, 26, 17, 18, 21]
8.918[20, 22, 25, 102, 25, 16, 18, 22]
8.925[19, 23, 25, 108, 27, 17, 18, 22]
8.948[20, 21, 24, 73, 23, 15, 17, 19]
8.971[19, 19, 22, 67, 23, 16, 15, 21]
8.993[21, 19, 20, 62, 23, 18, 15, 21]
9.008[19, 19, 21, 60, 23, 20, 16, 21]
9.031[19, 22, 23, 58, 21, 20, 18, 22]
9.045[20, 22, 21, 68, 23, 20, 20, 23]
9.068[21, 21, 21, 73, 23, 22, 22, 21]
9.098[19, 23, 22, 77, 22, 21, 22, 21]
9.106[20, 23, 23, 76, 22, 21, 22, 21]
9.128[20, 20, 22, 70, 22, 21, 21, 19]
9.15[18, 22, 22, 61, 20, 23, 19, 17]
9.165[20, 21, 21, 65, 20, 20, 17, 19]
9.189[19, 19, 23, 76, 21, 21, 20, 19]
9.211[20, 20, 25, 82, 23, 18, 20, 20]
9.226[21, 21, 25, 96, 24, 20, 19, 19]
9.248[21, 20, 27, 106, 26, 27, 41, 24]
9.271[21, 21, 28, 100, 27, 30, 48, 23]
9.293[22, 22, 28, 108, 30, 37, 49, 25]
9.308[22, 22, 28, 138, 37, 43, 53, 27]
9.33[22, 21, 26, 129, 40, 49, 67, 30]
9.345[22, 21, 30, 137, 39, 64, 69, 29]
9.368[73, 26, 31, 145, 42, 85, 90, 164]
9.391[87, 30, 31, 135, 50, 126, 116, 317]
9.405[122, 32, 28, 99, 51, 216, 137, 382]
9.436[137, 38, 33, 100, 55, 250, 184, 491]
9.451[150, 42, 30, 75, 56, 260, 212, 520]
9.465[138, 40, 28, 55, 59, 287, 222, 505]
9.488[136, 37, 27, 53, 55, 297, 221, 481]
9.511[116, 37, 27, 56, 51, 241, 222, 472]
9.525[104, 36, 23, 59, 46, 227, 229, 445]
9.548[137, 39, 27, 60, 48, 231, 266, 539]
9.57[141, 40, 29, 59, 44, 194, 259, 556]
9.585[137, 41, 33, 52, 41, 162, 262, 533]
9.608[132, 39, 32, 47, 38, 168, 258, 526]
9.631[136, 36, 31, 35, 37, 150, 238, 495]
9.653[98, 30, 27, 27, 32, 127, 292, 422]
9.668[113, 29, 26, 25, 29, 130, 298, 408]
9.691[118, 29, 23, 26, 33, 126, 310, 411]
9.705[126, 30, 26, 26, 37, 116, 367, 469]
9.728[166, 56, 28, 28, 39, 110, 398, 478]
9.751[386, 134, 39, 33, 41, 108, 337, 437]
9.773[453, 238, 51, 35, 45, 106, 382, 538]
9.788[551, 288, 63, 42, 48, 118, 402, 542]
9.81[567, 290, 62, 41, 50, 124, 365, 486]
9.833[567, 288, 66, 48, 60, 159, 387, 529]
9.863[607, 309, 70, 55, 77, 188, 432, 543]
9.87[702, 268, 66, 57, 77, 209, 471, 471]
9.893[783, 248, 62, 58, 81, 218, 521, 464]
9.908[816, 256, 65, 61, 84, 228, 536, 485]
9.93[855, 272, 63, 56, 79, 224, 572, 410]
9.953[805, 239, 56, 52, 71, 213, 540, 450]
9.968[746, 222, 53, 53, 73, 235, 509, 453]
9.991[602, 197, 50, 49, 74, 294, 517, 484]
10.013[586, 205, 53, 51, 72, 301, 528, 555]
10.036[555, 192, 52, 53, 72, 301, 484, 599]
10.05[521, 192, 50, 51, 67, 291, 520, 607]
10.073[660, 230, 63, 54, 75, 283, 594, 593]
10.088[840, 338, 71, 57, 71, 216, 548, 614]
10.111[881, 371, 74, 56, 71, 204, 536, 555]
10.133[867, 376, 77, 59, 76, 193, 526, 545]
10.148[884, 374, 83, 62, 85, 204, 499, 588]
10.171[770, 364, 83, 66, 87, 229, 464, 691]
10.193[679, 276, 77, 64, 89, 234, 470, 789]
10.208[628, 223, 71, 63, 108, 245, 476, 799]
10.231[753, 234, 72, 62, 105, 255, 462, 822]
10.253[775, 269, 65, 57, 97, 246, 461, 806]
10.267[767, 249, 56, 48, 88, 215, 442, 755]
10.291[695, 238, 53, 50, 87, 211, 437, 654]
10.314[700, 270, 62, 53, 76, 208, 421, 658]
10.335[657, 258, 59, 53, 76, 195, 461, 677]
10.351[646, 235, 67, 64, 82, 195, 529, 671]
10.38[659, 242, 68, 64, 88, 177, 468, 726]
10.389[699, 235, 67, 67, 87, 172, 456, 757]
10.411[684, 206, 61, 69, 83, 161, 453, 776]
10.432[642, 225, 65, 71, 94, 166, 421, 729]
10.455[635, 197, 54, 60, 94, 175, 329, 749]
10.471[628, 188, 48, 57, 94, 179, 319, 677]
10.492[714, 268, 61, 60, 99, 169, 316, 675]
10.509[768, 265, 58, 56, 96, 164, 328, 655]
10.532[749, 253, 56, 54, 80, 150, 287, 633]
10.554[756, 256, 55, 52, 86, 171, 261, 558]
10.569[740, 249, 58, 58, 88, 153, 263, 620]
10.591[698, 224, 52, 49, 85, 201, 332, 605]
10.62[707, 230, 57, 54, 86, 213, 315, 659]
10.629[708, 222, 57, 55, 91, 249, 326, 652]
10.659[659, 218, 59, 61, 83, 248, 323, 653]
10.68[686, 221, 60, 59, 77, 293, 366, 716]
10.695[665, 179, 66, 69, 80, 291, 293, 823]
10.71[645, 189, 71, 71, 100, 296, 293, 803]
10.734[711, 221, 74, 72, 106, 295, 302, 832]
10.763[738, 217, 74, 87, 109, 298, 300, 852]
10.77[749, 216, 79, 90, 111, 318, 247, 817]
10.792[683, 208, 69, 86, 106, 330, 228, 723]
10.815[614, 180, 58, 99, 84, 341, 221, 718]
10.831[503, 123, 52, 133, 73, 328, 193, 721]
10.852[442, 119, 52, 135, 72, 318, 185, 687]
10.875[412, 121, 39, 140, 74, 283, 198, 607]
10.89[538, 100, 47, 150, 84, 244, 216, 618]
10.912[628, 126, 57, 145, 92, 213, 205, 669]
10.936[673, 146, 58, 118, 95, 225, 217, 654]
10.95[721, 154, 59, 109, 95, 241, 228, 676]
10.972[721, 161, 62, 108, 91, 247, 211, 735]
10.995[672, 176, 60, 101, 89, 256, 232, 768]
11.01[588, 157, 50, 90, 85, 339, 241, 672]
11.04[528, 137, 49, 83, 86, 330, 227, 656]
11.063[447, 129, 47, 85, 83, 330, 225, 627]
11.071[393, 109, 42, 72, 83, 309, 216, 572]
11.092[348, 87, 43, 77, 84, 353, 208, 503]
11.115[468, 107, 46, 80, 88, 315, 183, 582]
11.145[561, 132, 45, 81, 86, 307, 185, 647]
11.152[611, 136, 46, 75, 87, 301, 258, 743]
11.175[606, 138, 46, 74, 85, 312, 279, 724]
11.19[607, 152, 46, 57, 75, 269, 262, 672]
11.214[530, 133, 44, 54, 74, 298, 323, 652]
11.243[434, 109, 44, 52, 72, 313, 330, 578]
11.25[367, 103, 42, 51, 77, 311, 273, 521]
11.272[381, 108, 44, 52, 81, 308, 257, 551]
11.295[408, 95, 37, 48, 80, 317, 272, 714]
11.31[423, 107, 36, 45, 73, 286, 217, 704]
11.332[443, 111, 38, 47, 94, 274, 210, 716]
11.355[458, 114, 37, 44, 90, 260, 222, 715]
11.369[475, 116, 49, 47, 92, 253, 273, 769]
11.392[466, 108, 57, 50, 97, 276, 318, 655]
11.423[476, 119, 62, 58, 100, 289, 363, 732]
11.437[491, 131, 76, 69, 85, 298, 395, 743]
11.453[507, 133, 76, 70, 84, 332, 406, 753]
11.475[536, 128, 70, 67, 79, 328, 441, 697]
11.491[503, 120, 67, 69, 81, 299, 441, 725]
11.52[495, 105, 65, 71, 89, 265, 439, 649]
11.535[540, 94, 51, 63, 88, 303, 440, 661]
11.565[544, 96, 51, 65, 91, 297, 451, 638]
11.572[526, 97, 50, 64, 92, 308, 386, 658]
11.603[522, 104, 50, 61, 89, 311, 349, 577]
11.617[546, 97, 45, 56, 79, 299, 301, 547]
11.632[513, 96, 42, 56, 79, 251, 267, 599]
11.663[528, 97, 41, 57, 75, 230, 224, 660]
11.677[499, 95, 40, 56, 71, 218, 235, 634]
11.7[471, 85, 39, 56, 71, 203, 286, 747]
11.715[497, 111, 50, 60, 79, 280, 396, 764]
11.737[480, 108, 53, 62, 76, 292, 460, 716]
11.768[488, 108, 56, 66, 83, 330, 481, 708]
11.775[516, 111, 61, 70, 90, 341, 492, 769]
11.797[523, 116, 61, 67, 84, 367, 481, 682]
11.812[470, 92, 53, 61, 73, 310, 411, 696]
11.843[473, 99, 55, 61, 74, 306, 491, 785]
11.857[459, 103, 55, 66, 98, 302, 537, 814]
11.872[557, 160, 60, 82, 129, 318, 524, 792]
11.896[588, 167, 58, 87, 143, 312, 507, 769]
11.917[644, 186, 58, 95, 155, 348, 553, 785]
11.939[673, 192, 60, 104, 182, 392, 521, 692]
11.955[712, 233, 72, 140, 213, 374, 477, 585]
11.978[671, 214, 75, 161, 273, 392, 525, 483]
11.992[676, 213, 91, 223, 376, 387, 530, 555]
12.023[623, 198, 100, 257, 429, 373, 511, 518]
12.045[597, 195, 102, 265, 436, 330, 449, 629]
12.052[595, 159, 98, 247, 421, 333, 428, 640]
12.074[554, 153, 93, 229, 380, 320, 397, 696]
12.097[591, 171, 85, 171, 281, 306, 406, 719]
12.119[591, 177, 75, 109, 190, 280, 350, 706]
12.135[581, 172, 67, 76, 145, 280, 348, 627]
12.157[509, 153, 63, 72, 136, 260, 368, 614]
12.173[521, 154, 58, 70, 126, 256, 345, 577]
12.195[438, 124, 46, 60, 107, 238, 324, 500]
12.226[419, 119, 47, 60, 90, 259, 339, 465]
12.232[405, 115, 47, 61, 90, 238, 302, 408]
12.255[395, 114, 44, 57, 83, 238, 361, 414]
12.277[364, 94, 42, 72, 124, 183, 376, 438]
12.292[433, 118, 47, 83, 135, 185, 381, 421]
12.315[465, 126, 44, 84, 134, 164, 376, 465]
12.337[489, 133, 42, 82, 131, 151, 376, 478]
12.359[491, 131, 41, 82, 126, 136, 338, 494]
12.374[471, 140, 45, 76, 92, 129, 316, 468]
12.397[407, 121, 40, 65, 85, 133, 311, 458]
12.412[371, 111, 40, 61, 86, 110, 305, 424]
12.434[439, 116, 42, 66, 88, 124, 290, 388]
12.457[460, 129, 46, 72, 95, 127, 288, 427]
12.472[460, 117, 44, 64, 84, 127, 287, 462]
12.503[469, 125, 43, 68, 73, 124, 274, 497]
12.517[562, 138, 46, 80, 73, 121, 260, 535]
12.532[482, 128, 44, 78, 67, 125, 265, 564]
12.555[478, 119, 41, 77, 73, 113, 260, 492]
12.577[488, 120, 41, 80, 81, 121, 261, 477]
12.601[485, 120, 42, 86, 82, 115, 258, 463]
12.615[350, 101, 41, 89, 78, 128, 270, 441]
12.637[382, 109, 42, 92, 78, 112, 259, 413]
12.66[402, 112, 44, 92, 70, 124, 228, 449]
12.675[421, 114, 42, 87, 59, 110, 234, 418]
12.697[397, 110, 41, 77, 58, 120, 284, 415]
12.728[410, 115, 42, 64, 71, 134, 334, 418]
12.735[374, 100, 39, 59, 77, 140, 344, 457]
12.757[367, 99, 33, 53, 74, 137, 327, 441]
12.78[422, 125, 40, 52, 76, 141, 344, 465]
12.795[474, 138, 41, 50, 76, 135, 308, 449]
12.817[489, 136, 41, 50, 68, 115, 247, 463]
12.84[488, 139, 41, 50, 65, 108, 223, 422]
12.855[457, 133, 43, 48, 61, 97, 217, 417]
12.877[417, 111, 38, 50, 59, 96, 172, 373]
12.908[474, 109, 40, 54, 66, 112, 190, 373]
12.915[474, 109, 37, 52, 62, 107, 186, 292]
12.937[481, 109, 38, 49, 57, 100, 184, 343]
12.961[547, 130, 39, 51, 63, 104, 198, 398]
12.983[531, 125, 41, 49, 63, 97, 183, 397]
12.998[480, 139, 56, 47, 60, 73, 185, 445]
13.02[468, 143, 65, 40, 61, 72, 183, 453]
13.035[457, 142, 70, 39, 62, 76, 188, 427]
13.057[361, 124, 68, 35, 55, 77, 164, 350]
13.088[322, 123, 67, 34, 52, 76, 163, 342]
13.103[335, 106, 53, 30, 45, 78, 119, 302]
13.118[317, 109, 42, 33, 49, 85, 120, 289]
13.14[402, 122, 35, 34, 51, 91, 115, 296]
13.154[414, 130, 39, 37, 50, 89, 123, 309]
13.177[492, 142, 42, 39, 57, 97, 144, 342]
13.2[463, 132, 41, 38, 57, 91, 148, 349]
13.215[486, 126, 39, 37, 51, 83, 160, 393]
13.237[460, 119, 38, 40, 52, 79, 198, 419]
13.26[524, 125, 36, 39, 57, 78, 204, 426]
13.275[464, 106, 32, 35, 62, 80, 197, 417]
13.297[444, 101, 30, 36, 64, 86, 194, 374]
13.32[436, 103, 30, 39, 64, 90, 188, 363]
13.335[482, 149, 36, 40, 66, 89, 167, 363]
13.357[411, 148, 34, 38, 62, 93, 153, 380]
13.388[393, 152, 38, 46, 61, 117, 157, 436]
13.395[403, 153, 38, 46, 77, 122, 160, 437]
13.417[425, 152, 37, 44, 79, 117, 147, 411]
13.44[392, 119, 33, 42, 77, 116, 131, 370]
13.463[395, 104, 32, 45, 92, 117, 175, 411]
13.477[425, 110, 30, 39, 91, 95, 169, 326]
13.5[471, 120, 32, 40, 79, 89, 171, 333]
13.515[441, 112, 33, 42, 88, 94, 179, 365]
13.537[423, 101, 33, 41, 87, 101, 185, 443]
13.56[444, 117, 39, 41, 75, 100, 155, 419]
13.583[463, 118, 40, 42, 76, 100, 152, 441]
13.605[417, 108, 40, 44, 74, 98, 142, 430]
13.622[463, 119, 39, 41, 64, 103, 132, 409]
13.644[445, 118, 40, 43, 65, 101, 113, 348]
13.657[475, 114, 37, 42, 62, 111, 108, 307]
13.695[457, 110, 36, 42, 60, 102, 106, 280]
13.703[439, 107, 33, 41, 63, 98, 114, 287]
13.717[373, 93, 35, 39, 62, 97, 114, 269]
13.748[385, 89, 32, 38, 74, 110, 120, 279]
13.763[372, 94, 32, 44, 78, 108, 139, 325]
13.777[364, 91, 31, 46, 80, 119, 159, 360]
13.8[360, 94, 34, 47, 77, 118, 153, 357]
13.823[395, 107, 32, 47, 76, 115, 156, 357]
13.837[387, 105, 34, 65, 61, 113, 152, 316]
13.861[377, 94, 37, 84, 63, 111, 125, 274]
13.898[408, 97, 39, 88, 56, 108, 103, 328]
13.9[440, 102, 38, 89, 59, 120, 104, 350]
13.92[442, 97, 38, 91, 73, 123, 109, 354]
13.943[572, 156, 40, 79, 77, 115, 107, 404]
13.965[555, 155, 36, 52, 73, 111, 121, 389]
13.98[558, 165, 34, 43, 73, 101, 134, 313]
14.003[558, 169, 34, 38, 69, 88, 139, 306]
14.017[564, 173, 34, 34, 61, 89, 138, 327]
14.04[430, 126, 31, 29, 65, 83, 131, 257]
14.063[429, 133, 33, 29, 71, 84, 141, 309]
14.077[456, 133, 31, 34, 81, 104, 149, 312]
14.1[469, 131, 31, 37, 84, 113, 150, 326]
14.123[455, 133, 30, 37, 83, 105, 149, 357]
14.145[448, 137, 29, 40, 84, 105, 151, 403]
14.161[448, 130, 25, 39, 76, 108, 130, 388]
14.183[371, 122, 31, 38, 67, 99, 126, 378]
14.197[333, 125, 33, 37, 65, 105, 122, 341]
14.22[316, 113, 33, 40, 66, 108, 123, 326]
14.243[292, 103, 34, 41, 60, 110, 118, 263]
14.257[261, 102, 36, 40, 64, 118, 127, 243]
14.28[327, 110, 34, 38, 61, 123, 115, 255]
14.303[338, 115, 36, 39, 63, 122, 124, 316]
14.318[379, 117, 38, 36, 59, 125, 134, 299]
14.34[461, 128, 40, 33, 61, 127, 137, 299]
14.37[560, 133, 40, 33, 59, 118, 141, 302]
14.377[546, 128, 41, 37, 63, 118, 149, 319]
14.4[571, 121, 39, 35, 60, 116, 176, 352]
14.423[565, 124, 39, 37, 60, 115, 174, 405]
14.446[516, 117, 36, 37, 73, 112, 176, 436]
14.46[482, 115, 33, 38, 76, 115, 168, 447]
14.483[486, 107, 30, 34, 73, 114, 153, 446]
14.505[458, 106, 29, 34, 77, 112, 113, 392]
14.52[456, 110, 28, 31, 78, 105, 117, 374]
14.55[496, 132, 31, 29, 59, 108, 115, 409]
14.565[437, 133, 31, 28, 54, 109, 132, 391]
14.58[423, 130, 33, 29, 57, 100, 137, 368]
14.603[425, 137, 34, 27, 55, 93, 142, 374]
14.625[458, 140, 32, 24, 52, 93, 144, 363]
14.648[417, 120, 33, 28, 54, 97, 162, 311]
14.67[535, 127, 35, 31, 54, 88, 146, 311]
14.685[511, 123, 32, 31, 56, 94, 138, 308]
14.7[490, 109, 31, 33, 65, 92, 133, 305]
14.723[462, 111, 31, 35, 66, 96, 120, 302]
14.753[464, 111, 30, 34, 65, 91, 104, 280]
14.76[380, 116, 29, 34, 67, 95, 129, 312]
14.783[397, 124, 31, 34, 62, 100, 128, 309]
14.805[387, 122, 32, 34, 49, 101, 121, 292]
14.828[383, 112, 32, 31, 49, 108, 121, 240]
14.843[461, 129, 32, 32, 55, 108, 118, 241]
14.873[432, 133, 37, 31, 72, 111, 99, 222]
14.88[427, 127, 36, 35, 78, 106, 103, 234]
14.903[444, 130, 36, 33, 76, 102, 125, 259]
14.925[520, 153, 41, 35, 75, 101, 119, 253]
14.948[480, 145, 40, 34, 72, 105, 123, 388]
14.963[488, 144, 37, 34, 57, 95, 132, 458]
14.985[512, 151, 47, 40, 72, 103, 146, 515]
15.0[528, 157, 48, 44, 73, 111, 141, 532]
15.023[429, 132, 45, 45, 78, 106, 146, 548]
15.045[433, 128, 44, 47, 76, 98, 153, 509]
15.059[430, 115, 49, 54, 78, 105, 148, 475]
15.083[403, 110, 43, 50, 84, 101, 154, 459]
15.113[370, 99, 41, 49, 89, 100, 151, 431]
15.128[419, 108, 41, 48, 87, 96, 153, 414]
15.15[418, 113, 47, 50, 89, 109, 142, 506]
15.173[424, 111, 40, 41, 90, 118, 142, 515]
15.188[462, 107, 40, 40, 66, 112, 139, 543]
15.203[477, 115, 41, 39, 66, 114, 131, 550]
15.225[421, 101, 42, 43, 67, 114, 123, 551]
15.239[390, 88, 36, 67, 66, 119, 128, 423]
15.263[365, 92, 39, 74, 68, 108, 120, 359]
15.286[314, 93, 37, 74, 86, 127, 116, 327]
15.307[287, 84, 35, 79, 90, 131, 112, 351]
15.324[320, 88, 33, 119, 95, 134, 112, 364]
15.36[377, 111, 36, 115, 93, 122, 122, 437]
15.383[450, 112, 33, 114, 91, 125, 133, 452]
15.385[452, 121, 35, 115, 80, 106, 121, 417]
15.404[481, 134, 38, 115, 75, 92, 136, 396]
15.428[500, 137, 40, 77, 72, 100, 172, 523]
15.451[443, 122, 37, 66, 72, 106, 164, 464]
15.465[356, 115, 37, 58, 67, 100, 156, 481]
15.487[414, 127, 42, 59, 77, 103, 167, 485]
15.504[413, 133, 43, 52, 81, 111, 173, 562]
15.525[401, 134, 44, 47, 80, 106, 143, 461]
15.555[405, 125, 42, 42, 78, 101, 142, 477]
15.564[440, 140, 42, 51, 78, 117, 162, 516]
15.584[416, 126, 37, 48, 67, 111, 157, 619]
15.615[407, 110, 32, 47, 62, 116, 145, 554]
15.624[385, 106, 34, 52, 61, 110, 158, 588]
15.661[387, 129, 40, 54, 65, 109, 154, 571]
15.667[378, 122, 38, 57, 67, 88, 136, 528]
15.683[430, 147, 40, 60, 69, 86, 149, 428]
15.706[440, 154, 42, 60, 68, 68, 148, 463]
15.728[466, 163, 39, 53, 75, 82, 137, 449]
15.743[528, 168, 35, 53, 74, 89, 150, 473]
15.766[514, 165, 36, 42, 74, 94, 143, 452]
15.787[472, 143, 33, 36, 79, 95, 116, 408]
15.803[554, 153, 32, 42, 81, 104, 108, 402]
15.832[552, 148, 31, 41, 73, 97, 104, 343]
15.855[558, 152, 36, 40, 73, 93, 134, 499]
15.863[565, 146, 38, 37, 77, 92, 141, 519]
15.892[537, 140, 40, 42, 70, 92, 142, 526]
15.907[444, 122, 38, 34, 64, 87, 155, 523]
15.923[471, 136, 43, 35, 66, 94, 148, 547]
15.946[387, 105, 41, 34, 68, 96, 120, 391]
15.968[421, 121, 39, 37, 75, 96, 130, 420]
15.983[467, 132, 39, 34, 70, 100, 128, 414]
16.004[479, 128, 40, 37, 73, 114, 116, 370]
16.043[518, 136, 40, 42, 74, 117, 121, 330]
16.045[529, 146, 37, 41, 70, 148, 131, 320]
16.064[485, 133, 40, 42, 56, 209, 153, 272]
16.087[451, 122, 39, 42, 54, 258, 190, 257]
16.103[423, 120, 38, 40, 50, 277, 193, 243]
16.124[377, 114, 35, 33, 43, 282, 192, 223]
16.147[357, 100, 34, 36, 58, 298, 196, 211]
16.163[375, 108, 33, 33, 56, 304, 202, 187]
16.185[459, 117, 30, 31, 59, 290, 184, 180]
16.208[460, 119, 31, 31, 62, 323, 210, 197]
16.222[409, 91, 26, 32, 62, 351, 218, 210]
16.244[539, 146, 29, 30, 53, 326, 204, 233]
16.267[530, 144, 28, 31, 54, 294, 172, 231]
16.282[486, 147, 32, 32, 63, 328, 185, 242]
16.312[518, 150, 34, 31, 69, 298, 170, 225]
16.327[511, 152, 35, 31, 72, 288, 185, 216]
16.342[387, 108, 33, 30, 73, 325, 202, 190]
16.365[400, 103, 34, 31, 73, 324, 211, 185]
16.389[358, 93, 30, 29, 63, 272, 189, 198]
16.41[295, 82, 29, 34, 61, 247, 183, 199]
16.424[286, 76, 29, 35, 59, 253, 163, 193]
16.447[271, 66, 28, 37, 58, 258, 169, 175]
16.469[266, 74, 26, 36, 68, 324, 167, 191]
16.492[341, 75, 30, 37, 77, 331, 171, 163]
16.507[402, 119, 31, 36, 79, 372, 166, 179]
16.53[409, 122, 33, 37, 89, 410, 223, 207]
16.544[407, 122, 34, 36, 90, 399, 222, 211]
16.567[415, 130, 36, 37, 82, 364, 221, 182]
16.589[441, 153, 38, 39, 84, 358, 217, 185]
16.613[466, 161, 42, 41, 77, 327, 220, 212]
16.627[474, 161, 42, 42, 68, 252, 168, 191]
16.65[492, 163, 41, 43, 68, 220, 154, 197]
16.664[594, 189, 44, 42, 73, 190, 165, 253]
16.688[555, 173, 40, 41, 89, 184, 167, 262]
16.71[505, 139, 35, 36, 93, 181, 155, 258]
16.724[516, 143, 34, 35, 93, 169, 155, 282]
16.747[500, 142, 34, 34, 93, 177, 137, 285]
16.778[374, 93, 31, 36, 96, 282, 153, 264]
16.784[348, 86, 33, 37, 102, 389, 185, 266]
16.807[350, 96, 32, 38, 101, 406, 196, 246]
16.838[417, 105, 34, 36, 99, 407, 186, 244]
16.852[504, 112, 34, 37, 98, 412, 187, 261]
16.867[492, 114, 31, 33, 93, 358, 164, 228]
16.89[520, 127, 35, 32, 68, 263, 133, 221]
16.904[526, 125, 35, 32, 64, 233, 124, 250]
16.929[462, 126, 36, 32, 65, 235, 127, 225]
16.949[427, 127, 36, 30, 72, 233, 129, 203]
16.966[414, 122, 38, 31, 75, 232, 134, 226]
16.987[410, 112, 33, 29, 67, 236, 138, 244]
17.018[431, 122, 34, 30, 64, 258, 150, 212]
17.024[441, 105, 31, 31, 71, 259, 150, 239]
17.047[390, 96, 31, 33, 70, 253, 151, 248]
17.069[428, 106, 30, 32, 70, 273, 137, 228]
17.092[406, 104, 32, 35, 78, 273, 154, 217]
17.115[427, 107, 34, 34, 79, 252, 140, 222]
17.129[425, 112, 36, 36, 79, 253, 141, 198]
17.146[408, 109, 36, 35, 74, 250, 135, 202]
17.168[364, 101, 36, 37, 72, 230, 154, 200]
17.19[472, 128, 35, 35, 67, 210, 142, 198]
17.213[482, 118, 35, 38, 73, 221, 141, 205]
17.243[464, 111, 34, 37, 75, 230, 142, 221]
17.249[459, 113, 34, 36, 78, 232, 147, 202]
17.265[465, 115, 33, 35, 79, 219, 126, 202]
17.287[389, 83, 33, 36, 81, 237, 113, 197]
17.319[341, 87, 32, 40, 82, 256, 118, 229]
17.34[335, 90, 31, 42, 86, 260, 124, 241]
17.347[339, 89, 33, 43, 84, 265, 132, 250]
17.369[333, 85, 33, 42, 87, 284, 145, 274]
17.392[279, 76, 31, 41, 85, 264, 141, 275]
17.407[421, 102, 34, 40, 84, 231, 153, 244]
17.431[468, 125, 34, 39, 76, 234, 148, 263]
17.452[561, 170, 42, 40, 75, 263, 153, 358]
17.467[587, 178, 43, 39, 70, 256, 153, 353]
17.498[590, 178, 43, 40, 69, 259, 155, 347]
17.52[470, 159, 40, 37, 75, 268, 137, 346]
17.527[474, 143, 41, 41, 74, 245, 142, 316]
17.549[423, 112, 39, 47, 81, 208, 156, 258]
17.58[409, 113, 39, 49, 85, 184, 143, 245]
17.595[429, 116, 39, 47, 83, 184, 146, 266]
17.61[435, 113, 39, 45, 70, 161, 141, 264]
17.632[416, 113, 39, 39, 77, 167, 157, 263]
17.647[362, 89, 34, 30, 73, 175, 165, 252]
17.669[334, 70, 34, 30, 71, 205, 199, 253]
17.692[298, 67, 36, 32, 75, 199, 201, 226]
17.707[276, 63, 35, 32, 75, 197, 208, 223]
17.729[213, 63, 33, 31, 65, 207, 193, 222]
17.752[222, 71, 32, 32, 60, 194, 178, 214]
17.767[289, 73, 32, 33, 66, 168, 145, 220]
17.805[305, 80, 32, 35, 66, 167, 171, 218]
17.812[342, 87, 34, 38, 66, 171, 166, 219]
17.835[359, 85, 34, 38, 68, 171, 164, 211]
17.858[362, 86, 32, 39, 64, 181, 153, 180]
17.872[403, 103, 36, 38, 63, 173, 179, 203]
17.888[458, 114, 36, 38, 77, 212, 159, 311]
17.911[436, 112, 35, 37, 80, 211, 167, 329]
17.932[420, 112, 34, 36, 81, 204, 168, 327]
17.949[503, 166, 37, 33, 81, 200, 184, 367]
17.97[540, 252, 46, 36, 75, 228, 234, 470]
17.992[503, 254, 44, 33, 63, 187, 233, 419]
18.008[527, 261, 46, 31, 62, 202, 240, 420]
18.029[534, 265, 47, 33, 59, 207, 255, 422]
18.052[534, 244, 46, 32, 62, 195, 238, 381]
18.067[469, 161, 35, 28, 62, 194, 175, 239]
18.09[511, 170, 38, 29, 57, 221, 168, 250]
18.112[494, 159, 36, 29, 52, 208, 181, 230]
18.127[494, 157, 36, 30, 60, 212, 154, 225]
18.149[393, 135, 33, 32, 57, 227, 158, 217]
18.173[386, 123, 33, 32, 54, 224, 147, 200]
18.187[344, 115, 35, 35, 57, 217, 153, 161]
18.209[340, 114, 35, 35, 61, 232, 152, 187]
18.233[327, 109, 32, 31, 50, 219, 162, 189]
18.247[332, 107, 33, 30, 49, 212, 181, 189]
18.269[308, 99, 38, 37, 58, 210, 202, 255]
18.293[266, 68, 33, 33, 58, 203, 210, 253]
18.315[270, 65, 34, 35, 55, 198, 199, 225]
18.33[272, 68, 35, 38, 57, 197, 201, 244]
18.353[248, 69, 36, 41, 66, 194, 199, 259]
18.375[249, 85, 30, 38, 74, 161, 187, 194]
18.389[262, 91, 31, 38, 72, 158, 194, 259]
18.413[299, 95, 29, 38, 74, 152, 182, 265]
18.435[337, 111, 33, 40, 73, 158, 174, 255]
18.449[350, 110, 31, 37, 65, 151, 154, 237]
18.473[391, 103, 36, 35, 48, 150, 140, 233]
18.503[433, 99, 35, 35, 43, 136, 130, 230]
18.509[413, 99, 36, 34, 42, 121, 152, 244]
18.533[399, 81, 32, 30, 41, 111, 179, 270]
18.555[387, 82, 33, 28, 59, 107, 178, 277]
18.569[319, 79, 26, 27, 57, 112, 174, 284]
18.592[259, 80, 30, 27, 59, 105, 166, 233]
18.615[249, 73, 30, 27, 58, 103, 138, 215]
18.638[238, 70, 30, 29, 60, 113, 103, 174]
18.652[326, 90, 32, 31, 63, 145, 110, 239]
18.675[341, 85, 33, 34, 83, 167, 132, 225]
18.689[321, 81, 33, 35, 87, 165, 125, 271]
18.713[370, 89, 32, 35, 87, 170, 134, 269]
18.735[425, 109, 37, 35, 87, 180, 140, 275]
18.749[385, 97, 35, 33, 73, 162, 136, 272]
18.78[398, 100, 36, 32, 60, 143, 126, 278]
18.795[497, 135, 36, 31, 59, 159, 160, 297]
18.818[467, 133, 36, 31, 62, 172, 162, 301]
18.832[428, 124, 32, 31, 62, 171, 212, 362]
18.855[437, 129, 33, 33, 63, 168, 214, 328]
18.869[429, 130, 32, 30, 54, 161, 211, 324]
18.893[371, 97, 31, 29, 52, 176, 196, 287]
18.915[450, 111, 33, 31, 54, 161, 190, 326]
18.93[447, 107, 29, 33, 61, 146, 151, 259]
18.953[436, 98, 28, 34, 61, 150, 146, 248]
18.975[420, 92, 27, 35, 64, 150, 150, 253]
18.989[424, 101, 26, 38, 62, 137, 136, 223]
19.013[416, 114, 25, 36, 63, 137, 149, 234]
19.035[470, 120, 32, 33, 65, 146, 142, 255]
19.058[461, 120, 34, 31, 65, 160, 145, 259]
19.073[465, 125, 34, 30, 64, 161, 138, 267]
19.096[443, 128, 35, 27, 61, 142, 144, 270]
19.11[402, 113, 34, 26, 58, 138, 144, 213]
19.132[397, 121, 31, 27, 50, 120, 146, 214]
19.163[475, 137, 30, 33, 53, 91, 176, 227]
19.169[497, 137, 31, 42, 55, 100, 183, 222]
19.193[497, 139, 30, 44, 57, 111, 178, 229]
19.215[485, 136, 30, 44, 55, 119, 175, 236]
19.238[537, 161, 32, 43, 53, 142, 165, 204]
19.26[555, 176, 38, 41, 61, 142, 129, 185]
19.275[541, 174, 39, 37, 58, 130, 118, 170]
19.298[535, 162, 39, 37, 58, 128, 116, 178]
19.313[521, 162, 40, 46, 59, 122, 97, 156]
19.335[442, 127, 39, 90, 60, 88, 79, 163]
19.358[376, 96, 40, 130, 65, 118, 94, 199]
19.38[379, 97, 39, 133, 75, 130, 126, 230]
19.395[377, 105, 40, 135, 92, 137, 134, 261]
19.425[383, 100, 45, 137, 96, 159, 147, 275]
19.44[494, 135, 48, 113, 96, 204, 176, 276]
19.455[512, 135, 42, 65, 86, 198, 180, 304]
19.478[554, 153, 45, 60, 80, 196, 179, 378]
19.5[557, 150, 43, 52, 60, 189, 176, 385]
19.522[568, 154, 41, 42, 61, 170, 168, 403]
19.538[472, 128, 34, 42, 61, 118, 137, 397]
19.553[427, 122, 35, 45, 57, 95, 124, 363]
19.583[439, 118, 36, 42, 52, 83, 101, 276]
19.598[435, 122, 39, 47, 54, 88, 100, 230]
19.612[559, 159, 38, 58, 52, 94, 126, 330]
19.635[578, 160, 41, 58, 63, 96, 138, 341]
19.658[591, 167, 40, 54, 71, 109, 137, 352]
19.673[626, 168, 40, 55, 72, 107, 128, 377]
19.695[620, 168, 40, 56, 73, 99, 133, 393]
19.718[524, 134, 36, 43, 67, 103, 108, 288]
19.732[479, 126, 34, 40, 57, 101, 88, 295]
19.755[448, 110, 34, 37, 48, 87, 83, 284]
19.778[348, 99, 32, 35, 46, 87, 83, 255]
19.792[443, 125, 33, 31, 45, 96, 106, 340]
19.815[481, 141, 35, 32, 62, 129, 107, 356]
19.839[477, 144, 34, 36, 64, 140, 120, 357]
19.852[495, 154, 36, 40, 67, 140, 132, 362]
19.875[461, 142, 33, 38, 68, 139, 145, 401]
19.898[535, 158, 37, 41, 72, 141, 133, 414]
19.913[489, 142, 36, 39, 64, 103, 136, 398]
19.935[495, 138, 37, 38, 60, 88, 130, 399]
19.958[487, 129, 33, 36, 56, 90, 120, 392]
19.972[518, 145, 36, 39, 55, 89, 114, 339]
19.995[438, 125, 31, 36, 53, 79, 95, 198]
20.017[429, 126, 31, 36, 48, 78, 85, 195]
20.032[431, 127, 31, 33, 48, 71, 75, 149]
20.063[423, 125, 32, 34, 51, 67, 71, 140]
20.078[400, 120, 28, 47, 70, 70, 43, 132]
20.092[298, 101, 25, 50, 70, 65, 47, 190]
20.115[391, 122, 28, 52, 68, 55, 42, 218]
20.138[380, 120, 26, 52, 69, 55, 50, 229]
20.152[374, 119, 26, 56, 74, 52, 58, 237]
20.175[361, 104, 30, 46, 67, 46, 60, 238]
20.205[455, 113, 31, 43, 70, 42, 57, 193]
20.22[392, 89, 31, 44, 71, 47, 58, 172]
20.236[387, 90, 32, 45, 71, 43, 57, 207]
20.258[396, 90, 33, 40, 64, 42, 48, 203]
20.279[411, 102, 31, 39, 54, 39, 48, 201]
20.302[289, 82, 32, 38, 46, 38, 45, 193]
20.324[257, 87, 29, 33, 45, 35, 39, 169]
20.339[259, 92, 28, 30, 44, 35, 95, 93]
20.356[266, 105, 30, 28, 43, 35, 120, 86]
20.377[234, 94, 29, 31, 42, 36, 127, 162]
20.407[211, 91, 25, 29, 48, 36, 130, 165]
20.416[174, 80, 27, 33, 48, 35, 133, 167]
20.437[168, 70, 26, 38, 48, 35, 103, 169]
20.459[116, 50, 23, 40, 51, 36, 72, 216]
20.476[89, 47, 23, 37, 49, 34, 62, 185]
20.497[84, 42, 24, 37, 41, 32, 66, 179]
20.519[57, 27, 22, 34, 37, 29, 68, 181]
20.543[45, 23, 22, 29, 34, 24, 79, 181]
20.557[41, 18, 22, 35, 47, 24, 91, 117]
20.579[32, 19, 21, 37, 73, 25, 90, 70]
20.596[26, 23, 24, 43, 87, 27, 83, 65]
20.617[24, 24, 24, 44, 90, 28, 77, 46]
20.639[23, 26, 28, 44, 91, 27, 57, 37]
20.656[24, 25, 28, 45, 89, 26, 34, 31]
20.677[24, 25, 30, 50, 78, 27, 42, 30]
20.699[24, 24, 27, 55, 70, 25, 44, 27]
20.716[40, 23, 29, 60, 71, 26, 74, 280]
20.744[43, 24, 28, 70, 84, 33, 84, 304]
20.759[56, 25, 29, 75, 112, 41, 100, 373]
20.776[62, 27, 28, 72, 108, 46, 147, 410]
20.797[65, 27, 27, 69, 110, 47, 164, 436]
20.82[59, 33, 33, 91, 123, 49, 157, 345]
20.836[60, 34, 37, 127, 134, 55, 162, 359]
20.857[50, 35, 38, 131, 122, 50, 155, 296]
20.879[41, 34, 39, 136, 133, 48, 125, 246]
20.903[37, 33, 41, 136, 132, 51, 106, 204]
20.917[34, 27, 34, 122, 120, 48, 111, 190]
20.939[29, 25, 29, 86, 109, 38, 112, 161]
20.963[29, 25, 32, 73, 102, 37, 111, 176]
20.977[28, 24, 28, 61, 85, 33, 96, 187]
20.999[27, 25, 27, 57, 77, 27, 96, 195]
21.03[28, 28, 27, 54, 75, 26, 84, 201]
21.037[27, 27, 28, 52, 73, 27, 78, 247]
21.059[25, 27, 26, 55, 85, 36, 80, 234]
21.076[26, 25, 26, 54, 88, 38, 74, 226]
21.097[28, 23, 24, 55, 91, 39, 70, 219]
21.119[29, 23, 25, 55, 91, 41, 69, 213]
21.142[33, 25, 23, 50, 89, 41, 73, 188]
21.157[35, 27, 21, 42, 68, 33, 78, 225]
21.181[34, 28, 22, 41, 64, 32, 78, 225]
21.202[33, 29, 23, 47, 64, 31, 78, 221]
21.217[35, 28, 24, 50, 68, 28, 78, 223]
21.239[50, 28, 26, 42, 49, 29, 55, 161]
21.262[52, 25, 25, 41, 47, 29, 64, 181]
21.277[53, 26, 24, 44, 55, 30, 67, 192]
21.299[54, 24, 26, 37, 52, 29, 64, 192]
21.322[54, 26, 25, 33, 47, 29, 64, 192]
21.337[39, 23, 25, 32, 47, 29, 64, 192]
21.359[37, 27, 24, 30, 47, 28, 53, 143]
21.382[38, 25, 24, 27, 34, 26, 53, 146]
21.397[37, 25, 21, 26, 34, 29, 76, 200]
21.42[36, 23, 22, 25, 35, 29, 86, 233]
21.442[33, 24, 22, 23, 38, 26, 91, 246]
21.458[28, 20, 23, 24, 38, 24, 85, 231]
21.481[34, 23, 23, 22, 40, 25, 90, 266]
21.502[31, 24, 23, 21, 37, 22, 72, 228]
21.517[32, 24, 23, 20, 31, 21, 78, 246]
21.539[35, 26, 23, 21, 30, 23, 74, 239]
21.562[35, 25, 22, 22, 27, 23, 74, 238]
21.577[29, 27, 21, 22, 24, 22, 64, 183]
21.599[32, 26, 22, 23, 23, 24, 71, 215]
21.622[30, 27, 21, 23, 23, 22, 51, 156]
21.637[29, 25, 21, 21, 22, 24, 69, 199]
21.659[31, 25, 20, 23, 24, 25, 69, 200]
21.682[35, 22, 21, 25, 25, 25, 77, 208]
21.697[32, 23, 23, 28, 26, 24, 72, 183]
21.72[34, 21, 25, 29, 26, 27, 77, 211]
21.742[33, 21, 24, 30, 25, 25, 67, 187]
21.758[33, 22, 25, 29, 23, 25, 66, 187]
21.779[28, 21, 24, 28, 23, 25, 63, 185]
21.802[29, 20, 22, 24, 20, 23, 61, 180]
21.817[35, 21, 20, 24, 18, 19, 60, 155]
21.839[38, 20, 22, 22, 20, 21, 75, 212]
21.862[38, 21, 21, 22, 22, 21, 75, 212]
21.877[39, 21, 21, 23, 22, 20, 74, 212]
21.899[38, 22, 21, 23, 23, 22, 74, 209]
21.922[30, 20, 20, 20, 24, 23, 72, 199]
21.944[27, 20, 18, 22, 23, 21, 46, 102]
21.959[28, 18, 19, 22, 23, 22, 57, 183]
21.982[28, 19, 19, 22, 23, 23, 56, 191]
21.997[29, 20, 17, 22, 24, 22, 57, 195]
22.019[34, 20, 18, 23, 24, 22, 53, 195]
22.042[33, 22, 20, 20, 24, 21, 58, 193]
22.057[33, 23, 20, 21, 23, 20, 53, 150]
22.08[32, 21, 20, 21, 24, 19, 55, 169]
22.102[33, 21, 21, 20, 23, 20, 53, 170]
22.124[27, 22, 22, 18, 25, 22, 54, 170]
22.139[30, 20, 22, 19, 24, 23, 60, 188]
22.162[28, 21, 22, 17, 25, 24, 53, 160]
22.184[33, 23, 22, 19, 22, 24, 68, 171]
22.2[32, 23, 24, 21, 22, 26, 75, 194]
22.222[34, 22, 22, 22, 21, 25, 79, 203]
22.244[34, 26, 21, 23, 20, 25, 71, 188]
22.259[35, 25, 21, 23, 19, 24, 72, 190]
22.282[31, 25, 22, 23, 20, 24, 52, 142]
22.312[35, 25, 20, 22, 21, 23, 87, 248]
22.321[36, 25, 22, 23, 21, 22, 89, 252]
22.342[32, 20, 23, 22, 22, 22, 93, 260]
22.366[31, 21, 23, 22, 22, 21, 94, 263]
22.388[31, 22, 22, 21, 23, 20, 93, 265]
22.402[24, 21, 21, 20, 21, 18, 54, 138]
22.424[27, 20, 19, 20, 21, 18, 57, 205]
22.439[30, 22, 20, 20, 21, 17, 57, 199]
22.462[31, 23, 21, 21, 21, 19, 55, 196]
22.484[31, 21, 21, 21, 19, 19, 57, 198]
22.499[31, 21, 23, 22, 20, 19, 56, 197]
22.522[36, 23, 22, 23, 20, 22, 82, 281]
22.545[34, 22, 21, 22, 19, 23, 79, 284]
22.559[33, 20, 22, 21, 20, 23, 80, 288]
22.582[35, 20, 22, 20, 21, 25, 82, 288]
22.604[36, 20, 21, 20, 21, 25, 82, 288]
22.619[28, 17, 19, 18, 19, 22, 46, 128]
22.642[35, 18, 20, 19, 21, 22, 62, 205]
22.665[36, 18, 19, 18, 19, 21, 62, 209]
22.679[34, 19, 19, 19, 18, 19, 58, 206]
22.702[34, 20, 20, 23, 20, 20, 58, 204]
22.724[32, 20, 20, 22, 21, 22, 60, 202]
22.739[26, 21, 20, 23, 19, 21, 49, 145]
22.762[34, 24, 20, 24, 21, 22, 74, 208]
22.784[33, 22, 21, 24, 22, 22, 77, 215]
22.799[34, 23, 22, 20, 21, 20, 79, 219]
22.822[35, 24, 22, 22, 21, 20, 77, 217]
22.844[34, 24, 21, 19, 23, 20, 71, 192]
22.868[33, 21, 22, 19, 22, 20, 57, 172]
22.882[37, 22, 21, 19, 21, 22, 70, 185]
22.904[36, 22, 22, 21, 23, 22, 69, 187]
22.919[35, 23, 23, 21, 22, 20, 68, 187]
22.942[36, 22, 24, 22, 22, 20, 69, 191]
22.964[30, 23, 24, 22, 21, 20, 58, 135]
22.981[28, 21, 23, 22, 21, 18, 54, 176]
23.002[34, 21, 21, 22, 19, 20, 56, 183]
23.024[38, 22, 22, 22, 19, 21, 68, 209]
23.048[38, 22, 22, 21, 18, 22, 69, 212]
23.062[37, 23, 22, 22, 18, 23, 69, 209]
23.085[36, 23, 22, 21, 18, 23, 56, 151]
23.107[30, 22, 21, 20, 17, 22, 53, 132]
23.122[30, 21, 22, 19, 18, 22, 62, 187]
23.144[29, 20, 21, 19, 19, 23, 60, 186]
23.175[39, 19, 20, 18, 21, 22, 70, 201]
23.182[39, 20, 22, 21, 21, 22, 75, 209]
23.204[39, 20, 22, 21, 23, 22, 75, 209]
23.227[35, 19, 23, 21, 22, 22, 55, 123]
23.242[36, 19, 22, 21, 22, 21, 66, 172]
23.264[27, 21, 25, 24, 21, 21, 55, 162]
23.287[28, 22, 23, 21, 19, 21, 71, 215]
23.302[36, 22, 24, 21, 18, 22, 71, 219]
23.324[38, 23, 23, 20, 17, 21, 80, 232]
23.347[37, 23, 24, 22, 17, 22, 75, 211]
23.37[36, 22, 22, 20, 20, 21, 79, 232]
23.384[33, 21, 23, 20, 22, 21, 64, 180]
23.408[26, 20, 21, 20, 21, 21, 66, 177]
23.422[29, 20, 22, 22, 23, 22, 74, 212]
23.444[33, 20, 21, 21, 21, 20, 70, 201]
23.468[33, 20, 20, 20, 19, 21, 64, 170]
23.482[35, 22, 18, 21, 19, 21, 69, 201]
23.504[35, 21, 20, 20, 21, 19, 72, 205]
23.527[31, 23, 20, 20, 21, 20, 54, 155]
23.542[31, 22, 18, 20, 22, 24, 72, 207]
23.565[33, 22, 20, 19, 22, 23, 73, 209]
23.595[34, 21, 22, 18, 22, 23, 66, 175]
23.602[34, 22, 20, 20, 19, 27, 64, 206]
23.625[34, 18, 20, 19, 20, 25, 62, 204]
23.647[36, 20, 21, 19, 21, 25, 74, 213]
23.662[36, 22, 22, 20, 21, 25, 85, 244]
23.685[33, 22, 21, 21, 20, 26, 88, 247]
23.708[32, 20, 22, 22, 20, 25, 86, 218]
23.722[37, 22, 22, 22, 20, 26, 93, 261]
23.745[32, 21, 22, 22, 19, 24, 72, 210]
23.768[32, 19, 21, 22, 18, 24, 58, 174]
23.782[33, 19, 21, 22, 18, 23, 68, 201]
23.805[35, 21, 21, 19, 19, 25, 92, 245]
23.827[30, 21, 22, 20, 19, 23, 89, 207]
23.842[30, 20, 22, 19, 21, 23, 92, 217]
23.872[32, 21, 21, 18, 22, 25, 101, 257]
23.887[31, 21, 21, 17, 23, 24, 94, 240]
23.902[32, 20, 22, 18, 22, 20, 72, 194]
23.925[34, 20, 19, 18, 21, 21, 77, 211]
23.947[34, 20, 21, 19, 18, 22, 73, 203]
23.978[30, 20, 21, 18, 17, 21, 61, 150]
23.985[32, 20, 20, 20, 18, 21, 65, 171]
24.007[30, 21, 19, 20, 20, 22, 67, 196]
24.03[27, 21, 20, 20, 20, 24, 57, 168]
24.053[33, 23, 17, 21, 22, 23, 54, 168]
24.067[35, 23, 17, 21, 24, 23, 70, 219]
24.09[33, 24, 21, 21, 23, 25, 65, 196]
24.105[33, 22, 20, 21, 23, 23, 62, 174]
24.127[33, 22, 21, 22, 25, 21, 67, 182]
24.15[28, 20, 21, 23, 23, 21, 80, 221]
24.165[27, 19, 23, 23, 20, 21, 66, 174]
24.188[25, 20, 21, 22, 20, 17, 64, 177]
24.21[29, 22, 22, 22, 20, 20, 64, 177]
24.225[29, 20, 20, 21, 18, 20, 55, 159]
24.256[31, 21, 21, 19, 18, 20, 55, 161]
24.27[31, 23, 21, 19, 18, 21, 63, 187]
24.285[34, 22, 21, 22, 17, 24, 63, 187]
24.307[31, 20, 20, 21, 17, 23, 63, 190]
24.33[32, 23, 21, 21, 18, 24, 75, 209]
24.345[26, 22, 21, 22, 18, 24, 63, 163]
24.368[39, 21, 21, 22, 20, 25, 79, 192]
24.39[37, 20, 21, 19, 21, 23, 78, 191]
24.405[39, 22, 21, 20, 21, 22, 85, 226]
24.427[38, 20, 21, 20, 21, 22, 75, 212]
24.45[38, 21, 19, 18, 22, 24, 74, 213]
24.464[24, 21, 18, 18, 22, 23, 47, 159]
24.488[23, 22, 20, 19, 23, 24, 48, 156]
24.51[20, 21, 20, 18, 21, 25, 35, 90]
24.524[28, 21, 19, 18, 21, 25, 34, 80]
24.547[33, 20, 22, 19, 20, 22, 66, 145]
24.571[38, 21, 21, 19, 20, 22, 74, 190]
24.584[38, 19, 20, 22, 19, 21, 73, 194]
24.607[37, 20, 22, 23, 19, 21, 73, 193]
24.631[32, 20, 22, 22, 20, 20, 73, 195]
24.645[27, 21, 21, 22, 18, 19, 45, 149]
24.667[21, 19, 22, 21, 17, 18, 28, 73]
24.69[38, 21, 23, 19, 18, 22, 84, 274]
24.704[40, 20, 22, 20, 19, 23, 87, 286]
24.728[39, 20, 22, 20, 20, 24, 89, 290]
24.75[41, 19, 20, 19, 20, 24, 90, 294]
24.764[42, 19, 20, 19, 20, 24, 91, 299]
24.788[26, 17, 22, 19, 20, 21, 46, 138]
24.81[25, 19, 22, 16, 18, 21, 42, 116]
24.824[28, 21, 23, 17, 19, 22, 65, 199]
24.848[26, 22, 24, 21, 19, 25, 68, 200]
24.87[25, 22, 24, 22, 19, 24, 71, 204]
24.892[29, 23, 21, 22, 19, 25, 70, 207]
24.907[29, 21, 22, 24, 20, 23, 69, 205]
24.93[26, 22, 20, 24, 19, 21, 44, 116]
24.96[26, 21, 19, 22, 20, 19, 36, 99]
24.967[32, 23, 18, 21, 21, 20, 55, 178]
24.99[37, 23, 19, 20, 24, 21, 80, 264]
25.012[38, 24, 20, 19, 23, 22, 86, 278]
25.027[37, 24, 20, 19, 24, 23, 87, 283]
25.05[38, 24, 21, 18, 24, 23, 89, 286]
25.073[31, 23, 20, 19, 25, 23, 77, 240]
25.087[21, 23, 22, 19, 23, 21, 51, 135]
25.11[18, 23, 21, 19, 24, 22, 38, 104]
25.133[17, 21, 20, 19, 24, 22, 36, 82]
25.147[16, 21, 21, 19, 23, 22, 33, 73]
25.17[17, 21, 21, 18, 21, 23, 33, 61]
25.193[23, 20, 19, 17, 20, 23, 44, 136]
25.207[28, 22, 20, 17, 21, 27, 65, 183]
25.23[30, 21, 21, 17, 20, 27, 69, 191]
25.26[31, 22, 24, 20, 21, 28, 70, 195]
25.267[30, 22, 23, 19, 23, 25, 68, 196]
25.291[27, 22, 24, 21, 22, 25, 63, 152]
25.312[23, 21, 23, 21, 22, 23, 41, 89]
25.328[21, 21, 23, 20, 21, 23, 35, 73]
25.351[20, 19, 19, 19, 22, 23, 33, 57]
25.373[30, 22, 22, 21, 21, 25, 80, 263]
25.389[31, 21, 20, 20, 21, 25, 81, 275]
25.417[31, 20, 20, 21, 20, 24, 85, 283]
25.439[31, 22, 19, 20, 20, 22, 86, 287]
25.448[32, 23, 20, 21, 19, 22, 88, 293]
25.469[24, 22, 18, 18, 19, 22, 51, 147]
25.499[22, 23, 18, 19, 18, 23, 49, 120]
25.508[22, 24, 18, 18, 18, 24, 42, 98]
25.531[22, 24, 18, 20, 19, 23, 45, 88]
25.56[26, 23, 18, 18, 17, 23, 58, 156]
25.568[26, 22, 20, 20, 21, 21, 57, 152]
25.589[30, 23, 21, 19, 20, 21, 67, 217]
25.612[32, 23, 22, 21, 22, 22, 67, 220]
25.628[31, 24, 24, 21, 22, 23, 65, 222]
25.65[29, 24, 25, 22, 23, 22, 54, 178]
25.672[29, 23, 24, 21, 23, 24, 58, 185]
25.688[29, 21, 23, 21, 23, 25, 59, 170]
25.71[30, 22, 22, 21, 23, 23, 60, 172]
25.732[31, 21, 22, 20, 24, 22, 59, 171]
25.748[30, 22, 21, 20, 23, 21, 58, 174]
25.769[32, 23, 22, 20, 20, 20, 60, 201]
25.792[29, 23, 25, 21, 21, 19, 48, 159]
25.816[26, 21, 25, 20, 21, 18, 47, 158]
25.83[25, 20, 23, 22, 22, 20, 46, 155]
25.852[24, 19, 23, 22, 21, 19, 44, 146]
25.874[21, 19, 21, 21, 21, 20, 34, 90]
25.889[21, 20, 21, 20, 23, 21, 31, 69]
25.912[25, 22, 24, 19, 23, 21, 45, 139]
25.935[30, 22, 25, 18, 20, 21, 60, 211]
25.949[32, 22, 24, 18, 21, 21, 62, 218]
25.972[35, 22, 25, 19, 22, 22, 74, 231]
25.996[35, 21, 24, 19, 20, 22, 75, 234]
26.011[31, 20, 21, 20, 23, 22, 68, 199]
26.032[26, 19, 23, 20, 23, 20, 54, 119]
26.063[24, 19, 22, 19, 23, 20, 52, 104]
26.069[22, 18, 21, 19, 22, 17, 34, 64]
26.093[24, 19, 22, 20, 24, 17, 44, 147]
26.114[25, 20, 24, 19, 20, 16, 41, 150]
26.129[30, 20, 22, 18, 21, 18, 65, 215]
26.152[31, 19, 22, 19, 21, 18, 67, 223]
26.176[30, 20, 22, 18, 21, 21, 67, 226]
26.197[27, 20, 22, 16, 19, 21, 59, 182]
26.212[28, 20, 20, 19, 19, 21, 60, 178]
26.234[23, 21, 20, 18, 20, 22, 44, 129]
26.249[24, 21, 21, 19, 21, 23, 51, 182]
26.272[26, 22, 21, 20, 20, 20, 51, 184]
26.296[25, 23, 20, 21, 22, 19, 54, 184]
26.309[24, 20, 20, 20, 22, 19, 54, 183]
26.332[23, 22, 22, 21, 22, 19, 46, 159]
26.362[20, 21, 20, 20, 19, 19, 35, 75]
26.377[23, 20, 21, 19, 19, 19, 51, 147]
26.392[31, 21, 21, 21, 18, 23, 70, 258]
26.414[33, 21, 20, 20, 19, 22, 74, 273]
26.429[36, 18, 20, 21, 19, 23, 81, 291]
26.452[36, 18, 22, 21, 22, 25, 82, 295]
26.474[33, 18, 20, 22, 22, 24, 74, 267]
26.505[30, 17, 22, 20, 21, 22, 69, 221]
26.512[30, 18, 21, 20, 21, 23, 66, 206]
26.534[28, 20, 22, 19, 20, 22, 62, 198]
26.549[28, 21, 22, 19, 19, 22, 70, 225]
26.572[30, 22, 21, 18, 18, 22, 67, 224]
26.594[26, 23, 19, 18, 19, 20, 55, 169]
26.609[22, 24, 19, 19, 18, 19, 54, 164]
26.632[21, 22, 18, 19, 18, 20, 51, 151]
26.655[27, 23, 17, 19, 17, 23, 59, 197]
26.669[31, 22, 18, 19, 17, 25, 73, 239]
26.692[33, 24, 18, 21, 17, 25, 74, 257]
26.714[34, 24, 19, 20, 18, 26, 76, 261]
26.73[33, 24, 18, 19, 18, 26, 74, 256]
26.752[28, 22, 17, 20, 19, 21, 59, 193]
26.774[24, 23, 17, 21, 20, 20, 41, 132]
26.789[25, 20, 18, 20, 19, 20, 47, 157]
26.812[25, 18, 20, 21, 23, 21, 45, 154]
26.843[26, 19, 20, 20, 22, 20, 49, 157]
26.865[26, 20, 21, 19, 22, 20, 47, 153]
26.872[31, 21, 22, 18, 21, 21, 74, 228]
26.895[31, 21, 22, 18, 20, 21, 71, 198]
26.917[30, 22, 22, 18, 17, 20, 71, 199]
26.932[30, 21, 22, 20, 18, 21, 72, 200]
26.954[34, 21, 23, 21, 18, 23, 84, 257]
26.977[31, 20, 22, 21, 18, 23, 65, 196]
26.992[28, 20, 21, 21, 18, 22, 60, 186]
27.014[29, 21, 23, 22, 19, 22, 60, 183]
27.037[29, 21, 24, 21, 19, 21, 57, 177]
27.059[21, 21, 24, 21, 20, 20, 40, 72]
27.075[20, 23, 23, 21, 20, 19, 32, 59]
27.097[20, 23, 24, 20, 20, 18, 31, 48]
27.112[20, 24, 23, 21, 19, 17, 31, 37]
27.134[21, 24, 23, 20, 19, 17, 29, 36]
27.157[24, 24, 22, 19, 19, 17, 33, 99]
27.172[26, 22, 23, 20, 20, 19, 46, 141]
27.203[30, 23, 23, 22, 20, 21, 65, 206]
27.217[31, 21, 23, 20, 21, 22, 67, 215]
27.232[31, 21, 21, 21, 21, 22, 68, 220]
27.255[29, 21, 22, 21, 21, 23, 66, 200]
27.277[27, 21, 21, 20, 21, 20, 59, 175]
27.292[26, 19, 21, 19, 24, 19, 51, 121]
27.314[29, 20, 21, 19, 23, 19, 62, 165]
27.337[28, 19, 23, 19, 23, 20, 62, 165]
27.352[31, 20, 22, 20, 23, 21, 72, 182]
27.382[31, 22, 24, 19, 23, 22, 72, 184]
27.405[28, 22, 22, 19, 22, 22, 63, 167]
27.412[23, 21, 22, 20, 21, 22, 50, 107]
27.435[24, 23, 21, 19, 21, 21, 51, 118]
27.457[23, 23, 22, 21, 21, 21, 40, 128]
27.481[23, 21, 20, 21, 21, 20, 38, 130]
27.494[23, 21, 21, 22, 20, 20, 38, 130]
27.517[23, 21, 22, 20, 20, 20, 38, 131]
27.532[26, 21, 21, 21, 21, 22, 50, 181]
27.555[27, 21, 20, 19, 22, 21, 47, 161]
27.577[26, 22, 22, 19, 22, 20, 47, 160]
27.592[27, 22, 23, 19, 22, 20, 47, 160]
27.614[27, 22, 23, 19, 22, 19, 47, 160]
27.637[23, 21, 23, 20, 22, 19, 31, 76]
27.652[19, 22, 23, 20, 22, 19, 33, 63]
27.674[22, 21, 24, 19, 23, 20, 32, 52]
27.697[20, 23, 25, 19, 23, 20, 33, 47]
27.712[19, 22, 22, 20, 21, 19, 33, 42]
27.734[22, 23, 22, 18, 20, 19, 52, 153]
27.765[23, 21, 23, 17, 19, 18, 51, 158]
27.78[23, 22, 21, 18, 18, 19, 51, 162]
27.794[23, 22, 20, 18, 17, 20, 49, 163]
27.817[24, 22, 21, 19, 20, 19, 49, 164]
27.84[20, 21, 20, 20, 20, 22, 30, 77]
27.854[21, 22, 20, 20, 21, 22, 31, 66]
27.877[21, 20, 20, 21, 21, 22, 32, 57]
27.9[20, 20, 20, 20, 23, 20, 33, 58]
27.914[24, 19, 23, 22, 22, 21, 55, 146]
27.937[26, 20, 23, 20, 24, 21, 55, 151]
27.96[30, 20, 21, 20, 23, 19, 62, 203]
27.974[31, 22, 21, 19, 22, 22, 63, 207]
27.997[32, 21, 22, 20, 19, 24, 65, 207]
28.028[30, 22, 20, 18, 19, 23, 55, 168]
28.034[29, 21, 20, 19, 17, 23, 59, 174]
28.057[24, 20, 21, 19, 18, 24, 51, 113]
28.08[25, 21, 20, 21, 21, 22, 57, 162]
28.095[25, 22, 19, 20, 22, 21, 54, 168]
28.117[23, 21, 18, 21, 21, 21, 48, 160]
28.14[30, 21, 17, 20, 21, 20, 56, 210]
28.154[30, 21, 17, 20, 21, 18, 57, 211]
28.177[29, 19, 17, 19, 20, 18, 51, 175]
28.2[29, 17, 17, 18, 21, 17, 52, 171]
28.214[29, 18, 18, 19, 22, 18, 51, 168]
28.237[22, 16, 20, 18, 21, 19, 43, 106]
28.26[21, 16, 23, 17, 20, 20, 41, 99]
28.275[23, 16, 23, 16, 20, 20, 49, 158]
28.297[31, 17, 23, 16, 19, 23, 68, 224]
28.32[31, 17, 23, 15, 19, 22, 70, 231]
28.334[30, 17, 24, 17, 19, 22, 65, 221]
28.357[29, 18, 21, 18, 19, 21, 65, 223]
28.38[27, 18, 22, 18, 19, 20, 59, 185]
28.394[18, 19, 22, 18, 20, 17, 35, 92]
28.417[19, 18, 23, 19, 19, 18, 30, 73]
28.44[19, 19, 22, 19, 22, 16, 28, 63]
28.454[23, 20, 23, 20, 22, 19, 47, 145]
28.477[27, 20, 23, 20, 21, 20, 55, 192]
28.5[28, 21, 23, 20, 19, 21, 57, 200]
28.515[27, 22, 22, 22, 19, 21, 58, 204]
28.537[27, 21, 21, 22, 16, 21, 58, 206]
28.56[25, 21, 20, 21, 18, 19, 43, 160]
28.582[21, 22, 22, 20, 18, 18, 34, 96]
28.597[19, 23, 22, 19, 21, 19, 36, 75]
28.62[19, 23, 21, 17, 21, 19, 36, 64]
28.634[19, 22, 21, 15, 20, 19, 36, 56]
28.657[16, 22, 23, 18, 19, 19, 38, 41]
28.68[20, 23, 23, 22, 20, 19, 48, 146]
28.703[20, 20, 22, 22, 20, 18, 44, 152]
28.717[21, 20, 23, 21, 20, 18, 47, 158]
28.74[21, 20, 24, 22, 20, 19, 47, 161]
28.763[23, 21, 21, 20, 21, 19, 54, 177]
28.777[20, 20, 19, 19, 20, 19, 43, 108]
28.8[20, 20, 19, 20, 20, 19, 45, 102]
28.823[21, 20, 19, 20, 20, 18, 42, 92]
28.837[22, 21, 18, 20, 21, 18, 46, 90]
28.86[20, 21, 19, 21, 19, 20, 36, 54]
28.883[25, 21, 19, 19, 20, 22, 49, 163]
28.897[27, 21, 20, 20, 19, 25, 55, 203]
28.92[25, 20, 19, 20, 18, 25, 57, 211]
28.943[26, 19, 20, 23, 18, 25, 55, 216]
28.956[26, 17, 22, 22, 18, 25, 57, 217]
28.98[23, 15, 21, 23, 17, 24, 53, 160]
29.01[21, 14, 20, 22, 17, 20, 44, 103]
29.016[23, 16, 20, 21, 19, 21, 44, 89]
29.04[22, 18, 20, 19, 18, 20, 48, 91]
29.062[29, 20, 18, 19, 20, 19, 65, 211]
29.077[31, 20, 17, 18, 20, 18, 63, 219]
29.1[35, 22, 17, 19, 18, 20, 66, 222]
29.123[34, 22, 19, 20, 18, 20, 65, 222]
29.137[35, 22, 20, 21, 17, 20, 64, 218]
29.16[32, 22, 21, 19, 16, 21, 45, 105]
29.182[29, 22, 22, 19, 17, 22, 38, 72]
29.197[24, 21, 26, 19, 18, 20, 34, 60]
29.22[25, 20, 25, 18, 18, 23, 37, 58]
29.242[21, 20, 23, 18, 19, 22, 30, 44]
29.257[18, 19, 22, 19, 21, 22, 28, 36]
29.28[34, 21, 22, 19, 20, 22, 76, 265]
29.303[35, 22, 20, 19, 22, 25, 83, 281]
29.325[36, 21, 20, 19, 22, 22, 89, 293]
29.347[36, 22, 21, 19, 22, 23, 89, 298]
29.363[38, 22, 21, 21, 20, 22, 91, 301]
29.377[25, 21, 22, 21, 19, 21, 58, 151]
29.4[25, 22, 22, 21, 19, 19, 46, 123]
29.423[22, 21, 21, 23, 19, 19, 31, 88]
29.437[24, 24, 21, 22, 19, 19, 44, 100]
29.46[25, 22, 22, 20, 19, 18, 56, 173]
29.483[29, 21, 24, 20, 20, 20, 72, 209]
29.497[30, 20, 23, 19, 20, 21, 74, 218]
29.52[32, 22, 24, 17, 22, 21, 74, 221]
29.543[30, 20, 23, 18, 20, 20, 68, 212]
29.565[29, 22, 23, 19, 21, 21, 57, 157]
29.58[25, 22, 19, 19, 21, 20, 44, 99]
29.603[22, 21, 20, 18, 22, 19, 39, 85]
29.617[26, 20, 19, 19, 21, 20, 54, 156]
29.64[32, 20, 20, 21, 21, 19, 65, 227]
29.663[32, 21, 20, 20, 21, 21, 70, 238]
29.685[31, 20, 19, 21, 22, 22, 66, 239]
29.7[31, 23, 19, 22, 21, 23, 66, 238]
29.723[28, 24, 20, 21, 22, 21, 55, 197]
29.745[23, 23, 19, 21, 21, 23, 45, 108]
29.767[25, 21, 19, 19, 19, 20, 43, 140]
29.783[30, 22, 20, 20, 18, 21, 50, 195]
29.805[30, 19, 20, 20, 19, 23, 51, 200]
29.82[29, 20, 21, 21, 18, 24, 52, 202]
29.842[28, 21, 22, 20, 18, 23, 49, 203]
29.865[25, 21, 22, 22, 20, 24, 50, 170]
29.88[21, 20, 21, 21, 21, 25, 53, 114]
29.903[22, 22, 21, 21, 21, 22, 51, 101]
29.925[26, 21, 20, 21, 20, 25, 59, 160]
29.94[30, 20, 19, 20, 23, 26, 70, 219]
29.963[30, 20, 20, 20, 23, 25, 66, 217]
29.985[30, 20, 20, 20, 22, 22, 59, 218]
30.0[27, 20, 21, 20, 23, 22, 59, 219]
30.022[25, 20, 21, 20, 24, 19, 55, 178]
30.045[21, 21, 24, 20, 21, 19, 39, 91]
30.06[23, 21, 23, 20, 20, 20, 51, 108]
30.082[23, 21, 24, 19, 20, 20, 51, 95]
30.105[27, 20, 24, 19, 20, 23, 56, 129]
30.12[28, 20, 24, 19, 21, 23, 58, 171]
30.143[33, 21, 21, 19, 20, 22, 78, 228]
30.165[32, 21, 21, 19, 21, 21, 71, 226]
30.187[31, 22, 23, 19, 21, 24, 73, 228]
30.203[29, 21, 22, 19, 21, 22, 71, 211]
30.225[27, 23, 24, 18, 20, 21, 66, 178]
30.239[22, 22, 23, 17, 20, 21, 40, 95]
30.262[33, 22, 23, 17, 19, 22, 76, 254]
30.285[35, 21, 21, 17, 20, 20, 78, 264]
30.307[35, 22, 20, 17, 21, 19, 78, 265]
30.323[35, 20, 19, 19, 19, 20, 78, 268]
30.344[41, 21, 21, 20, 23, 59, 87, 273]
30.367[40, 21, 21, 21, 24, 90, 77, 138]
30.383[45, 23, 23, 22, 30, 106, 97, 120]
30.405[65, 27, 22, 23, 34, 135, 121, 121]
30.427[69, 30, 23, 23, 37, 142, 129, 156]
30.443[69, 30, 23, 24, 42, 149, 141, 189]
30.464[65, 30, 26, 23, 42, 144, 181, 193]
30.487[61, 28, 25, 22, 40, 144, 181, 193]
30.511[42, 24, 26, 23, 37, 123, 171, 195]
30.524[45, 24, 25, 21, 38, 124, 175, 196]
30.547[62, 26, 25, 22, 31, 123, 181, 232]
30.563[64, 27, 23, 23, 30, 119, 149, 222]
30.584[67, 28, 22, 25, 30, 114, 160, 225]
30.607[76, 28, 22, 24, 31, 113, 184, 229]
30.623[73, 29, 23, 24, 27, 129, 185, 256]
30.644[58, 30, 25, 30, 32, 119, 203, 196]
30.667[60, 31, 26, 33, 35, 113, 210, 198]
30.683[60, 32, 26, 34, 36, 118, 214, 202]
30.704[64, 36, 29, 38, 42, 169, 341, 325]
30.727[71, 36, 29, 41, 52, 185, 393, 335]
30.751[85, 35, 29, 38, 51, 196, 399, 373]
30.764[103, 37, 32, 48, 64, 199, 423, 411]
30.787[120, 37, 35, 62, 76, 213, 432, 442]
30.803[119, 39, 36, 63, 76, 185, 348, 376]
30.824[121, 40, 37, 65, 77, 184, 324, 363]
30.847[116, 42, 37, 65, 80, 187, 327, 356]
30.863[132, 57, 40, 61, 78, 200, 431, 380]
30.884[137, 59, 38, 48, 70, 209, 428, 366]
30.907[162, 59, 37, 45, 66, 227, 446, 396]
30.921[170, 62, 39, 43, 65, 255, 438, 388]
30.944[182, 65, 43, 47, 70, 315, 450, 365]
30.967[188, 55, 40, 43, 67, 361, 398, 336]
30.981[185, 52, 40, 40, 64, 367, 421, 314]
31.004[177, 49, 39, 40, 71, 376, 418, 341]
31.027[183, 49, 39, 44, 71, 356, 441, 440]
31.041[191, 45, 35, 42, 71, 332, 436, 513]
31.064[174, 43, 38, 48, 81, 324, 424, 559]
31.087[178, 61, 41, 50, 84, 319, 402, 567]
31.102[190, 80, 42, 51, 83, 336, 399, 554]
31.124[180, 91, 42, 49, 81, 326, 419, 503]
31.147[214, 102, 42, 49, 76, 316, 421, 525]
31.162[233, 110, 43, 49, 68, 331, 458, 548]
31.184[311, 107, 41, 52, 70, 366, 498, 627]
31.207[346, 97, 44, 62, 79, 392, 551, 632]
31.223[359, 90, 42, 60, 77, 398, 512, 631]
31.245[390, 81, 44, 59, 79, 387, 500, 625]
31.267[418, 97, 45, 59, 78, 348, 452, 597]
31.282[377, 103, 50, 65, 81, 313, 429, 631]
31.307[391, 110, 59, 65, 76, 269, 387, 625]
31.327[394, 108, 59, 67, 80, 294, 379, 637]
31.342[373, 113, 60, 70, 83, 301, 409, 607]
31.366[366, 94, 56, 65, 79, 321, 394, 570]
31.387[356, 87, 51, 61, 73, 330, 381, 491]
31.402[334, 85, 40, 55, 68, 304, 353, 485]
31.424[336, 88, 40, 52, 63, 292, 359, 476]
31.447[302, 82, 37, 48, 54, 274, 317, 451]
31.462[294, 83, 37, 50, 53, 239, 356, 532]
31.484[371, 83, 39, 43, 51, 239, 401, 517]
31.507[361, 80, 36, 36, 47, 231, 400, 562]
31.522[367, 81, 37, 37, 51, 209, 413, 526]
31.544[363, 82, 37, 37, 51, 241, 434, 599]
31.567[345, 81, 39, 42, 58, 273, 499, 523]
31.589[326, 94, 41, 44, 61, 255, 481, 514]
31.604[332, 92, 42, 44, 64, 278, 467, 490]
31.627[324, 93, 41, 45, 65, 302, 477, 563]
31.649[325, 95, 45, 50, 75, 367, 458, 494]
31.664[359, 105, 47, 50, 74, 359, 333, 550]
31.687[432, 121, 48, 53, 78, 365, 306, 593]
31.709[433, 122, 48, 55, 81, 361, 326, 631]
31.724[446, 118, 47, 55, 79, 351, 288, 580]
31.747[458, 117, 44, 56, 74, 302, 291, 586]
31.777[444, 105, 39, 52, 70, 283, 290, 546]
31.784[333, 85, 39, 50, 62, 291, 280, 575]
31.806[335, 83, 38, 48, 56, 307, 241, 552]
31.829[331, 100, 40, 47, 54, 305, 251, 588]
31.844[328, 100, 38, 39, 49, 271, 264, 581]
31.867[332, 106, 42, 39, 49, 263, 263, 574]
31.889[322, 101, 36, 37, 50, 270, 301, 501]
31.904[366, 127, 49, 44, 56, 298, 373, 457]
31.927[355, 115, 54, 53, 63, 296, 368, 442]
31.949[353, 114, 57, 54, 63, 289, 344, 432]
31.964[364, 117, 54, 53, 61, 286, 335, 460]
31.987[370, 110, 55, 52, 60, 251, 282, 437]
32.009[380, 91, 49, 52, 64, 220, 216, 530]
32.024[381, 87, 42, 43, 60, 216, 209, 527]
32.055[371, 85, 38, 46, 62, 209, 210, 548]
32.069[349, 74, 43, 48, 62, 212, 200, 529]
32.084[359, 81, 49, 51, 64, 220, 226, 568]
32.107[289, 81, 49, 53, 61, 179, 205, 600]
32.129[297, 95, 52, 53, 60, 175, 269, 635]
32.144[319, 100, 53, 52, 60, 186, 284, 631]
32.167[350, 103, 49, 50, 60, 200, 289, 662]
32.197[380, 103, 44, 48, 61, 186, 263, 630]
32.204[411, 96, 41, 40, 58, 185, 253, 541]
32.227[518, 106, 43, 43, 59, 182, 192, 494]
32.249[512, 101, 41, 41, 58, 178, 188, 533]
32.265[524, 108, 44, 51, 70, 170, 197, 519]
32.287[529, 106, 44, 50, 68, 182, 230, 510]
32.309[503, 106, 46, 57, 70, 186, 254, 501]
32.332[391, 88, 41, 54, 69, 210, 252, 496]
32.347[412, 90, 44, 59, 74, 227, 300, 503]
32.369[428, 87, 43, 51, 64, 233, 313, 495]
32.384[404, 84, 42, 53, 70, 268, 309, 521]
32.415[413, 80, 37, 48, 71, 279, 285, 496]
32.429[407, 81, 39, 49, 71, 253, 295, 510]
32.444[377, 79, 37, 43, 66, 239, 281, 447]
32.467[305, 77, 37, 42, 65, 225, 261, 456]
32.489[279, 84, 37, 37, 56, 191, 248, 432]
32.512[293, 93, 45, 38, 52, 161, 260, 558]
32.527[273, 89, 44, 39, 55, 173, 259, 550]
32.549[273, 90, 43, 38, 54, 177, 206, 571]
32.572[262, 90, 42, 41, 54, 180, 210, 642]
32.587[255, 78, 41, 43, 57, 158, 222, 734]
32.609[265, 66, 39, 41, 57, 177, 250, 709]
32.632[283, 64, 42, 40, 57, 182, 277, 821]
32.647[313, 64, 43, 43, 67, 202, 317, 791]
32.669[325, 68, 48, 45, 72, 248, 331, 770]
32.691[342, 77, 48, 42, 70, 269, 332, 697]
32.707[327, 78, 45, 43, 68, 267, 327, 648]
32.737[386, 94, 43, 44, 69, 274, 298, 481]
32.752[362, 95, 41, 43, 59, 258, 261, 485]
32.767[348, 83, 35, 41, 57, 235, 275, 479]
32.789[365, 83, 38, 44, 58, 223, 278, 539]
32.812[415, 95, 39, 42, 61, 207, 262, 587]
32.827[391, 91, 37, 38, 55, 182, 314, 639]
32.849[393, 89, 39, 40, 58, 179, 314, 678]
32.872[403, 95, 39, 40, 57, 166, 293, 608]
32.887[367, 94, 39, 37, 56, 155, 289, 563]
32.909[354, 95, 42, 42, 55, 172, 318, 605]
32.932[376, 101, 41, 42, 54, 218, 289, 597]
32.947[407, 107, 43, 43, 55, 215, 297, 561]
32.969[420, 112, 43, 41, 50, 203, 290, 633]
32.992[446, 121, 48, 44, 55, 199, 288, 687]
33.007[483, 114, 45, 41, 56, 191, 253, 664]
33.029[520, 109, 46, 44, 60, 138, 215, 695]
33.052[498, 104, 44, 42, 61, 136, 197, 685]
33.067[482, 96, 42, 40, 61, 126, 209, 641]
33.089[461, 77, 36, 43, 58, 120, 186, 580]
33.112[442, 85, 38, 46, 55, 110, 185, 537]
33.127[352, 91, 36, 44, 49, 121, 179, 433]
33.149[346, 95, 44, 50, 55, 132, 182, 536]
33.172[337, 96, 45, 50, 59, 137, 162, 564]
33.186[346, 97, 45, 45, 55, 133, 167, 554]
33.209[282, 100, 40, 37, 50, 121, 147, 521]
33.232[314, 84, 40, 39, 54, 106, 155, 561]
33.247[320, 82, 29, 29, 39, 94, 161, 481]
33.269[360, 85, 31, 33, 40, 99, 160, 500]
33.292[388, 84, 33, 39, 45, 107, 168, 559]
33.307[383, 77, 38, 42, 51, 117, 183, 627]
33.329[386, 84, 42, 45, 52, 115, 182, 665]
33.353[412, 85, 44, 48, 56, 130, 175, 700]
33.375[428, 87, 46, 48, 54, 125, 173, 695]
33.389[415, 93, 44, 46, 58, 123, 169, 657]
33.412[417, 86, 40, 46, 60, 121, 163, 579]
33.427[373, 79, 36, 40, 58, 118, 168, 519]
33.449[369, 80, 34, 38, 55, 99, 177, 461]
33.472[418, 85, 34, 37, 56, 96, 184, 512]
33.495[419, 87, 36, 36, 47, 94, 177, 474]
33.517[408, 89, 37, 35, 41, 86, 165, 494]
33.532[403, 88, 34, 34, 37, 78, 145, 457]
33.562[376, 87, 34, 31, 37, 76, 134, 487]
33.569[281, 74, 31, 32, 39, 84, 130, 409]
33.592[284, 71, 31, 34, 43, 81, 146, 448]
33.615[411, 74, 33, 37, 52, 94, 172, 459]
33.63[421, 75, 33, 38, 51, 96, 178, 503]
33.652[420, 70, 34, 39, 53, 91, 171, 464]
33.675[438, 72, 35, 38, 49, 83, 167, 507]
33.689[429, 72, 38, 40, 51, 87, 171, 537]
33.712[295, 63, 36, 39, 44, 85, 151, 553]
33.735[303, 64, 40, 41, 45, 82, 149, 598]
33.749[306, 64, 39, 39, 42, 79, 157, 683]
33.772[266, 72, 40, 40, 47, 79, 170, 664]
33.795[270, 67, 36, 37, 47, 73, 166, 643]
33.809[273, 68, 36, 38, 58, 60, 168, 651]
33.847[254, 80, 38, 39, 62, 69, 197, 597]
33.855[260, 83, 39, 41, 63, 73, 190, 505]
33.869[303, 85, 37, 38, 61, 70, 176, 449]
33.892[297, 90, 37, 36, 56, 69, 167, 436]
33.915[308, 95, 37, 34, 43, 67, 174, 416]
33.929[340, 89, 32, 30, 37, 58, 142, 482]
33.952[331, 88, 31, 29, 36, 55, 144, 488]
33.974[290, 81, 31, 28, 37, 55, 152, 497]
33.998[323, 88, 32, 28, 35, 51, 148, 504]
34.012[325, 84, 31, 30, 36, 61, 149, 529]
34.035[305, 87, 32, 28, 36, 78, 147, 469]
34.049[312, 85, 32, 30, 38, 78, 150, 474]
34.072[307, 79, 32, 34, 37, 82, 137, 519]
34.095[268, 61, 30, 35, 42, 87, 136, 533]
34.109[324, 77, 37, 35, 43, 90, 140, 474]
34.14[337, 72, 35, 35, 42, 88, 149, 499]
34.155[339, 72, 35, 35, 42, 88, 148, 495]
34.169[333, 74, 34, 32, 40, 82, 157, 478]
34.192[330, 78, 35, 30, 40, 92, 158, 539]
34.215[243, 65, 28, 30, 38, 90, 155, 542]
34.229[268, 72, 30, 30, 39, 85, 162, 503]
34.252[315, 77, 29, 28, 39, 86, 160, 521]
34.275[318, 79, 30, 32, 37, 84, 156, 494]
34.289[357, 84, 30, 37, 39, 74, 189, 492]
34.312[387, 84, 28, 36, 43, 66, 185, 511]
34.343[353, 81, 26, 37, 45, 75, 177, 515]
34.349[376, 79, 29, 37, 47, 97, 182, 512]
34.372[395, 79, 27, 35, 53, 105, 183, 567]
34.395[416, 84, 28, 30, 49, 100, 156, 504]
34.417[449, 98, 34, 34, 51, 104, 175, 559]
34.432[458, 101, 36, 36, 53, 101, 176, 594]
34.455[415, 100, 35, 39, 52, 84, 182, 588]
34.485[395, 96, 36, 40, 54, 77, 179, 515]
34.493[321, 90, 39, 49, 61, 78, 168, 486]
34.515[225, 72, 41, 51, 70, 83, 150, 383]
34.537[225, 65, 42, 54, 69, 79, 174, 359]
34.553[202, 60, 42, 52, 71, 74, 158, 333]
34.582[226, 79, 47, 75, 98, 93, 164, 342]
34.598[232, 78, 46, 78, 104, 97, 177, 404]
34.612[278, 84, 41, 77, 106, 94, 183, 427]
34.635[284, 86, 41, 75, 109, 107, 177, 416]
34.658[310, 90, 44, 79, 115, 115, 188, 450]
34.672[364, 96, 40, 58, 91, 102, 208, 508]
34.695[364, 101, 42, 50, 84, 104, 209, 500]
34.717[352, 100, 43, 50, 88, 116, 208, 489]
34.74[340, 110, 41, 47, 91, 110, 187, 509]
34.763[320, 109, 39, 42, 87, 109, 180, 519]
34.785[253, 93, 37, 41, 90, 106, 163, 471]
34.792[270, 83, 29, 36, 91, 110, 160, 481]
34.815[285, 79, 30, 34, 98, 101, 138, 496]
34.837[286, 61, 29, 35, 94, 114, 141, 525]
34.852[282, 57, 29, 33, 96, 112, 140, 516]
34.875[302, 63, 31, 36, 95, 114, 119, 506]
34.913[320, 65, 32, 38, 99, 109, 113, 476]
34.915[358, 68, 34, 38, 80, 125, 136, 454]
34.935[361, 67, 36, 43, 82, 152, 158, 405]
34.965[407, 73, 36, 45, 78, 161, 165, 372]
34.971[424, 75, 38, 47, 79, 195, 218, 390]
34.995[398, 76, 38, 48, 69, 214, 230, 346]
35.033[331, 72, 33, 46, 77, 244, 236, 386]
35.035[328, 79, 34, 46, 87, 232, 224, 371]
35.062[282, 83, 38, 50, 95, 240, 235, 413]
35.078[247, 76, 38, 51, 95, 256, 258, 422]
35.092[247, 76, 38, 50, 98, 275, 252, 575]
35.116[264, 78, 38, 53, 90, 263, 250, 578]
35.137[260, 72, 38, 55, 83, 259, 265, 565]
35.151[292, 82, 33, 52, 72, 251, 263, 546]
35.182[295, 85, 32, 49, 72, 233, 210, 558]
35.197[301, 85, 32, 49, 72, 225, 210, 407]
35.211[334, 83, 36, 47, 101, 218, 205, 357]
35.25[343, 86, 35, 45, 103, 226, 176, 394]
35.265[358, 126, 62, 40, 104, 228, 158, 379]
35.272[386, 133, 65, 39, 103, 217, 197, 429]
35.296[402, 139, 66, 39, 108, 184, 226, 448]
35.342[367, 139, 65, 40, 86, 167, 221, 459]
35.344[353, 150, 68, 34, 83, 172, 228, 502]
35.355[318, 117, 66, 38, 83, 177, 228, 491]
35.392[278, 112, 65, 39, 81, 189, 184, 433]
35.399[258, 110, 64, 37, 77, 204, 157, 443]
35.416[248, 108, 65, 36, 111, 216, 153, 420]
35.444[245, 93, 63, 38, 106, 200, 145, 329]
35.468[244, 82, 39, 37, 105, 188, 141, 331]
35.476[319, 90, 41, 35, 106, 165, 182, 341]
35.497[335, 86, 46, 34, 105, 156, 172, 326]
35.527[366, 119, 56, 32, 73, 130, 175, 420]
35.537[372, 123, 55, 33, 75, 130, 182, 416]
35.556[353, 124, 55, 31, 74, 136, 183, 434]
35.579[296, 123, 53, 34, 75, 132, 143, 457]
35.604[308, 145, 56, 38, 70, 138, 177, 480]
35.616[313, 137, 46, 36, 82, 136, 193, 429]
35.646[313, 135, 46, 34, 81, 134, 194, 448]
35.663[407, 158, 50, 35, 85, 129, 194, 461]
35.684[401, 154, 47, 31, 103, 134, 187, 434]
35.707[387, 133, 38, 26, 109, 123, 157, 379]
35.721[373, 120, 34, 27, 104, 128, 135, 350]
35.744[371, 118, 35, 28, 105, 126, 123, 336]
35.76[335, 92, 29, 29, 113, 128, 122, 369]
35.782[327, 94, 29, 34, 115, 150, 135, 390]
35.805[347, 106, 31, 35, 131, 147, 139, 415]
35.819[345, 100, 34, 36, 137, 142, 136, 415]
35.835[394, 107, 35, 39, 138, 139, 132, 430]
35.856[383, 102, 35, 41, 134, 142, 135, 426]
35.879[442, 104, 37, 43, 123, 119, 150, 393]
35.903[444, 88, 35, 45, 101, 110, 133, 398]
35.924[449, 96, 40, 48, 97, 112, 154, 515]
35.946[425, 108, 41, 47, 101, 139, 191, 510]
35.956[406, 107, 42, 44, 99, 132, 189, 457]
35.976[327, 103, 39, 39, 103, 119, 169, 464]
36.001[300, 109, 41, 39, 104, 123, 184, 494]
36.023[321, 117, 36, 35, 91, 139, 173, 398]
36.038[333, 98, 35, 42, 88, 119, 133, 426]
36.059[332, 111, 35, 66, 102, 126, 140, 447]
36.083[395, 112, 35, 82, 94, 130, 161, 423]
36.096[392, 110, 33, 85, 88, 128, 165, 364]
36.127[391, 100, 36, 92, 93, 134, 160, 336]
36.135[376, 109, 32, 96, 92, 136, 168, 280]
36.157[418, 103, 30, 82, 75, 143, 175, 344]
36.179[369, 104, 33, 68, 78, 141, 162, 368]
36.203[359, 102, 33, 65, 84, 148, 139, 390]
36.224[368, 99, 30, 55, 79, 135, 146, 398]
36.239[384, 99, 30, 42, 91, 142, 139, 441]
36.255[334, 88, 33, 40, 89, 130, 122, 386]
36.278[334, 86, 27, 33, 81, 135, 110, 368]
36.299[348, 87, 27, 30, 73, 119, 117, 363]
36.322[307, 80, 25, 27, 70, 105, 101, 355]
36.336[396, 76, 29, 29, 66, 80, 99, 312]
36.359[402, 82, 29, 30, 68, 78, 105, 314]
36.391[436, 89, 30, 32, 69, 69, 117, 341]
36.404[457, 95, 32, 37, 70, 82, 114, 323]
36.427[492, 118, 35, 39, 70, 90, 122, 308]
36.45[399, 116, 33, 37, 56, 101, 118, 275]
36.457[399, 119, 32, 37, 63, 99, 116, 248]
36.487[365, 125, 40, 41, 74, 102, 116, 282]
36.501[326, 120, 38, 36, 79, 94, 105, 267]
36.516[270, 106, 37, 36, 81, 86, 131, 298]
36.539[331, 106, 38, 41, 85, 88, 140, 321]
36.561[324, 101, 38, 49, 94, 89, 139, 341]
36.577[389, 103, 33, 51, 85, 109, 151, 348]
36.599[385, 100, 34, 54, 80, 114, 170, 373]
36.638[387, 96, 34, 56, 91, 117, 147, 372]
36.639[330, 89, 31, 52, 98, 133, 140, 370]
36.669[362, 96, 32, 45, 95, 137, 135, 350]
36.681[323, 79, 27, 38, 95, 121, 122, 266]
36.697[368, 86, 26, 34, 99, 112, 99, 245]
36.72[355, 86, 25, 28, 87, 112, 111, 221]
36.741[398, 95, 27, 25, 70, 82, 116, 207]
36.757[401, 90, 27, 26, 64, 81, 132, 229]
36.779[404, 117, 32, 28, 77, 86, 126, 339]
36.802[387, 116, 32, 30, 86, 99, 125, 361]
36.817[407, 115, 32, 30, 92, 99, 152, 394]
36.839[363, 107, 33, 31, 92, 102, 157, 414]
36.87[338, 105, 32, 29, 85, 104, 143, 401]
36.876[333, 83, 31, 28, 74, 102, 141, 313]
36.899[326, 82, 31, 28, 68, 98, 153, 330]
36.921[328, 82, 31, 29, 72, 93, 113, 321]
36.944[366, 91, 30, 29, 78, 93, 112, 338]
36.959[356, 84, 29, 32, 78, 93, 131, 338]
36.981[366, 89, 28, 29, 82, 104, 139, 349]
37.004[419, 91, 27, 31, 76, 108, 146, 368]
37.019[414, 94, 28, 30, 73, 111, 170, 362]
37.042[392, 92, 27, 31, 77, 124, 163, 354]
37.058[411, 97, 28, 30, 80, 125, 147, 358]
37.079[374, 87, 28, 34, 75, 116, 143, 349]
37.101[333, 94, 29, 32, 74, 109, 128, 341]
37.116[463, 124, 30, 33, 88, 115, 105, 396]
37.147[474, 121, 30, 32, 85, 117, 109, 375]
37.162[450, 118, 31, 30, 79, 122, 137, 391]
37.184[450, 115, 28, 26, 80, 122, 140, 393]
37.201[425, 107, 27, 33, 83, 123, 140, 392]
37.222[291, 79, 27, 44, 63, 114, 140, 348]
37.244[286, 81, 29, 44, 53, 95, 153, 339]
37.259[290, 83, 29, 44, 53, 88, 136, 326]
37.281[278, 77, 28, 44, 51, 90, 129, 326]
37.304[279, 76, 29, 40, 47, 91, 152, 277]
37.319[309, 82, 29, 32, 44, 124, 147, 377]
37.342[304, 93, 29, 30, 49, 136, 129, 392]
37.364[320, 93, 31, 32, 59, 137, 130, 394]
37.379[357, 100, 33, 36, 80, 142, 126, 396]
37.401[350, 99, 32, 35, 79, 147, 104, 398]
37.424[302, 89, 32, 36, 85, 142, 118, 261]
37.439[288, 80, 31, 37, 86, 133, 120, 254]
37.461[301, 82, 27, 38, 80, 131, 121, 241]
37.484[304, 86, 27, 38, 64, 126, 130, 244]
37.499[308, 86, 27, 36, 65, 126, 123, 219]
37.521[331, 81, 25, 33, 71, 110, 116, 236]
37.544[371, 97, 26, 33, 68, 113, 114, 267]
37.559[389, 98, 35, 40, 72, 123, 158, 273]
37.582[396, 98, 37, 44, 83, 123, 154, 276]
37.612[398, 97, 37, 45, 83, 132, 155, 315]
37.619[416, 102, 39, 47, 70, 129, 168, 396]
37.641[427, 89, 42, 47, 69, 135, 176, 388]
37.664[439, 108, 48, 41, 80, 126, 143, 396]
37.679[434, 101, 47, 38, 73, 124, 152, 390]
37.701[451, 100, 48, 38, 80, 116, 149, 365]
37.724[431, 100, 50, 38, 81, 132, 143, 289]
37.739[390, 97, 47, 38, 88, 129, 150, 326]
37.761[406, 79, 34, 37, 87, 129, 148, 317]
37.784[396, 77, 33, 35, 82, 131, 143, 344]
37.799[370, 79, 33, 35, 77, 134, 154, 341]
37.821[369, 72, 29, 33, 81, 116, 147, 322]
37.852[390, 85, 30, 34, 75, 123, 132, 254]
37.859[344, 82, 34, 37, 64, 140, 135, 255]
37.881[362, 85, 33, 34, 70, 136, 148, 236]
37.904[404, 96, 32, 37, 78, 129, 133, 236]
37.919[403, 111, 35, 41, 74, 147, 150, 223]
37.942[389, 100, 32, 42, 75, 145, 147, 279]
37.964[402, 103, 28, 40, 73, 135, 152, 266]
37.979[417, 106, 30, 40, 69, 136, 142, 323]
38.001[436, 105, 34, 36, 59, 149, 145, 440]
38.024[427, 90, 32, 39, 63, 136, 132, 486]
38.039[413, 88, 33, 36, 74, 130, 136, 467]
38.062[415, 108, 36, 34, 82, 132, 143, 478]
38.092[402, 110, 62, 35, 77, 153, 157, 435]
38.099[331, 106, 75, 37, 79, 144, 156, 328]
38.122[341, 107, 80, 27, 77, 143, 144, 278]
38.144[403, 137, 81, 27, 76, 164, 153, 446]
38.159[381, 117, 80, 29, 77, 168, 138, 462]
38.182[360, 116, 62, 30, 84, 151, 112, 471]
38.204[398, 126, 48, 39, 82, 143, 120, 469]
38.227[376, 124, 37, 42, 80, 138, 120, 454]
38.241[316, 94, 37, 44, 75, 103, 105, 341]
38.264[294, 90, 38, 44, 65, 84, 109, 299]
38.287[358, 99, 39, 46, 63, 98, 129, 298]
38.301[404, 108, 34, 38, 57, 108, 120, 310]
38.325[418, 110, 38, 46, 78, 126, 127, 456]
38.347[408, 105, 36, 43, 73, 126, 121, 416]
38.37[415, 110, 36, 42, 77, 122, 104, 421]
38.385[435, 118, 38, 41, 74, 124, 87, 426]
38.407[424, 107, 35, 43, 81, 122, 129, 416]
38.422[445, 112, 32, 33, 76, 129, 143, 248]
38.445[449, 112, 33, 33, 81, 134, 150, 242]
38.467[430, 107, 34, 33, 78, 136, 155, 236]
38.49[340, 84, 32, 31, 80, 146, 183, 226]
38.512[422, 112, 36, 27, 82, 142, 164, 229]
38.527[395, 108, 36, 30, 87, 127, 154, 278]
38.541[403, 108, 36, 31, 86, 129, 157, 288]
38.565[432, 116, 37, 33, 103, 129, 160, 292]
38.587[460, 122, 35, 34, 104, 108, 123, 280]
38.602[349, 97, 33, 39, 105, 114, 113, 292]
38.624[431, 131, 35, 37, 109, 110, 114, 259]
38.647[465, 132, 35, 36, 109, 112, 105, 231]
38.661[461, 128, 35, 37, 98, 118, 117, 243]
38.685[453, 126, 35, 35, 93, 123, 131, 253]
38.707[448, 128, 35, 30, 89, 123, 144, 238]
38.722[414, 100, 33, 33, 83, 120, 148, 265]
38.744[400, 111, 34, 33, 83, 140, 162, 307]
38.767[394, 113, 34, 33, 77, 143, 155, 355]
38.781[380, 109, 34, 37, 77, 137, 144, 372]
38.805[367, 98, 31, 36, 73, 136, 137, 358]
38.827[374, 97, 31, 33, 70, 140, 133, 330]
38.841[371, 102, 30, 32, 76, 125, 134, 390]
38.865[369, 108, 33, 32, 82, 122, 161, 382]
38.887[361, 106, 31, 33, 93, 158, 174, 357]
38.901[366, 105, 32, 34, 94, 163, 179, 388]
38.925[302, 106, 34, 38, 82, 161, 178, 388]
38.947[301, 100, 40, 41, 75, 168, 170, 327]
38.962[368, 104, 37, 41, 74, 166, 141, 275]
38.985[371, 114, 41, 37, 67, 126, 130, 274]
39.007[354, 111, 41, 35, 65, 114, 119, 242]
39.021[365, 104, 39, 33, 70, 115, 110, 239]
39.045[376, 103, 33, 31, 79, 94, 109, 177]
39.067[359, 101, 33, 31, 76, 90, 120, 185]
39.082[371, 94, 28, 31, 83, 108, 117, 204]
39.113[381, 96, 28, 32, 82, 124, 124, 210]
39.127[416, 100, 29, 30, 83, 126, 133, 205]
39.15[421, 101, 27, 28, 81, 122, 124, 206]
39.165[373, 92, 27, 31, 98, 159, 164, 293]
39.187[372, 92, 29, 36, 107, 155, 167, 293]
39.21[418, 112, 34, 39, 109, 153, 161, 283]
39.225[374, 108, 33, 41, 112, 151, 155, 286]
39.247[365, 112, 36, 40, 111, 163, 168, 328]
39.27[395, 110, 35, 37, 96, 138, 122, 261]
39.285[501, 135, 36, 35, 83, 134, 139, 286]
39.315[488, 134, 31, 32, 90, 128, 152, 286]
39.33[500, 137, 32, 31, 103, 130, 152, 317]
39.352[466, 127, 29, 31, 106, 116, 142, 305]
39.367[434, 128, 31, 32, 107, 109, 147, 295]
39.39[377, 120, 29, 34, 103, 105, 124, 271]
39.405[377, 108, 32, 38, 99, 124, 158, 295]
39.427[362, 100, 29, 36, 77, 126, 156, 300]
39.45[438, 133, 35, 38, 72, 123, 168, 281]
39.465[450, 131, 34, 38, 70, 124, 162, 277]
39.495[419, 121, 34, 37, 71, 131, 172, 297]
39.51[442, 138, 35, 33, 80, 115, 139, 297]
39.525[496, 147, 39, 35, 88, 122, 160, 294]
39.547[436, 116, 36, 35, 84, 130, 143, 288]
39.57[426, 116, 37, 34, 88, 129, 152, 285]
39.592[462, 123, 38, 32, 89, 133, 173, 266]
39.607[420, 105, 34, 32, 80, 142, 176, 244]
39.63[371, 100, 34, 31, 78, 139, 165, 214]
39.644[487, 125, 33, 28, 85, 140, 176, 282]
39.668[491, 127, 31, 26, 85, 131, 163, 281]
39.689[418, 109, 30, 25, 88, 130, 140, 264]
39.704[455, 121, 35, 26, 86, 114, 135, 274]
39.727[543, 119, 34, 30, 82, 110, 142, 332]
39.757[461, 94, 34, 32, 72, 117, 158, 328]
39.764[490, 96, 34, 33, 73, 137, 184, 339]
39.795[546, 113, 35, 33, 60, 128, 179, 350]
39.81[522, 101, 30, 34, 69, 136, 179, 340]
39.832[469, 95, 30, 29, 66, 137, 166, 308]
39.847[474, 95, 28, 28, 68, 131, 150, 268]
39.87[443, 90, 30, 28, 62, 124, 131, 267]
39.885[363, 66, 29, 28, 66, 130, 142, 245]
39.907[349, 63, 34, 27, 88, 118, 131, 245]
39.93[300, 75, 36, 32, 108, 152, 144, 232]
39.944[325, 86, 36, 34, 126, 154, 131, 243]
39.967[371, 98, 37, 34, 127, 156, 125, 238]
39.99[376, 101, 35, 35, 127, 156, 116, 276]
40.004[402, 101, 32, 35, 111, 162, 129, 301]
40.027[381, 93, 31, 34, 99, 131, 119, 300]
40.05[388, 102, 33, 36, 78, 126, 130, 319]
40.072[365, 90, 34, 36, 75, 116, 129, 319]
40.087[429, 116, 35, 37, 78, 108, 123, 333]
40.11[530, 140, 38, 36, 73, 96, 108, 312]
40.132[562, 149, 38, 39, 62, 88, 98, 293]
40.147[526, 136, 36, 40, 59, 78, 86, 289]
40.17[562, 161, 45, 43, 65, 107, 94, 311]
40.192[525, 143, 45, 48, 78, 121, 103, 410]
40.207[386, 115, 43, 65, 79, 122, 113, 442]
40.23[378, 117, 42, 67, 86, 147, 124, 481]
40.252[412, 126, 45, 66, 85, 184, 142, 528]
40.267[372, 93, 36, 65, 92, 177, 141, 532]
40.29[374, 96, 34, 61, 82, 169, 127, 448]
40.311[381, 98, 34, 47, 82, 167, 115, 408]
40.328[337, 82, 39, 99, 144, 147, 105, 356]
40.349[309, 71, 46, 152, 225, 100, 79, 271]
40.371[264, 68, 48, 170, 252, 83, 57, 260]
40.388[244, 68, 51, 187, 285, 78, 59, 228]
40.409[263, 80, 60, 208, 322, 87, 62, 228]
40.431[274, 85, 61, 206, 327, 89, 61, 231]
40.448[289, 93, 53, 173, 280, 83, 54, 176]
40.469[303, 105, 51, 156, 254, 74, 57, 179]
40.491[291, 99, 50, 138, 215, 72, 61, 197]
40.508[260, 88, 40, 103, 155, 58, 63, 200]
40.531[236, 81, 35, 59, 83, 47, 61, 202]
40.551[159, 70, 36, 59, 84, 46, 63, 203]
40.568[151, 51, 37, 65, 92, 47, 60, 168]
40.591[237, 89, 41, 68, 101, 44, 62, 227]
40.611[265, 114, 42, 81, 125, 48, 59, 230]
40.628[270, 123, 47, 93, 143, 67, 65, 241]
40.649[272, 123, 50, 99, 157, 67, 64, 243]
40.671[249, 120, 50, 100, 163, 71, 69, 266]
40.688[164, 95, 50, 120, 178, 74, 67, 222]
40.709[95, 61, 47, 129, 181, 74, 69, 216]
40.731[136, 50, 44, 136, 247, 65, 68, 225]
40.748[164, 57, 45, 150, 264, 71, 75, 239]
40.769[165, 56, 46, 158, 264, 71, 77, 218]
40.791[164, 58, 45, 146, 268, 85, 80, 229]
40.808[165, 57, 48, 139, 271, 85, 82, 240]
40.829[122, 51, 55, 162, 239, 86, 98, 333]
40.851[75, 42, 53, 160, 256, 86, 106, 335]
40.868[58, 41, 51, 155, 261, 84, 100, 326]
40.889[55, 39, 48, 168, 273, 69, 93, 299]
40.913[49, 39, 47, 180, 281, 72, 91, 289]
40.929[41, 34, 33, 151, 256, 69, 73, 167]
40.949[32, 27, 28, 132, 208, 62, 66, 176]
40.971[31, 26, 31, 126, 197, 64, 70, 183]
40.988[31, 27, 33, 112, 169, 68, 72, 182]
41.01[29, 27, 32, 101, 127, 64, 70, 183]
41.031[31, 29, 33, 110, 140, 64, 76, 203]
41.063[33, 29, 34, 114, 140, 63, 74, 202]
41.077[32, 29, 31, 115, 134, 65, 69, 193]
41.093[31, 28, 29, 115, 127, 58, 68, 192]
41.114[30, 26, 31, 110, 154, 60, 70, 194]
41.136[38, 24, 28, 93, 140, 56, 96, 296]
41.152[38, 24, 27, 88, 140, 55, 93, 284]
41.174[40, 25, 25, 84, 141, 47, 95, 285]
41.189[40, 27, 24, 67, 132, 44, 97, 291]
41.211[46, 28, 28, 60, 130, 72, 122, 373]
41.234[38, 28, 30, 64, 123, 76, 98, 288]
41.249[38, 29, 32, 70, 148, 77, 105, 296]
41.279[36, 29, 33, 69, 147, 77, 104, 298]
41.294[37, 28, 35, 80, 169, 79, 104, 295]
41.309[35, 26, 30, 73, 154, 51, 87, 233]
41.332[34, 25, 29, 86, 169, 53, 89, 235]
41.354[32, 24, 29, 81, 143, 53, 76, 215]
41.369[38, 24, 28, 86, 145, 52, 92, 272]
41.391[43, 24, 26, 76, 118, 51, 91, 274]
41.415[39, 24, 27, 71, 105, 46, 80, 246]
41.429[39, 25, 29, 52, 94, 46, 77, 230]
41.459[43, 27, 28, 59, 102, 45, 93, 270]
41.474[39, 26, 30, 54, 101, 48, 77, 212]
41.489[36, 25, 30, 53, 96, 53, 91, 263]
41.511[39, 27, 28, 54, 97, 56, 86, 245]
41.534[40, 26, 25, 52, 73, 48, 93, 265]
41.55[36, 25, 23, 43, 62, 46, 76, 224]
41.571[39, 25, 21, 43, 77, 51, 80, 235]
41.594[36, 25, 21, 42, 85, 52, 82, 207]
41.61[35, 23, 21, 41, 87, 54, 97, 256]
41.631[34, 24, 20, 39, 87, 55, 88, 229]
41.654[34, 24, 22, 36, 82, 53, 88, 229]
41.669[33, 24, 21, 29, 59, 52, 90, 251]
41.691[41, 24, 21, 28, 48, 47, 75, 228]
41.714[43, 25, 22, 30, 54, 43, 74, 212]
41.729[48, 26, 23, 33, 68, 42, 76, 217]
41.759[51, 24, 21, 36, 76, 45, 88, 255]
41.774[51, 25, 24, 35, 80, 38, 82, 220]
41.789[66, 24, 23, 35, 79, 44, 94, 254]
41.811[79, 28, 24, 32, 72, 48, 83, 228]
41.834[80, 25, 24, 32, 72, 48, 90, 252]
41.85[80, 25, 26, 35, 68, 48, 86, 229]
41.872[80, 26, 23, 40, 68, 54, 97, 254]
41.894[63, 26, 23, 41, 72, 47, 84, 219]
41.909[44, 22, 23, 42, 79, 56, 89, 233]
41.931[39, 23, 23, 42, 72, 57, 86, 236]
41.955[46, 24, 21, 47, 91, 58, 85, 248]
41.977[66, 25, 25, 49, 90, 64, 72, 222]
41.991[67, 24, 23, 50, 91, 71, 69, 215]
42.014[67, 23, 22, 49, 86, 62, 62, 197]
42.037[67, 24, 22, 55, 94, 62, 73, 221]
42.051[61, 23, 24, 48, 83, 61, 67, 193]
42.074[44, 21, 21, 41, 87, 54, 66, 196]
42.096[42, 34, 24, 40, 84, 50, 67, 198]
42.111[57, 38, 25, 42, 85, 58, 92, 276]
42.134[60, 39, 26, 33, 75, 61, 114, 322]
42.156[62, 40, 26, 32, 67, 62, 117, 331]
42.171[63, 41, 27, 33, 63, 58, 118, 333]
42.194[63, 32, 27, 34, 66, 53, 128, 352]
42.216[66, 29, 28, 30, 67, 48, 113, 302]
42.231[70, 32, 27, 35, 69, 51, 85, 228]
42.254[73, 32, 28, 43, 78, 54, 81, 211]
42.276[70, 31, 28, 48, 84, 61, 90, 223]
42.291[71, 30, 26, 49, 86, 62, 87, 237]
42.314[61, 30, 26, 51, 96, 63, 85, 227]
42.336[78, 29, 26, 53, 99, 57, 87, 217]
42.352[75, 27, 24, 50, 93, 56, 90, 228]
42.374[79, 28, 25, 50, 89, 58, 83, 219]
42.396[85, 30, 24, 51, 83, 61, 84, 225]
42.419[82, 34, 24, 53, 73, 55, 82, 224]
42.434[66, 39, 25, 56, 81, 58, 76, 206]
42.456[80, 42, 27, 56, 80, 56, 83, 242]
42.471[78, 41, 26, 53, 80, 47, 92, 279]
42.494[71, 40, 27, 54, 82, 46, 90, 251]
42.516[71, 37, 26, 50, 81, 54, 115, 294]
42.531[75, 32, 26, 46, 68, 50, 113, 296]
42.554[68, 30, 24, 49, 71, 52, 109, 266]
42.576[66, 30, 26, 52, 78, 56, 101, 238]
42.591[68, 39, 26, 49, 74, 59, 100, 244]
42.614[82, 41, 26, 51, 72, 56, 85, 225]
42.636[74, 41, 27, 55, 87, 54, 83, 222]
42.651[68, 40, 25, 50, 81, 51, 82, 238]
42.682[76, 41, 24, 46, 72, 48, 91, 241]
42.696[75, 32, 26, 46, 80, 47, 87, 231]
42.711[63, 33, 28, 47, 89, 58, 75, 202]
42.734[68, 32, 26, 39, 80, 71, 83, 222]
42.756[72, 32, 27, 39, 97, 74, 92, 243]
42.771[65, 32, 27, 43, 116, 73, 82, 222]
42.794[70, 37, 27, 48, 120, 70, 79, 213]
42.817[80, 37, 24, 46, 116, 59, 92, 231]
42.831[81, 38, 25, 49, 118, 46, 94, 258]
42.854[75, 37, 27, 50, 110, 43, 86, 221]
42.876[76, 47, 27, 49, 96, 49, 87, 222]
42.891[77, 45, 24, 48, 93, 49, 93, 245]
42.922[80, 45, 24, 51, 92, 45, 86, 255]
42.936[73, 43, 24, 48, 89, 47, 77, 212]
42.959[85, 45, 23, 51, 82, 50, 75, 210]
42.974[84, 35, 25, 51, 83, 48, 81, 229]
42.996[81, 31, 27, 56, 87, 67, 71, 201]
43.02[65, 35, 27, 56, 85, 70, 89, 244]
43.034[67, 40, 29, 63, 95, 68, 89, 250]
43.056[57, 39, 32, 77, 96, 73, 95, 274]
43.08[56, 38, 28, 76, 90, 70, 88, 257]
43.094[56, 39, 28, 74, 82, 55, 89, 267]
43.116[55, 32, 30, 94, 82, 55, 82, 259]
43.14[65, 28, 29, 99, 65, 58, 82, 260]
43.154[66, 28, 28, 93, 76, 47, 74, 232]
43.176[78, 28, 28, 101, 77, 57, 73, 230]
43.2[83, 34, 28, 102, 77, 59, 79, 252]
43.222[85, 41, 27, 91, 87, 57, 61, 187]
43.236[84, 41, 28, 93, 85, 53, 61, 178]
43.26[79, 39, 27, 91, 75, 59, 58, 176]
43.274[73, 40, 27, 80, 72, 52, 69, 209]
43.296[66, 36, 26, 77, 88, 46, 73, 208]
43.319[76, 31, 25, 67, 76, 47, 79, 210]
43.334[67, 30, 24, 54, 82, 48, 79, 210]
43.356[73, 29, 26, 70, 83, 39, 88, 242]
43.379[64, 30, 26, 74, 90, 40, 91, 249]
43.394[64, 37, 28, 73, 68, 43, 82, 213]
43.416[48, 35, 29, 80, 78, 41, 75, 207]
43.439[46, 35, 29, 101, 81, 43, 83, 226]
43.454[44, 36, 25, 93, 84, 50, 89, 223]
43.476[51, 36, 29, 92, 80, 49, 77, 189]
43.5[55, 28, 27, 94, 84, 46, 77, 188]
43.514[57, 26, 28, 100, 87, 47, 85, 219]
43.536[58, 28, 28, 88, 86, 48, 84, 214]
43.56[57, 29, 28, 84, 78, 43, 82, 232]
43.574[52, 25, 26, 85, 84, 42, 81, 227]
43.596[51, 23, 27, 86, 95, 44, 87, 254]
43.62[75, 26, 26, 74, 88, 43, 76, 222]
43.642[78, 25, 24, 57, 80, 40, 75, 221]
43.656[80, 22, 24, 53, 80, 39, 66, 212]
43.679[84, 24, 27, 60, 77, 41, 78, 223]
43.694[83, 24, 27, 57, 65, 41, 76, 201]
43.716[60, 21, 27, 63, 71, 42, 78, 205]
43.74[59, 21, 27, 69, 83, 41, 72, 190]
43.754[54, 24, 29, 75, 84, 39, 81, 191]
43.776[52, 24, 26, 68, 82, 39, 73, 188]
43.8[56, 25, 24, 66, 80, 40, 74, 189]
43.814[60, 27, 23, 59, 69, 39, 72, 186]
43.845[58, 26, 25, 50, 53, 40, 88, 244]
43.86[57, 26, 23, 38, 60, 45, 77, 205]
43.882[51, 26, 25, 46, 63, 45, 74, 199]
43.897[50, 23, 26, 47, 57, 44, 70, 189]
43.919[44, 23, 25, 47, 55, 44, 70, 188]
43.942[60, 26, 26, 48, 54, 42, 74, 191]
43.957[61, 24, 27, 48, 47, 42, 84, 220]
43.979[63, 33, 24, 36, 40, 41, 85, 221]
44.002[63, 36, 25, 51, 47, 39, 88, 229]
44.017[65, 38, 28, 58, 53, 41, 93, 247]
44.047[46, 37, 27, 57, 54, 39, 77, 207]
44.062[48, 38, 25, 56, 53, 33, 72, 190]
44.077[53, 31, 26, 57, 66, 34, 73, 196]
44.1[51, 29, 24, 41, 69, 37, 80, 211]
44.122[48, 27, 22, 35, 68, 34, 80, 220]
44.137[48, 27, 23, 40, 68, 40, 78, 209]
44.159[67, 25, 25, 43, 71, 62, 74, 199]
44.182[101, 38, 28, 45, 61, 86, 82, 197]
44.197[153, 51, 31, 46, 52, 85, 73, 181]
44.219[157, 52, 30, 44, 48, 97, 92, 211]
44.242[161, 54, 28, 41, 48, 95, 91, 207]
44.257[154, 54, 26, 37, 64, 83, 96, 239]
44.28[136, 48, 24, 39, 71, 58, 92, 237]
44.302[81, 32, 21, 40, 72, 58, 97, 255]
44.317[72, 30, 24, 40, 73, 39, 76, 207]
44.339[64, 24, 25, 38, 76, 41, 85, 231]
44.362[61, 25, 26, 38, 61, 42, 75, 197]
44.376[46, 22, 25, 31, 48, 40, 69, 192]
44.407[35, 22, 25, 33, 48, 53, 86, 217]
44.43[41, 24, 23, 32, 46, 52, 86, 220]
44.436[42, 24, 21, 31, 39, 54, 85, 210]
44.459[44, 22, 21, 31, 40, 54, 96, 235]
44.482[45, 23, 20, 31, 37, 54, 100, 243]
44.496[47, 22, 19, 35, 63, 39, 90, 244]
44.527[49, 22, 21, 40, 65, 46, 100, 273]
44.542[51, 24, 23, 42, 75, 43, 114, 293]
44.556[49, 24, 21, 48, 81, 45, 106, 278]
44.58[48, 22, 23, 48, 84, 48, 105, 272]
44.602[47, 23, 25, 44, 68, 50, 105, 270]
44.616[38, 23, 23, 44, 70, 44, 107, 271]
44.64[44, 22, 22, 45, 65, 42, 88, 245]
44.662[45, 23, 23, 40, 65, 39, 85, 237]
44.676[46, 23, 22, 41, 74, 39, 82, 235]
44.699[46, 22, 20, 41, 79, 42, 73, 211]
44.722[47, 23, 24, 36, 76, 42, 67, 206]
44.737[34, 22, 24, 32, 72, 40, 66, 196]
44.759[36, 24, 23, 32, 65, 42, 71, 206]
44.782[41, 24, 24, 30, 51, 40, 81, 223]
44.805[38, 25, 26, 32, 50, 45, 81, 227]
44.82[38, 24, 24, 37, 69, 53, 75, 195]
44.842[38, 24, 25, 38, 77, 52, 71, 189]
44.865[38, 22, 24, 39, 82, 55, 65, 180]
44.88[160, 36, 23, 40, 84, 54, 65, 167]
44.902[175, 53, 22, 39, 79, 49, 80, 226]
44.925[177, 53, 23, 36, 64, 48, 80, 226]
44.94[180, 55, 23, 35, 54, 54, 80, 229]
44.963[183, 55, 24, 31, 46, 52, 79, 228]
44.984[102, 47, 24, 33, 42, 51, 68, 220]
45.0[75, 27, 24, 30, 41, 49, 78, 238]
45.022[71, 26, 22, 28, 35, 41, 83, 246]
45.044[66, 37, 22, 28, 34, 36, 85, 250]
45.059[56, 37, 23, 32, 43, 39, 85, 252]
45.082[40, 39, 23, 29, 46, 40, 87, 253]
45.105[41, 39, 24, 32, 49, 43, 87, 267]
45.119[40, 39, 26, 33, 51, 48, 83, 261]
45.142[35, 37, 27, 34, 52, 53, 89, 269]
45.164[34, 39, 26, 31, 52, 50, 90, 271]
45.18[35, 38, 26, 32, 49, 53, 91, 271]
45.202[28, 38, 24, 30, 46, 49, 74, 201]
45.224[32, 38, 24, 32, 46, 45, 87, 263]
45.239[31, 27, 22, 31, 44, 41, 83, 262]
45.262[33, 26, 21, 29, 34, 41, 91, 269]
45.284[33, 33, 22, 30, 33, 40, 89, 270]
45.299[42, 39, 23, 32, 36, 43, 106, 314]
45.323[38, 38, 22, 29, 30, 43, 96, 259]
45.344[39, 39, 23, 29, 39, 41, 92, 249]
45.36[38, 37, 25, 32, 39, 42, 85, 238]
45.39[42, 31, 24, 29, 44, 41, 110, 287]
45.404[33, 23, 25, 26, 44, 41, 96, 239]
45.42[34, 23, 24, 28, 45, 42, 102, 259]
45.443[34, 26, 23, 28, 43, 47, 111, 261]
45.466[34, 27, 21, 27, 44, 50, 111, 261]
45.48[30, 25, 22, 30, 47, 50, 98, 238]
45.503[32, 25, 20, 30, 44, 47, 97, 235]
45.524[33, 26, 20, 28, 44, 45, 90, 214]
45.54[33, 21, 20, 27, 41, 38, 79, 209]
45.563[33, 22, 20, 25, 39, 30, 81, 210]
45.591[31, 24, 21, 22, 29, 29, 65, 175]
45.6[28, 23, 21, 20, 31, 33, 65, 175]
45.623[29, 21, 23, 23, 36, 34, 74, 191]
45.644[31, 22, 23, 23, 35, 30, 75, 195]
45.668[31, 21, 24, 24, 38, 31, 72, 196]
45.683[31, 18, 23, 24, 40, 34, 72, 189]
45.704[33, 22, 22, 26, 40, 38, 72, 185]
45.721[33, 24, 21, 26, 42, 44, 68, 189]
45.742[30, 24, 21, 27, 43, 45, 71, 199]
45.764[31, 25, 20, 28, 42, 45, 73, 205]
45.796[37, 28, 20, 28, 41, 44, 74, 204]
45.801[34, 26, 20, 28, 38, 38, 71, 209]
45.824[34, 27, 20, 26, 31, 31, 75, 212]
45.846[34, 26, 19, 30, 38, 39, 73, 222]
45.869[34, 27, 19, 28, 38, 39, 74, 218]
45.884[27, 24, 20, 28, 36, 39, 79, 230]
45.915[26, 23, 21, 27, 36, 39, 71, 197]
45.922[26, 20, 22, 26, 37, 40, 65, 173]
45.953[31, 20, 23, 19, 27, 36, 80, 211]
45.967[30, 20, 23, 19, 26, 37, 77, 208]
45.981[31, 20, 24, 18, 30, 41, 76, 198]
46.004[33, 23, 24, 24, 32, 42, 79, 208]
46.027[37, 23, 23, 26, 41, 59, 80, 211]
46.041[33, 23, 23, 28, 44, 60, 67, 154]
46.071[33, 23, 23, 28, 45, 58, 70, 176]
46.086[37, 23, 24, 28, 43, 55, 76, 223]
46.101[36, 22, 23, 23, 41, 62, 75, 210]
46.124[30, 22, 22, 23, 32, 48, 73, 208]
46.146[29, 21, 21, 21, 28, 43, 70, 196]
46.162[31, 21, 21, 22, 27, 44, 76, 225]
46.191[34, 22, 21, 21, 29, 43, 63, 177]
46.224[38, 21, 21, 22, 30, 34, 79, 223]
46.225[40, 22, 22, 21, 29, 31, 85, 224]
46.244[39, 23, 21, 21, 27, 33, 84, 224]
46.267[37, 22, 20, 23, 28, 33, 76, 176]
46.281[28, 21, 22, 24, 24, 33, 76, 173]
46.304[28, 24, 22, 25, 28, 39, 71, 173]
46.326[30, 23, 22, 26, 27, 39, 85, 224]
46.341[30, 25, 23, 26, 31, 40, 88, 224]
46.364[35, 26, 26, 24, 29, 39, 87, 226]
46.394[35, 25, 23, 24, 31, 39, 89, 227]
46.401[34, 23, 22, 21, 26, 30, 81, 203]
46.424[34, 24, 23, 18, 27, 37, 66, 173]
46.446[36, 23, 22, 20, 26, 42, 76, 215]
46.469[34, 23, 20, 22, 26, 43, 91, 231]
46.485[34, 25, 21, 20, 29, 44, 90, 230]
46.506[30, 26, 21, 21, 30, 44, 84, 206]
46.521[30, 24, 21, 22, 30, 35, 87, 222]
46.546[34, 25, 22, 23, 29, 28, 84, 209]
46.566[32, 22, 23, 21, 31, 27, 69, 192]
46.581[32, 22, 22, 21, 29, 29, 74, 198]
46.604[34, 21, 21, 23, 28, 30, 78, 201]
46.626[31, 21, 21, 23, 29, 31, 67, 149]
46.641[29, 21, 21, 22, 28, 30, 71, 179]
46.672[29, 23, 20, 22, 25, 31, 76, 197]
46.687[30, 23, 21, 22, 25, 34, 74, 203]
46.709[32, 23, 20, 23, 28, 34, 82, 218]
46.724[33, 24, 20, 23, 29, 36, 82, 216]
46.748[38, 24, 20, 22, 30, 41, 102, 291]
46.769[37, 23, 21, 23, 36, 39, 100, 284]
46.784[37, 24, 21, 23, 35, 34, 99, 281]
46.806[33, 24, 23, 22, 33, 35, 91, 274]
46.829[33, 23, 24, 22, 31, 38, 91, 275]
46.844[23, 21, 23, 22, 30, 33, 62, 150]
46.866[31, 21, 23, 21, 25, 34, 84, 226]
46.897[31, 18, 24, 20, 24, 34, 83, 224]
46.904[32, 20, 23, 19, 26, 35, 85, 223]
46.926[32, 20, 22, 18, 26, 32, 85, 225]
46.949[31, 20, 22, 17, 27, 32, 77, 210]
46.98[29, 23, 22, 20, 26, 33, 85, 191]
46.986[27, 24, 20, 21, 26, 35, 88, 196]
47.01[30, 26, 21, 20, 26, 34, 95, 237]
47.025[30, 26, 20, 21, 25, 36, 99, 241]
47.047[31, 26, 21, 22, 26, 38, 102, 244]
47.069[28, 26, 22, 20, 29, 36, 78, 194]
47.084[31, 27, 23, 22, 30, 40, 89, 220]
47.108[29, 24, 21, 23, 30, 43, 81, 172]
47.129[34, 26, 22, 24, 34, 45, 91, 212]
47.151[35, 27, 21, 23, 33, 45, 89, 214]
47.182[35, 26, 20, 24, 31, 48, 97, 249]
47.189[33, 26, 20, 21, 34, 48, 84, 219]
47.204[33, 26, 22, 20, 33, 44, 89, 225]
47.228[30, 25, 23, 20, 29, 39, 84, 236]
47.249[31, 23, 22, 21, 29, 40, 84, 233]
47.264[31, 22, 23, 22, 27, 36, 71, 187]
47.286[31, 21, 23, 25, 24, 29, 75, 212]
47.309[29, 21, 23, 26, 32, 35, 63, 203]
47.324[28, 20, 21, 24, 35, 38, 57, 163]
47.346[33, 21, 22, 25, 36, 41, 82, 236]
47.369[32, 21, 22, 24, 38, 42, 82, 242]
47.385[35, 24, 20, 21, 38, 43, 83, 237]
47.406[34, 23, 20, 21, 31, 41, 90, 258]
47.43[32, 25, 21, 22, 29, 40, 85, 241]
47.444[28, 25, 22, 20, 27, 34, 77, 194]
47.466[30, 25, 23, 20, 25, 33, 87, 233]
47.489[27, 23, 23, 19, 22, 33, 82, 216]
47.505[29, 23, 23, 19, 24, 34, 89, 243]
47.528[29, 21, 22, 19, 25, 33, 90, 246]
47.549[26, 21, 21, 21, 25, 32, 76, 228]
47.564[21, 20, 23, 23, 24, 34, 63, 177]
47.588[29, 20, 23, 23, 25, 36, 79, 235]
47.609[29, 21, 22, 23, 26, 34, 75, 212]
47.624[28, 21, 23, 22, 23, 35, 77, 215]
47.655[30, 22, 23, 22, 23, 35, 78, 216]
47.669[30, 24, 21, 20, 24, 34, 78, 219]
47.692[28, 22, 23, 23, 24, 33, 71, 185]
47.707[28, 24, 24, 23, 23, 33, 72, 184]
47.729[31, 26, 25, 25, 24, 34, 84, 216]
47.752[30, 25, 24, 24, 24, 36, 84, 221]
47.767[30, 27, 25, 25, 25, 35, 84, 218]
47.789[27, 28, 24, 23, 26, 32, 76, 193]
47.812[25, 27, 23, 23, 26, 32, 63, 157]
47.826[26, 25, 22, 21, 30, 34, 78, 221]
47.857[28, 27, 23, 23, 30, 34, 85, 225]
47.872[27, 25, 22, 22, 29, 34, 87, 228]
47.887[28, 24, 23, 21, 27, 33, 85, 226]
47.909[27, 24, 23, 24, 30, 35, 85, 226]
47.932[23, 23, 23, 25, 28, 33, 51, 101]
47.955[28, 22, 22, 25, 34, 35, 64, 188]
47.969[29, 23, 21, 25, 36, 35, 64, 196]
47.992[31, 24, 19, 24, 37, 36, 73, 206]
48.015[30, 24, 19, 23, 35, 32, 75, 212]
48.029[30, 26, 19, 23, 34, 32, 76, 214]
48.052[31, 26, 20, 23, 29, 30, 77, 228]
48.066[32, 25, 22, 24, 34, 30, 78, 230]
48.091[32, 24, 22, 24, 39, 30, 78, 229]
48.112[35, 24, 23, 24, 39, 31, 81, 232]
48.126[36, 22, 24, 24, 38, 30, 85, 235]
48.149[31, 22, 22, 24, 37, 28, 67, 144]
48.172[34, 22, 22, 25, 32, 30, 88, 238]
48.186[32, 22, 24, 23, 26, 30, 85, 243]
48.209[30, 23, 25, 23, 31, 31, 82, 239]
48.232[29, 25, 26, 23, 31, 30, 79, 237]
48.246[31, 24, 26, 23, 30, 32, 87, 249]
48.269[31, 24, 30, 22, 32, 32, 83, 214]
48.292[31, 25, 28, 23, 32, 36, 83, 207]
48.307[32, 25, 26, 23, 30, 35, 83, 211]
48.329[32, 23, 24, 22, 30, 35, 82, 210]
48.352[27, 23, 23, 24, 30, 34, 70, 192]
48.367[28, 24, 17, 24, 29, 34, 89, 203]
48.389[31, 26, 19, 25, 30, 31, 93, 232]
48.412[33, 24, 19, 25, 27, 31, 94, 231]
48.426[34, 26, 22, 24, 29, 34, 96, 238]
48.449[35, 26, 23, 23, 29, 37, 97, 241]
48.472[31, 26, 21, 22, 28, 34, 65, 189]
48.494[29, 24, 22, 20, 32, 37, 58, 157]
48.517[34, 23, 22, 22, 35, 40, 84, 241]
48.532[35, 22, 21, 22, 33, 40, 83, 237]
48.547[36, 23, 22, 22, 33, 38, 85, 241]
48.569[34, 22, 25, 21, 32, 41, 83, 230]
48.592[34, 23, 24, 23, 29, 38, 82, 224]
48.622[26, 25, 25, 21, 28, 35, 56, 128]
48.629[32, 27, 27, 22, 29, 35, 80, 220]
48.652[35, 27, 26, 22, 29, 34, 87, 231]
48.674[35, 25, 25, 22, 29, 32, 89, 231]
48.689[34, 25, 25, 21, 29, 31, 87, 228]
48.712[32, 24, 25, 24, 26, 30, 84, 220]
48.734[26, 22, 21, 20, 24, 29, 66, 144]
48.749[25, 23, 21, 21, 28, 32, 62, 170]
48.772[24, 25, 20, 20, 30, 29, 59, 175]
48.794[23, 23, 20, 22, 33, 29, 60, 186]
48.808[24, 24, 19, 22, 36, 37, 63, 189]
48.832[22, 23, 19, 24, 36, 37, 57, 175]
48.855[23, 21, 19, 23, 34, 35, 54, 140]
48.869[27, 23, 19, 26, 31, 37, 64, 155]
48.892[32, 25, 19, 27, 31, 41, 83, 218]
48.914[33, 24, 20, 23, 34, 35, 86, 224]
48.929[33, 26, 22, 24, 35, 36, 86, 223]
48.955[31, 27, 23, 25, 36, 38, 79, 212]
48.974[26, 25, 23, 24, 37, 36, 70, 191]
48.99[22, 23, 23, 23, 34, 33, 42, 96]
49.012[32, 23, 22, 23, 28, 31, 86, 253]
49.034[33, 22, 21, 22, 29, 29, 91, 266]
49.049[35, 22, 22, 21, 29, 25, 92, 270]
49.072[36, 22, 21, 21, 31, 28, 92, 274]
49.095[36, 22, 20, 21, 32, 28, 94, 277]
49.117[26, 21, 21, 21, 30, 29, 51, 139]
49.132[27, 20, 20, 20, 29, 29, 64, 170]
49.155[26, 21, 19, 22, 27, 38, 77, 219]
49.169[29, 21, 21, 21, 23, 41, 86, 229]
49.192[28, 21, 22, 21, 21, 41, 83, 227]
49.215[28, 22, 22, 22, 23, 40, 83, 225]
49.229[26, 25, 24, 22, 25, 40, 68, 184]
49.252[26, 25, 24, 22, 26, 36, 70, 162]
49.275[26, 27, 23, 23, 26, 33, 66, 177]
49.289[27, 26, 21, 21, 27, 32, 71, 182]
49.312[29, 26, 21, 22, 25, 33, 75, 192]
49.335[30, 23, 19, 22, 23, 31, 76, 193]
49.349[28, 22, 19, 22, 25, 29, 65, 162]
49.372[26, 21, 21, 19, 26, 28, 55, 121]
49.395[28, 21, 21, 20, 30, 27, 71, 187]
49.409[26, 21, 20, 18, 29, 30, 72, 191]
49.432[26, 20, 24, 19, 30, 30, 71, 190]
49.455[27, 21, 24, 20, 30, 31, 67, 181]
49.477[26, 20, 24, 20, 29, 29, 67, 179]
49.492[30, 23, 23, 21, 25, 31, 71, 183]
49.514[35, 27, 25, 23, 27, 33, 98, 263]
49.529[36, 27, 23, 21, 25, 33, 101, 276]
49.552[36, 24, 24, 20, 28, 36, 103, 280]
49.574[37, 26, 23, 19, 28, 37, 104, 283]
49.597[33, 25, 24, 18, 28, 36, 88, 238]
49.612[32, 22, 22, 18, 30, 35, 77, 212]
49.635[32, 24, 23, 18, 30, 40, 78, 202]
49.657[30, 25, 21, 21, 28, 37, 79, 205]
49.672[28, 22, 22, 22, 27, 36, 81, 209]
49.694[27, 23, 22, 22, 27, 36, 81, 207]
49.717[22, 21, 21, 21, 24, 41, 67, 152]
49.732[24, 22, 20, 21, 25, 42, 74, 196]
49.755[27, 22, 21, 18, 24, 46, 84, 214]
49.777[29, 24, 20, 18, 25, 47, 82, 209]
49.792[30, 23, 20, 20, 28, 48, 84, 212]
49.822[29, 25, 22, 20, 32, 44, 74, 187]
49.837[29, 24, 20, 19, 34, 43, 70, 186]
49.853[26, 24, 20, 22, 33, 41, 63, 182]
49.875[25, 22, 21, 25, 32, 39, 61, 181]
49.897[25, 21, 21, 24, 32, 39, 68, 196]
49.912[23, 22, 21, 24, 30, 34, 68, 195]
49.934[23, 20, 22, 23, 31, 28, 67, 167]
49.957[25, 21, 19, 23, 32, 25, 66, 168]
49.972[29, 22, 19, 21, 31, 27, 83, 217]
49.995[28, 22, 20, 22, 29, 26, 77, 209]
50.017[29, 21, 19, 22, 30, 28, 79, 211]
50.032[27, 22, 19, 23, 27, 29, 71, 193]
50.055[36, 21, 20, 20, 28, 31, 98, 256]
50.077[35, 23, 18, 21, 28, 31, 86, 221]
50.092[38, 24, 19, 19, 30, 34, 99, 262]
50.114[38, 26, 18, 19, 31, 34, 103, 269]
50.137[39, 26, 18, 20, 31, 34, 104, 270]
50.151[28, 26, 19, 22, 32, 31, 73, 189]
50.175[26, 24, 20, 20, 37, 29, 71, 180]
50.197[26, 23, 20, 20, 37, 31, 61, 165]
50.211[27, 22, 22, 21, 35, 30, 52, 156]
50.234[27, 23, 23, 21, 34, 31, 71, 187]
50.257[28, 24, 22, 20, 32, 34, 72, 192]
50.279[29, 23, 23, 21, 33, 35, 76, 200]
50.294[23, 22, 23, 24, 35, 31, 68, 155]
50.317[27, 22, 21, 23, 34, 32, 77, 193]
50.339[27, 21, 22, 23, 35, 31, 62, 171]
50.355[31, 19, 22, 22, 36, 31, 77, 217]
50.378[30, 19, 20, 23, 29, 34, 75, 215]
50.399[32, 19, 19, 21, 29, 35, 82, 224]
50.415[28, 20, 21, 21, 31, 36, 73, 192]
50.436[28, 18, 20, 22, 35, 36, 71, 182]
50.459