[25, 25, 28, 19, 23, 19, 23, 19]
0.889[28, 27, 30, 19, 23, 21, 23, 20]
0.913[27, 26, 29, 18, 24, 22, 25, 22]
0.934[28, 26, 30, 20, 26, 24, 27, 22]
0.95[24, 24, 27, 19, 26, 24, 26, 23]
0.972[22, 23, 26, 20, 27, 25, 23, 22]
0.994[22, 20, 23, 21, 26, 25, 22, 21]
1.011[23, 19, 23, 21, 24, 24, 20, 19]
1.032[22, 19, 20, 21, 23, 21, 19, 20]
1.055[21, 18, 22, 21, 20, 19, 17, 18]
1.07[21, 19, 19, 19, 16, 18, 19, 18]
1.1[18, 19, 19, 19, 16, 16, 18, 18]
1.114[16, 19, 20, 22, 17, 17, 19, 20]
1.129[16, 20, 20, 20, 17, 18, 19, 19]
1.16[17, 21, 18, 20, 17, 18, 20, 20]
1.175[15, 20, 18, 20, 18, 18, 20, 21]
1.19[16, 19, 17, 20, 18, 18, 22, 19]
1.212[18, 19, 17, 18, 19, 19, 20, 19]
1.234[18, 19, 17, 19, 18, 19, 21, 18]
1.249[17, 19, 16, 19, 20, 20, 22, 18]
1.272[18, 17, 16, 21, 20, 20, 21, 19]
1.295[19, 19, 18, 19, 19, 20, 18, 19]
1.31[18, 19, 17, 19, 19, 19, 19, 17]
1.332[18, 18, 18, 19, 19, 19, 20, 17]
1.355[18, 16, 20, 19, 20, 19, 20, 17]
1.37[18, 19, 20, 18, 20, 18, 20, 15]
1.392[17, 18, 20, 20, 21, 17, 20, 17]
1.414[17, 17, 20, 18, 21, 18, 21, 18]
1.431[17, 17, 20, 20, 21, 18, 20, 18]
1.452[18, 18, 19, 20, 19, 17, 20, 19]
1.474[18, 16, 21, 21, 19, 17, 20, 21]
1.49[16, 15, 19, 20, 19, 17, 21, 20]
1.512[16, 14, 18, 21, 19, 16, 20, 21]
1.534[16, 16, 18, 20, 18, 15, 19, 22]
1.55[14, 17, 18, 20, 19, 17, 19, 21]
1.572[13, 19, 16, 20, 21, 17, 21, 20]
1.594[15, 20, 17, 20, 20, 19, 22, 20]
1.61[15, 21, 19, 19, 18, 18, 22, 19]
1.64[16, 20, 20, 20, 21, 20, 22, 19]
1.655[17, 21, 20, 20, 21, 20, 21, 20]
1.669[18, 20, 19, 19, 19, 20, 20, 20]
1.691[17, 20, 19, 19, 19, 19, 21, 22]
1.714[17, 20, 17, 19, 20, 20, 21, 23]
1.737[16, 20, 15, 18, 17, 18, 22, 24]
1.751[17, 19, 17, 18, 17, 19, 23, 24]
1.774[16, 19, 18, 17, 17, 19, 23, 24]
1.797[16, 20, 20, 18, 17, 18, 21, 21]
1.82[16, 19, 20, 18, 17, 19, 22, 20]
1.834[18, 20, 20, 19, 17, 19, 20, 18]
1.857[18, 20, 19, 19, 19, 18, 21, 19]
1.88[19, 20, 20, 19, 20, 18, 21, 19]
1.894[20, 19, 18, 20, 19, 18, 22, 18]
1.917[20, 20, 18, 19, 19, 18, 21, 19]
1.939[20, 21, 22, 19, 20, 17, 22, 19]
1.954[19, 20, 21, 21, 18, 17, 20, 17]
1.977[21, 23, 21, 20, 18, 17, 18, 15]
1.999[20, 23, 22, 19, 19, 18, 18, 17]
2.014[20, 22, 21, 20, 20, 18, 18, 18]
2.037[18, 21, 19, 19, 20, 18, 18, 17]
2.059[19, 21, 21, 16, 21, 18, 19, 18]
2.074[18, 18, 19, 18, 21, 18, 19, 19]
2.097[19, 18, 21, 17, 21, 20, 19, 18]
2.119[18, 18, 22, 16, 20, 19, 20, 19]
2.134[21, 19, 22, 18, 20, 20, 19, 19]
2.157[22, 19, 22, 19, 19, 22, 19, 19]
2.179[22, 20, 22, 19, 18, 20, 19, 20]
2.194[21, 20, 20, 19, 17, 19, 20, 18]
2.217[21, 21, 22, 18, 16, 20, 20, 18]
2.239[20, 21, 23, 17, 17, 19, 21, 19]
2.262[19, 20, 21, 18, 17, 20, 21, 18]
2.277[18, 19, 21, 19, 19, 20, 21, 16]
2.299[18, 19, 21, 20, 19, 20, 20, 17]
2.322[18, 19, 18, 21, 20, 19, 17, 18]
2.337[16, 20, 20, 21, 19, 18, 16, 17]
2.359[18, 21, 22, 18, 18, 16, 14, 18]
2.382[19, 21, 22, 17, 18, 16, 15, 20]
2.397[17, 21, 20, 18, 20, 16, 16, 20]
2.419[18, 20, 23, 20, 18, 18, 19, 19]
2.442[17, 20, 23, 21, 19, 17, 19, 18]
2.457[17, 19, 23, 20, 21, 20, 19, 18]
2.479[18, 21, 22, 21, 21, 20, 20, 19]
2.502[19, 20, 23, 20, 21, 21, 19, 19]
2.517[20, 20, 22, 17, 22, 20, 18, 20]
2.54[20, 22, 19, 17, 22, 21, 18, 20]
2.562[21, 23, 17, 19, 22, 19, 18, 20]
2.577[20, 22, 18, 17, 23, 17, 17, 18]
2.6[21, 23, 18, 18, 22, 18, 17, 18]
2.622[21, 21, 18, 19, 21, 19, 18, 17]
2.638[21, 19, 19, 18, 21, 17, 18, 16]
2.659[19, 17, 19, 18, 19, 18, 18, 15]
2.682[20, 17, 19, 19, 18, 18, 18, 20]
2.697[21, 18, 21, 19, 18, 18, 17, 19]
2.727[18, 21, 20, 20, 18, 19, 16, 19]
2.75[18, 20, 19, 20, 18, 21, 16, 19]
2.764[20, 20, 21, 20, 19, 20, 16, 20]
2.779[19, 20, 21, 22, 20, 20, 16, 16]
2.802[21, 20, 19, 21, 21, 20, 16, 17]
2.816[20, 18, 19, 20, 20, 18, 18, 18]
2.84[21, 19, 21, 19, 20, 18, 17, 17]
2.862[19, 19, 18, 19, 20, 18, 18, 17]
2.877[19, 20, 17, 16, 20, 20, 19, 17]
2.899[18, 20, 20, 17, 18, 19, 20, 17]
2.922[19, 20, 20, 18, 20, 19, 20, 16]
2.937[20, 20, 19, 19, 20, 20, 21, 18]
2.959[20, 20, 20, 18, 20, 20, 19, 17]
2.982[21, 19, 21, 17, 19, 19, 19, 17]
3.004[20, 19, 19, 17, 20, 20, 19, 17]
3.02[19, 19, 19, 17, 20, 20, 18, 17]
3.041[17, 18, 20, 16, 20, 18, 19, 16]
3.064[18, 20, 19, 18, 19, 17, 21, 18]
3.08[17, 18, 17, 21, 19, 19, 21, 18]
3.101[16, 19, 17, 21, 19, 20, 20, 20]
3.124[17, 19, 17, 22, 18, 21, 20, 21]
3.148[18, 20, 17, 23, 16, 20, 19, 21]
3.161[18, 19, 19, 22, 19, 20, 20, 21]
3.184[18, 20, 19, 21, 19, 17, 21, 20]
3.2[19, 21, 19, 20, 19, 17, 20, 19]
3.221[18, 20, 23, 20, 20, 16, 20, 18]
3.244[17, 19, 23, 19, 21, 18, 21, 19]
3.26[18, 20, 23, 20, 20, 17, 18, 20]
3.281[18, 19, 22, 20, 20, 19, 19, 21]
3.305[19, 18, 23, 19, 21, 19, 19, 21]
3.32[19, 18, 19, 18, 19, 18, 21, 22]
3.341[20, 18, 21, 19, 18, 18, 22, 20]
3.364[19, 18, 20, 18, 17, 20, 22, 19]
3.381[18, 17, 21, 16, 19, 19, 20, 19]
3.401[17, 17, 21, 19, 19, 19, 21, 18]
3.424[17, 17, 20, 20, 19, 21, 19, 17]
3.44[18, 18, 19, 21, 20, 21, 18, 18]
3.462[17, 19, 18, 21, 23, 20, 19, 21]
3.484[18, 23, 19, 21, 21, 20, 20, 21]
3.508[19, 23, 19, 20, 23, 22, 20, 19]
3.522[19, 23, 19, 20, 25, 21, 20, 19]
3.544[19, 23, 19, 18, 24, 19, 20, 19]
3.56[20, 24, 20, 18, 23, 21, 19, 16]
3.581[21, 21, 20, 18, 22, 21, 18, 16]
3.604[20, 22, 20, 20, 20, 19, 19, 16]
3.62[20, 22, 20, 20, 18, 20, 18, 16]
3.641[22, 23, 20, 22, 20, 21, 17, 15]
3.664[21, 21, 20, 22, 19, 19, 17, 16]
3.68[19, 21, 19, 22, 20, 19, 17, 16]
3.701[20, 20, 21, 21, 21, 19, 15, 18]
3.724[19, 19, 22, 19, 22, 17, 15, 18]
3.74[16, 18, 22, 19, 23, 17, 15, 19]
3.761[16, 19, 24, 19, 24, 16, 15, 19]
3.784[17, 19, 25, 20, 24, 17, 17, 19]
3.8[17, 18, 22, 20, 24, 16, 19, 18]
3.821[19, 20, 20, 21, 23, 18, 19, 19]
3.844[20, 20, 21, 21, 21, 19, 19, 18]
3.86[22, 21, 21, 22, 20, 21, 19, 19]
3.881[24, 20, 20, 21, 20, 22, 18, 18]
3.904[24, 20, 21, 20, 19, 21, 17, 21]
3.919[23, 20, 22, 19, 18, 21, 18, 20]
3.941[23, 21, 21, 19, 17, 22, 19, 21]
3.963[21, 19, 19, 18, 18, 19, 18, 21]
3.979[20, 20, 19, 19, 18, 19, 16, 21]
4.001[23, 20, 19, 20, 19, 18, 17, 19]
4.023[24, 20, 19, 23, 20, 19, 17, 18]
4.039[25, 19, 20, 22, 19, 16, 17, 18]
4.063[26, 19, 22, 21, 20, 17, 18, 18]
4.084[25, 18, 23, 20, 19, 16, 20, 18]
4.099[23, 19, 23, 20, 20, 19, 20, 18]
4.121[20, 18, 24, 19, 21, 17, 19, 19]
4.144[20, 19, 23, 20, 22, 18, 19, 17]
4.166[20, 20, 21, 21, 22, 18, 19, 17]
4.181[21, 21, 21, 20, 23, 22, 18, 17]
4.204[22, 22, 22, 22, 22, 22, 17, 18]
4.226[22, 21, 21, 21, 21, 22, 18, 20]
4.241[21, 21, 22, 20, 21, 22, 17, 20]
4.264[20, 21, 23, 19, 20, 22, 16, 20]
4.286[21, 20, 24, 20, 18, 18, 16, 19]
4.301[19, 20, 23, 18, 19, 19, 17, 18]
4.324[18, 20, 23, 20, 20, 20, 18, 17]
4.346[19, 21, 23, 19, 18, 20, 19, 18]
4.361[18, 21, 22, 20, 18, 19, 19, 19]
4.384[15, 22, 20, 21, 18, 18, 20, 20]
4.406[17, 20, 19, 21, 18, 18, 19, 20]
4.422[17, 21, 20, 22, 17, 16, 17, 19]
4.443[17, 19, 19, 22, 16, 20, 17, 18]
4.466[17, 19, 20, 22, 18, 20, 17, 16]
4.489[19, 21, 19, 20, 18, 21, 15, 16]
4.504[18, 21, 20, 21, 18, 19, 15, 17]
4.526[18, 19, 19, 18, 22, 19, 17, 16]
4.542[19, 23, 19, 20, 22, 17, 18, 18]
4.564[22, 22, 19, 20, 20, 18, 19, 18]
4.586[21, 20, 19, 20, 22, 17, 18, 16]
4.601[24, 21, 18, 19, 23, 18, 19, 17]
4.624[24, 23, 18, 21, 22, 20, 19, 17]
4.646[22, 21, 18, 21, 22, 20, 18, 16]
4.669[22, 21, 19, 21, 23, 19, 19, 17]
4.685[21, 23, 19, 20, 21, 19, 18, 18]
4.706[18, 20, 19, 20, 20, 19, 19, 17]
4.723[22, 18, 19, 16, 19, 18, 18, 17]
4.746[25, 17, 19, 15, 19, 16, 19, 17]
4.766[23, 19, 19, 15, 20, 17, 19, 17]
4.781[25, 17, 18, 17, 21, 18, 20, 17]
4.804[26, 19, 18, 17, 21, 18, 19, 17]
4.826[23, 19, 19, 19, 21, 17, 19, 17]
4.841[20, 20, 19, 18, 20, 17, 18, 16]
4.872[21, 22, 19, 19, 19, 17, 18, 16]
4.886[20, 23, 19, 20, 18, 17, 20, 18]
4.909[19, 22, 22, 18, 19, 17, 21, 20]
4.924[20, 22, 21, 18, 18, 18, 21, 20]
4.946[21, 23, 23, 19, 18, 19, 22, 20]
4.969[19, 22, 24, 19, 19, 18, 22, 20]
4.983[19, 23, 24, 18, 20, 20, 20, 19]
5.006[18, 23, 23, 22, 19, 21, 18, 17]
5.023[20, 24, 21, 22, 19, 20, 16, 18]
5.044[19, 21, 19, 22, 20, 20, 18, 17]
5.074[20, 22, 18, 23, 20, 20, 19, 17]
5.089[20, 20, 18, 23, 20, 18, 19, 18]
5.104[21, 21, 17, 20, 20, 17, 19, 17]
5.126[18, 22, 17, 18, 20, 21, 21, 17]
5.149[19, 23, 19, 18, 19, 20, 19, 17]
5.164[19, 22, 19, 17, 19, 20, 18, 17]
5.186[19, 22, 20, 17, 18, 23, 17, 15]
5.209[19, 21, 21, 17, 19, 23, 17, 16]
5.225[20, 20, 22, 17, 18, 19, 17, 15]
5.247[19, 20, 20, 17, 17, 21, 18, 18]
5.277[17, 20, 20, 16, 17, 21, 17, 17]
5.284[17, 20, 19, 18, 16, 19, 18, 18]
5.306[18, 20, 19, 20, 15, 18, 19, 17]
5.337[17, 19, 19, 20, 18, 19, 18, 17]
5.343[18, 19, 20, 20, 19, 16, 18, 16]
5.366[19, 20, 23, 22, 19, 18, 20, 18]
5.389[18, 20, 22, 20, 19, 17, 19, 22]
5.404[19, 21, 23, 20, 19, 20, 19, 22]
5.426[19, 21, 23, 21, 18, 19, 20, 22]
5.45[19, 21, 23, 22, 20, 20, 20, 21]
5.464[21, 20, 23, 21, 19, 20, 18, 21]
5.486[24, 20, 24, 23, 21, 20, 19, 17]
5.509[23, 19, 22, 23, 23, 17, 19, 17]
5.525[24, 22, 22, 21, 23, 19, 20, 17]
5.546[25, 20, 22, 21, 20, 19, 18, 23]
5.569[22, 19, 19, 23, 21, 16, 18, 24]
5.584[20, 21, 21, 22, 19, 16, 18, 24]
5.606[20, 22, 20, 21, 18, 16, 20, 25]
5.629[19, 20, 20, 22, 18, 16, 20, 26]
5.644[18, 22, 20, 23, 17, 16, 21, 21]
5.666[20, 24, 20, 22, 18, 18, 23, 20]
5.689[22, 21, 19, 23, 18, 18, 23, 19]
5.704[22, 22, 19, 22, 16, 17, 21, 17]
5.726[22, 23, 18, 22, 15, 17, 22, 15]
5.749[23, 22, 20, 21, 19, 18, 21, 16]
5.764[22, 20, 22, 21, 18, 17, 20, 17]
5.794[21, 20, 21, 19, 18, 18, 21, 16]
5.817[20, 20, 22, 19, 19, 20, 21, 16]
5.824[20, 21, 22, 20, 20, 21, 21, 16]
5.846[19, 23, 22, 19, 17, 21, 22, 16]
5.869[18, 23, 20, 19, 18, 20, 22, 16]
5.884[18, 25, 21, 19, 18, 19, 22, 16]
5.906[18, 24, 23, 19, 19, 18, 22, 19]
5.93[18, 22, 22, 18, 18, 19, 20, 19]
5.943[18, 19, 22, 18, 19, 18, 21, 20]
5.966[17, 20, 21, 18, 18, 19, 19, 20]
5.99[18, 20, 21, 21, 18, 19, 19, 22]
6.019[19, 19, 21, 21, 17, 17, 19, 20]
6.026[20, 21, 21, 22, 17, 19, 21, 21]
6.05[20, 20, 21, 23, 17, 19, 21, 20]
6.072[21, 21, 23, 22, 18, 19, 20, 19]
6.086[20, 20, 22, 20, 20, 22, 19, 17]
6.11[19, 19, 22, 20, 20, 22, 18, 17]
6.132[18, 18, 21, 19, 20, 19, 15, 19]
6.146[20, 20, 19, 19, 20, 18, 15, 18]
6.17[20, 20, 20, 19, 19, 19, 15, 19]
6.192[19, 21, 21, 19, 20, 17, 15, 19]
6.206[19, 20, 20, 20, 19, 16, 16, 18]
6.23[21, 23, 22, 21, 21, 17, 17, 17]
6.253[19, 22, 23, 20, 21, 17, 17, 17]
6.266[21, 21, 21, 21, 21, 18, 17, 17]
6.29[24, 20, 21, 20, 20, 17, 18, 18]
6.312[24, 21, 21, 19, 21, 20, 17, 20]
6.326[23, 19, 21, 19, 19, 20, 17, 19]
6.35[23, 18, 20, 20, 21, 20, 18, 19]
6.372[21, 19, 19, 19, 21, 22, 19, 18]
6.386[19, 20, 20, 21, 21, 22, 19, 19]
6.409[18, 20, 19, 22, 21, 20, 20, 17]
6.432[18, 21, 18, 22, 20, 22, 19, 19]
6.446[19, 22, 21, 22, 19, 23, 18, 20]
6.469[20, 21, 20, 22, 19, 21, 17, 20]
6.492[19, 20, 19, 22, 21, 22, 17, 19]
6.506[19, 19, 21, 20, 21, 23, 17, 21]
6.53[18, 19, 21, 20, 23, 21, 17, 20]
6.559[18, 20, 19, 21, 20, 22, 17, 20]
6.566[17, 20, 20, 20, 23, 22, 18, 20]
6.59[18, 20, 22, 19, 23, 22, 17, 20]
6.612[19, 20, 22, 20, 23, 21, 17, 19]
6.626[19, 20, 22, 20, 22, 23, 16, 18]
6.649[20, 19, 22, 19, 23, 20, 16, 19]
6.672[20, 18, 22, 20, 22, 20, 16, 17]
6.686[18, 19, 20, 19, 22, 21, 16, 18]
6.71[20, 22, 20, 19, 22, 20, 16, 18]
6.732[20, 21, 21, 20, 22, 19, 18, 18]
6.746[19, 23, 22, 21, 22, 19, 19, 18]
6.77[20, 23, 21, 20, 21, 18, 18, 21]
6.792[20, 23, 21, 21, 19, 17, 19, 19]
6.806[17, 22, 21, 22, 19, 16, 19, 21]
6.83[18, 23, 19, 20, 17, 16, 17, 21]
6.852[18, 22, 20, 19, 17, 17, 18, 22]
6.866[18, 22, 21, 18, 17, 17, 20, 22]
6.889[18, 22, 20, 17, 18, 19, 19, 22]
6.912[19, 21, 20, 16, 20, 19, 19, 20]
6.926[17, 21, 22, 16, 20, 20, 20, 21]
6.95[17, 21, 20, 19, 21, 18, 20, 21]
6.979[18, 20, 19, 19, 22, 18, 18, 20]
6.994[18, 20, 20, 20, 21, 17, 19, 19]
7.01[18, 21, 20, 20, 19, 17, 19, 19]
7.032[19, 22, 18, 22, 20, 18, 18, 20]
7.054[19, 22, 18, 21, 19, 19, 16, 18]
7.07[17, 23, 19, 21, 19, 19, 16, 17]
7.092[19, 23, 19, 20, 17, 19, 16, 20]
7.114[19, 20, 20, 19, 19, 19, 17, 20]
7.129[19, 22, 22, 19, 19, 19, 17, 19]
7.152[19, 21, 22, 19, 19, 19, 18, 19]
7.174[19, 21, 24, 19, 19, 18, 20, 19]
7.19[17, 20, 23, 20, 21, 18, 19, 16]
7.212[18, 22, 23, 20, 18, 17, 20, 18]
7.234[18, 20, 22, 19, 18, 17, 21, 18]
7.25[19, 21, 23, 16, 20, 19, 23, 20]
7.272[20, 20, 21, 17, 19, 18, 20, 21]
7.294[20, 21, 21, 18, 18, 21, 21, 20]
7.31[19, 20, 21, 17, 20, 21, 20, 20]
7.332[19, 20, 20, 19, 20, 22, 19, 21]
7.354[19, 18, 18, 21, 19, 20, 17, 20]
7.369[18, 22, 20, 22, 21, 22, 18, 18]
7.391[19, 20, 20, 21, 21, 20, 18, 19]
7.414[18, 21, 21, 23, 21, 21, 20, 18]
7.429[17, 21, 20, 21, 20, 20, 20, 17]
7.453[18, 21, 20, 20, 19, 21, 20, 15]
7.474[20, 18, 19, 18, 18, 19, 21, 16]
7.489[19, 18, 21, 17, 19, 20, 22, 16]
7.512[20, 19, 21, 17, 20, 20, 20, 18]
7.534[21, 19, 21, 19, 20, 20, 21, 18]
7.549[20, 20, 22, 18, 20, 22, 21, 18]
7.572[19, 20, 22, 21, 20, 23, 20, 20]
7.595[19, 21, 20, 21, 19, 22, 20, 21]
7.608[20, 19, 19, 21, 18, 21, 19, 18]
7.632[20, 21, 20, 22, 18, 21, 18, 19]
7.662[20, 21, 20, 23, 20, 19, 18, 21]
7.669[20, 22, 20, 22, 19, 19, 17, 20]
7.692[19, 20, 21, 22, 21, 19, 19, 20]
7.714[17, 20, 21, 20, 20, 19, 20, 22]
7.729[19, 18, 19, 18, 21, 21, 20, 21]
7.752[20, 16, 18, 17, 21, 20, 22, 18]
7.774[19, 16, 19, 16, 22, 20, 22, 19]
7.789[19, 17, 18, 17, 20, 21, 19, 17]
7.819[19, 17, 17, 17, 21, 21, 18, 16]
7.834[19, 18, 20, 19, 20, 20, 17, 16]
7.849[20, 19, 21, 20, 20, 19, 16, 17]
7.872[20, 20, 21, 19, 19, 17, 16, 18]
7.894[20, 21, 22, 18, 20, 17, 16, 19]
7.917[20, 21, 23, 18, 20, 17, 18, 19]
7.939[20, 20, 21, 15, 20, 16, 18, 20]
7.962[17, 22, 21, 15, 19, 18, 18, 20]
7.977[20, 22, 22, 16, 19, 17, 19, 20]
7.992[20, 22, 20, 18, 17, 19, 19, 20]
8.014[19, 22, 21, 18, 17, 19, 18, 19]
8.036[18, 21, 20, 18, 18, 20, 19, 21]
8.053[19, 21, 19, 17, 18, 19, 18, 21]
8.074[17, 18, 19, 17, 23, 21, 19, 20]
8.096[17, 18, 19, 17, 23, 18, 20, 20]
8.113[18, 20, 18, 17, 23, 20, 21, 21]
8.133[19, 21, 19, 19, 23, 19, 20, 18]
8.156[20, 20, 19, 19, 23, 20, 21, 18]
8.18[19, 21, 19, 19, 21, 19, 20, 17]
8.194[19, 20, 20, 20, 22, 18, 21, 18]
8.216[19, 19, 21, 20, 22, 17, 19, 16]
8.233[18, 18, 21, 19, 23, 17, 21, 20]
8.254[18, 17, 20, 20, 23, 17, 23, 20]
8.276[18, 18, 20, 20, 22, 18, 21, 20]
8.293[17, 17, 20, 20, 20, 18, 21, 20]
8.314[17, 19, 20, 21, 21, 18, 21, 20]
8.336[20, 19, 19, 20, 20, 20, 19, 20]
8.352[20, 20, 20, 20, 20, 20, 17, 19]
8.375[22, 19, 20, 20, 19, 21, 17, 20]
8.396[23, 19, 19, 19, 19, 21, 17, 22]
8.413[23, 20, 20, 19, 20, 21, 19, 21]
8.441[22, 21, 20, 20, 21, 19, 18, 19]
8.456[22, 21, 21, 21, 20, 19, 18, 20]
8.473[21, 21, 20, 20, 23, 17, 20, 20]
8.493[20, 21, 20, 21, 23, 19, 19, 17]
8.516[21, 18, 21, 21, 22, 18, 17, 18]
8.533[22, 19, 20, 20, 20, 18, 18, 19]
8.553[21, 19, 20, 20, 21, 18, 19, 19]
8.576[21, 18, 21, 19, 20, 20, 17, 19]
8.592[20, 17, 22, 20, 19, 19, 19, 20]
8.613[20, 19, 21, 19, 19, 18, 21, 20]
8.636[20, 18, 21, 19, 18, 19, 21, 20]
8.653[22, 20, 20, 17, 17, 20, 20, 19]
8.675[22, 20, 19, 17, 16, 18, 21, 20]
8.697[22, 20, 19, 18, 20, 18, 21, 20]
8.713[23, 19, 19, 20, 20, 18, 21, 19]
8.735[23, 20, 20, 20, 21, 18, 20, 19]
8.757[22, 18, 19, 22, 21, 18, 20, 19]
8.773[22, 18, 19, 23, 22, 17, 20, 19]
8.793[20, 20, 21, 23, 19, 17, 21, 19]
8.816[21, 20, 19, 21, 21, 18, 19, 19]
8.833[19, 18, 19, 21, 21, 17, 21, 18]
8.853[18, 19, 20, 21, 21, 18, 21, 18]
8.884[19, 21, 22, 20, 21, 18, 21, 17]
8.899[21, 20, 21, 18, 22, 18, 20, 18]
8.93[19, 19, 22, 20, 22, 18, 18, 18]
8.937[19, 20, 24, 20, 22, 19, 17, 17]
8.959[20, 20, 23, 20, 23, 16, 16, 17]
8.974[20, 20, 22, 20, 24, 18, 17, 19]
8.998[18, 19, 22, 20, 23, 17, 18, 18]
9.019[20, 20, 20, 20, 23, 17, 19, 19]
9.035[21, 21, 19, 19, 22, 16, 20, 19]
9.056[20, 20, 20, 18, 22, 16, 20, 20]
9.087[21, 17, 20, 20, 19, 16, 19, 18]
9.093[22, 19, 20, 20, 21, 17, 19, 18]
9.116[21, 19, 21, 19, 21, 16, 19, 18]
9.139[20, 18, 19, 20, 22, 17, 19, 18]
9.153[20, 19, 19, 21, 20, 18, 20, 18]
9.177[19, 20, 20, 19, 21, 16, 19, 18]
9.198[19, 19, 19, 19, 19, 17, 20, 18]
9.214[18, 19, 19, 20, 18, 18, 20, 16]
9.236[19, 19, 19, 21, 19, 19, 18, 19]
9.258[19, 18, 19, 19, 19, 19, 18, 18]
9.274[21, 18, 18, 21, 19, 19, 19, 19]
9.296[21, 18, 18, 22, 21, 20, 18, 21]
9.318[23, 17, 18, 21, 22, 20, 21, 21]
9.333[23, 21, 31, 113, 41, 25, 23, 22]
9.364[37, 29, 36, 123, 51, 27, 26, 31]
9.378[126, 63, 54, 220, 81, 38, 39, 55]
9.393[147, 76, 64, 253, 91, 42, 42, 66]
9.416[151, 79, 77, 270, 100, 58, 63, 69]
9.439[152, 80, 83, 288, 129, 103, 80, 72]
9.454[154, 87, 100, 316, 142, 120, 87, 78]
9.476[113, 76, 99, 283, 138, 121, 88, 69]
9.498[87, 65, 100, 324, 197, 142, 118, 65]
9.514[80, 62, 94, 319, 202, 139, 111, 65]
9.536[89, 66, 98, 336, 192, 126, 109, 65]
9.558[104, 62, 86, 326, 188, 126, 111, 75]
9.574[101, 66, 95, 345, 197, 128, 109, 76]
9.596[134, 82, 104, 306, 150, 111, 79, 90]
9.619[144, 86, 106, 321, 154, 110, 77, 93]
9.633[146, 91, 118, 358, 186, 98, 74, 102]
9.656[155, 101, 128, 391, 206, 88, 67, 105]
9.679[168, 106, 130, 382, 222, 95, 74, 112]
9.702[149, 99, 130, 389, 247, 106, 84, 102]
9.716[149, 101, 150, 485, 303, 114, 86, 113]
9.739[157, 97, 141, 448, 287, 145, 92, 122]
9.761[161, 109, 156, 509, 346, 146, 98, 127]
9.776[155, 101, 149, 511, 354, 142, 100, 127]
9.799[155, 96, 141, 505, 350, 136, 92, 128]
9.821[169, 100, 118, 409, 303, 134, 91, 129]
9.836[192, 119, 127, 421, 325, 99, 83, 144]
9.859[181, 99, 100, 320, 297, 130, 78, 134]
9.881[177, 103, 130, 386, 296, 134, 68, 129]
9.905[188, 109, 137, 390, 299, 141, 68, 131]
9.919[182, 108, 142, 400, 336, 141, 73, 134]
9.941[152, 90, 135, 390, 331, 143, 75, 119]
9.956[163, 97, 147, 427, 336, 112, 76, 133]
9.979[168, 93, 127, 385, 318, 104, 80, 144]
10.001[170, 96, 125, 375, 331, 90, 80, 149]
10.016[162, 95, 121, 357, 309, 88, 74, 143]
10.039[178, 101, 121, 343, 304, 84, 68, 160]
10.061[167, 93, 103, 278, 270, 84, 60, 147]
10.076[177, 91, 92, 229, 275, 108, 66, 178]
10.098[185, 87, 90, 222, 236, 128, 74, 183]
10.121[223, 101, 96, 242, 221, 134, 87, 208]
10.137[224, 96, 90, 297, 212, 131, 88, 198]
10.159[227, 98, 97, 297, 196, 127, 89, 212]
10.181[218, 98, 96, 310, 193, 109, 86, 199]
10.196[204, 92, 97, 334, 194, 83, 77, 189]
10.219[167, 79, 104, 334, 197, 71, 64, 163]
10.241[145, 78, 109, 299, 193, 73, 64, 157]
10.256[139, 76, 106, 317, 199, 75, 65, 137]
10.279[147, 90, 113, 307, 197, 79, 64, 120]
10.301[158, 98, 122, 321, 199, 77, 67, 144]
10.318[160, 98, 116, 317, 180, 73, 66, 147]
10.338[185, 104, 116, 310, 184, 77, 66, 159]
10.362[180, 106, 119, 320, 199, 83, 66, 162]
10.376[181, 98, 119, 337, 245, 96, 72, 176]
10.398[174, 92, 114, 329, 247, 96, 71, 158]
10.421[173, 89, 104, 327, 253, 97, 69, 154]
10.436[145, 77, 98, 344, 249, 91, 67, 142]
10.459[146, 74, 95, 317, 238, 86, 66, 144]
10.481[144, 72, 88, 309, 193, 60, 52, 128]
10.496[151, 73, 80, 285, 198, 58, 51, 136]
10.518[138, 65, 81, 280, 205, 61, 52, 135]
10.542[154, 70, 97, 299, 220, 75, 56, 144]
10.556[163, 69, 96, 311, 247, 73, 61, 156]
10.579[151, 69, 103, 318, 260, 78, 61, 156]
10.601[146, 83, 112, 330, 267, 82, 63, 169]
10.616[162, 85, 115, 357, 290, 88, 64, 175]
10.639[174, 87, 106, 314, 276, 83, 63, 171]
10.661[169, 93, 113, 307, 251, 86, 62, 156]
10.676[177, 97, 109, 281, 244, 84, 61, 151]
10.698[183, 86, 105, 273, 250, 88, 62, 140]
10.721[174, 90, 106, 259, 273, 85, 67, 140]
10.736[169, 90, 103, 246, 278, 80, 69, 150]
10.758[179, 88, 92, 232, 281, 77, 71, 171]
10.781[170, 81, 87, 234, 290, 79, 72, 172]
10.804[153, 76, 80, 233, 289, 73, 74, 166]
10.818[164, 71, 75, 199, 238, 79, 69, 174]
10.841[143, 64, 73, 217, 233, 113, 66, 165]
10.864[125, 60, 73, 215, 219, 138, 84, 176]
10.878[154, 77, 100, 298, 210, 143, 91, 198]
10.901[160, 78, 102, 297, 192, 148, 93, 212]
10.925[168, 76, 104, 324, 247, 148, 99, 220]
10.938[203, 98, 128, 327, 328, 137, 113, 242]
10.961[218, 103, 127, 351, 329, 145, 107, 231]
10.984[195, 92, 109, 286, 327, 142, 103, 210]
10.999[200, 95, 118, 331, 351, 137, 97, 201]
11.021[197, 98, 119, 335, 329, 133, 91, 197]
11.044[175, 84, 94, 324, 260, 125, 75, 167]
11.058[156, 80, 105, 308, 285, 105, 76, 153]
11.081[168, 88, 114, 304, 305, 107, 81, 169]
11.105[186, 95, 113, 252, 295, 103, 89, 180]
11.118[175, 93, 110, 208, 286, 117, 90, 157]
11.141[165, 92, 112, 223, 274, 111, 92, 154]
11.164[192, 111, 129, 218, 276, 97, 93, 184]
11.178[223, 115, 129, 251, 266, 97, 91, 199]
11.201[235, 130, 132, 258, 250, 109, 103, 219]
11.225[234, 132, 140, 297, 288, 101, 105, 221]
11.238[232, 133, 146, 322, 294, 113, 101, 222]
11.261[221, 120, 128, 342, 264, 128, 94, 205]
11.284[183, 115, 127, 332, 238, 126, 89, 181]
11.298[139, 90, 116, 330, 271, 128, 66, 132]
11.322[135, 86, 107, 315, 225, 124, 65, 131]
11.344[131, 82, 98, 300, 235, 114, 68, 130]
11.358[123, 89, 110, 286, 246, 89, 58, 127]
11.382[140, 83, 100, 279, 254, 94, 62, 124]
11.404[143, 90, 104, 274, 271, 84, 80, 156]
11.418[150, 96, 113, 250, 285, 117, 84, 164]
11.442[158, 95, 114, 248, 281, 120, 80, 158]
11.464[152, 85, 101, 234, 274, 127, 80, 153]
11.479[155, 97, 113, 257, 276, 123, 88, 182]
11.502[159, 93, 108, 238, 219, 120, 72, 171]
11.524[166, 95, 101, 273, 225, 117, 79, 171]
11.538[165, 89, 94, 246, 210, 117, 82, 177]
11.562[201, 105, 100, 244, 203, 147, 96, 200]
11.584[193, 97, 97, 253, 197, 159, 90, 169]
11.598[193, 96, 98, 262, 209, 160, 88, 153]
11.622[196, 96, 97, 266, 190, 139, 82, 165]
11.644[198, 99, 96, 269, 206, 137, 82, 164]
11.658[168, 81, 86, 279, 216, 111, 71, 136]
11.682[165, 90, 86, 254, 247, 95, 73, 143]
11.704[159, 86, 84, 263, 262, 103, 75, 142]
11.727[138, 82, 79, 218, 251, 114, 67, 119]
11.742[163, 86, 79, 219, 262, 120, 76, 138]
11.764[154, 90, 90, 239, 297, 113, 78, 136]
11.786[173, 91, 103, 249, 302, 111, 79, 159]
11.802[187, 97, 106, 243, 286, 107, 88, 177]
11.824[212, 108, 112, 277, 323, 121, 96, 191]
11.847[207, 110, 114, 268, 310, 113, 94, 191]
11.862[221, 113, 110, 236, 269, 110, 93, 208]
11.884[232, 119, 99, 250, 297, 115, 97, 206]
11.907[219, 112, 97, 240, 329, 110, 88, 196]
11.922[202, 100, 89, 200, 301, 81, 82, 197]
11.944[191, 97, 88, 223, 312, 85, 78, 194]
11.967[176, 91, 85, 222, 319, 86, 76, 179]
11.982[151, 74, 88, 215, 266, 77, 66, 168]
12.004[154, 74, 92, 274, 234, 82, 64, 161]
12.027[158, 80, 96, 275, 229, 82, 64, 160]
12.042[163, 88, 106, 278, 215, 89, 70, 166]
12.064[173, 96, 116, 281, 221, 87, 70, 183]
12.087[163, 94, 110, 279, 215, 86, 72, 176]
12.109[164, 99, 109, 275, 198, 79, 71, 179]
12.124[179, 108, 116, 287, 214, 78, 79, 187]
12.147[177, 105, 111, 271, 202, 64, 74, 169]
12.162[167, 99, 103, 277, 199, 70, 70, 146]
12.184[166, 96, 97, 283, 206, 68, 67, 148]
12.207[169, 94, 94, 289, 226, 70, 72, 160]
12.221[141, 75, 80, 279, 207, 67, 60, 146]
12.245[156, 80, 83, 282, 214, 62, 54, 157]
12.266[161, 78, 82, 273, 217, 61, 65, 177]
12.281[160, 79, 89, 288, 202, 62, 66, 173]
12.304[158, 80, 97, 239, 189, 67, 64, 172]
12.327[158, 99, 121, 243, 190, 67, 63, 167]
12.341[128, 92, 115, 242, 176, 69, 63, 153]
12.364[143, 105, 124, 250, 166, 65, 58, 132]
12.386[163, 117, 130, 228, 185, 64, 62, 141]
12.401[159, 114, 122, 238, 180, 58, 59, 129]
12.424[174, 102, 106, 251, 181, 56, 61, 135]
12.446[203, 107, 107, 265, 225, 68, 75, 176]
12.461[213, 98, 94, 283, 243, 66, 77, 226]
12.484[199, 83, 82, 289, 254, 66, 73, 233]
12.506[218, 85, 83, 298, 260, 76, 84, 238]
12.521[251, 98, 78, 282, 289, 81, 94, 265]
12.544[255, 99, 73, 276, 281, 73, 87, 271]
12.567[242, 97, 73, 270, 270, 76, 79, 234]
12.581[266, 101, 65, 231, 258, 80, 89, 240]
12.604[252, 103, 63, 214, 247, 74, 81, 233]
12.627[212, 95, 87, 273, 241, 78, 70, 196]
12.649[192, 88, 91, 268, 238, 85, 72, 160]
12.664[191, 88, 97, 278, 254, 85, 74, 156]
12.687[177, 95, 109, 299, 242, 86, 80, 152]
12.71[176, 92, 110, 297, 245, 85, 81, 158]
12.724[172, 84, 95, 303, 238, 80, 79, 158]
12.747[154, 82, 97, 310, 232, 72, 73, 147]
12.769[151, 80, 95, 305, 208, 73, 72, 146]
12.784[123, 64, 79, 296, 213, 66, 52, 115]
12.814[123, 70, 79, 303, 225, 79, 52, 107]
12.829[133, 82, 92, 275, 235, 77, 53, 105]
12.844[136, 81, 89, 266, 216, 75, 53, 114]
12.867[155, 84, 91, 282, 214, 76, 56, 114]
12.89[158, 85, 93, 277, 220, 79, 56, 116]
12.904[158, 88, 95, 265, 214, 64, 56, 124]
12.927[146, 72, 75, 239, 191, 66, 55, 126]
12.949[144, 77, 89, 245, 223, 71, 53, 114]
12.964[116, 72, 90, 236, 221, 69, 53, 115]
12.987[137, 81, 92, 225, 204, 68, 61, 126]
13.009[148, 81, 96, 238, 205, 70, 57, 130]
13.024[145, 82, 99, 270, 201, 70, 55, 125]
13.047[165, 86, 90, 268, 171, 67, 60, 143]
13.069[174, 95, 92, 244, 181, 62, 59, 152]
13.091[155, 86, 92, 258, 234, 61, 54, 143]
13.107[137, 77, 84, 235, 223, 55, 51, 127]
13.129[146, 78, 80, 214, 230, 53, 57, 134]
13.145[124, 68, 75, 202, 233, 59, 56, 120]
13.167[103, 53, 60, 210, 221, 58, 51, 99]
13.188[114, 60, 61, 223, 182, 58, 50, 97]
13.205[126, 64, 68, 242, 201, 69, 54, 100]
13.226[134, 68, 73, 222, 180, 85, 52, 89]
13.248[127, 66, 76, 240, 170, 79, 48, 87]
13.265[125, 68, 88, 276, 181, 80, 51, 80]
13.286[139, 69, 86, 252, 162, 81, 54, 107]
13.308[133, 66, 79, 235, 131, 75, 51, 110]
13.325[122, 65, 90, 253, 134, 66, 49, 118]
13.346[120, 69, 93, 243, 137, 70, 51, 115]
13.37[119, 63, 82, 185, 127, 76, 49, 117]
13.385[158, 68, 90, 237, 164, 79, 59, 134]
13.406[160, 73, 94, 242, 174, 86, 62, 132]
13.428[154, 66, 78, 240, 204, 79, 60, 124]
13.445[170, 71, 96, 336, 225, 80, 63, 133]
13.466[181, 79, 101, 341, 236, 80, 65, 136]
13.488[132, 70, 92, 306, 243, 76, 52, 102]
13.505[136, 76, 91, 318, 239, 69, 54, 106]
13.526[136, 80, 96, 311, 249, 69, 54, 109]
13.55[131, 79, 87, 233, 258, 68, 50, 103]
13.565[122, 74, 86, 235, 253, 64, 50, 101]
13.586[125, 75, 88, 241, 227, 65, 52, 103]
13.609[122, 73, 93, 246, 232, 75, 57, 99]
13.631[128, 75, 94, 254, 189, 83, 59, 98]
13.646[115, 69, 83, 229, 164, 83, 57, 89]
13.668[120, 75, 88, 223, 158, 84, 56, 88]
13.691[126, 87, 99, 232, 153, 86, 55, 77]
13.706[128, 86, 103, 219, 153, 77, 48, 70]
13.728[128, 83, 99, 197, 158, 73, 47, 73]
13.751[133, 85, 98, 206, 171, 73, 48, 84]
13.773[126, 81, 93, 205, 201, 68, 47, 88]
13.789[117, 70, 84, 200, 207, 67, 54, 101]
13.811[108, 63, 83, 272, 209, 72, 51, 101]
13.826[107, 66, 84, 282, 212, 70, 55, 106]
13.849[99, 61, 84, 281, 205, 76, 56, 104]
13.871[100, 58, 81, 280, 197, 79, 56, 105]
13.886[89, 51, 73, 277, 187, 74, 47, 98]
13.909[90, 51, 60, 205, 199, 70, 47, 97]
13.939[96, 48, 62, 203, 201, 67, 41, 84]
13.946[98, 49, 58, 187, 191, 59, 44, 83]
13.969[98, 53, 63, 207, 174, 55, 43, 80]
13.991[112, 57, 77, 212, 197, 55, 43, 75]
14.006[114, 57, 80, 208, 177, 57, 45, 80]
14.029[114, 65, 78, 201, 165, 57, 50, 91]
14.051[124, 70, 82, 203, 157, 57, 47, 87]
14.066[126, 68, 79, 186, 154, 65, 47, 89]
14.089[115, 65, 68, 218, 128, 66, 48, 87]
14.111[113, 62, 62, 204, 129, 66, 49, 84]
14.126[118, 57, 62, 196, 127, 64, 48, 85]
14.148[110, 56, 63, 204, 125, 61, 46, 84]
14.171[116, 59, 69, 216, 136, 52, 44, 84]
14.186[115, 58, 69, 175, 135, 55, 44, 85]
14.209[113, 57, 69, 194, 122, 54, 41, 89]
14.231[96, 53, 78, 235, 143, 52, 35, 77]
14.246[94, 57, 86, 251, 168, 53, 38, 83]
14.268[75, 53, 81, 242, 164, 55, 38, 84]
14.291[81, 58, 86, 259, 185, 59, 40, 83]
14.306[90, 62, 87, 251, 191, 59, 44, 89]
14.328[96, 60, 85, 269, 183, 61, 46, 100]
14.351[97, 55, 79, 258, 167, 62, 45, 98]
14.366[117, 64, 80, 246, 156, 63, 46, 107]
14.389[110, 62, 80, 226, 128, 68, 47, 104]
14.411[104, 60, 86, 253, 126, 64, 42, 97]
14.426[99, 59, 79, 202, 120, 67, 42, 87]
14.448[118, 65, 83, 190, 115, 68, 43, 89]
14.471[109, 64, 89, 206, 138, 69, 43, 76]
14.486[114, 64, 85, 220, 145, 60, 40, 86]
14.509[127, 81, 95, 213, 201, 65, 42, 87]
14.532[124, 82, 98, 230, 228, 70, 43, 88]
14.553[137, 80, 91, 268, 241, 73, 42, 103]
14.569[136, 77, 87, 268, 241, 73, 44, 110]
14.591[143, 78, 87, 262, 245, 79, 49, 112]
14.613[133, 61, 69, 247, 219, 78, 46, 108]
14.629[146, 62, 73, 253, 223, 72, 46, 119]
14.651[135, 57, 81, 267, 259, 68, 47, 109]
14.673[126, 56, 84, 268, 253, 65, 46, 101]
14.689[121, 61, 90, 268, 253, 56, 40, 94]
14.711[143, 60, 87, 290, 256, 60, 49, 120]
14.733[134, 58, 85, 272, 281, 65, 50, 106]
14.749[123, 57, 80, 264, 252, 70, 52, 110]
14.771[132, 61, 75, 268, 262, 73, 53, 113]
14.794[132, 52, 65, 260, 275, 74, 53, 112]
14.809[118, 54, 69, 254, 284, 70, 46, 97]
14.831[122, 57, 70, 265, 247, 65, 44, 99]
14.853[114, 60, 73, 228, 241, 65, 42, 94]
14.869[115, 60, 74, 246, 266, 64, 47, 106]
14.891[129, 68, 83, 259, 253, 68, 59, 141]
14.913[117, 68, 83, 234, 235, 70, 60, 140]
14.929[113, 66, 81, 224, 221, 71, 64, 144]
14.951[113, 64, 73, 217, 222, 69, 64, 141]
14.974[103, 59, 75, 210, 186, 68, 60, 132]
14.989[93, 59, 77, 219, 196, 77, 50, 99]
15.011[129, 62, 75, 233, 209, 77, 54, 117]
15.034[132, 61, 74, 229, 213, 74, 50, 115]
15.048[141, 64, 77, 221, 230, 74, 52, 122]
15.079[147, 66, 72, 185, 227, 88, 54, 123]
15.093[143, 61, 58, 155, 214, 73, 52, 119]
15.109[129, 70, 74, 204, 208, 75, 48, 102]
15.131[131, 73, 74, 209, 206, 83, 50, 100]
15.153[123, 69, 76, 246, 171, 80, 48, 93]
15.169[133, 72, 80, 282, 179, 63, 46, 96]
15.191[126, 71, 87, 286, 187, 69, 46, 98]
15.213[109, 59, 77, 269, 182, 65, 46, 91]
15.228[103, 52, 80, 287, 183, 60, 47, 97]
15.252[113, 55, 76, 269, 202, 67, 50, 98]
15.273[113, 53, 76, 264, 200, 70, 52, 109]
15.288[127, 64, 79, 270, 192, 67, 51, 120]
15.311[127, 62, 74, 250, 189, 69, 50, 117]
15.333[129, 67, 75, 259, 205, 68, 46, 112]
15.349[124, 64, 75, 251, 179, 60, 41, 115]
15.371[112, 69, 80, 256, 167, 56, 39, 113]
15.393[102, 57, 70, 247, 168, 57, 38, 97]
15.408[108, 61, 80, 251, 187, 60, 37, 96]
15.431[109, 62, 77, 233, 162, 61, 34, 95]
15.453[113, 68, 78, 246, 174, 62, 39, 101]
15.468[110, 63, 71, 227, 168, 61, 39, 81]
15.491[105, 65, 75, 241, 188, 60, 39, 85]
15.514[105, 69, 73, 237, 163, 59, 45, 95]
15.537[97, 69, 79, 245, 190, 63, 48, 99]
15.56[87, 65, 81, 239, 190, 65, 56, 106]
15.574[90, 68, 84, 245, 197, 68, 56, 106]
15.597[103, 76, 92, 270, 185, 67, 57, 107]
15.611[96, 67, 84, 269, 174, 60, 52, 101]
15.633[105, 63, 75, 257, 151, 53, 51, 103]
15.656[111, 62, 70, 244, 140, 58, 41, 90]
15.671[103, 54, 61, 216, 125, 54, 38, 90]
15.693[91, 41, 47, 160, 105, 53, 37, 90]
15.717[106, 52, 54, 175, 103, 61, 38, 93]
15.731[105, 53, 60, 197, 131, 61, 37, 84]
15.753[98, 53, 59, 203, 129, 52, 33, 76]
15.784[104, 58, 63, 205, 139, 57, 41, 79]
15.791[110, 59, 64, 243, 148, 57, 40, 95]
15.813[96, 51, 63, 229, 146, 49, 37, 89]
15.837[90, 51, 66, 222, 143, 51, 41, 91]
15.851[101, 57, 72, 227, 147, 51, 39, 108]
15.874[102, 56, 85, 293, 185, 53, 35, 109]
15.897[98, 56, 83, 266, 194, 54, 34, 93]
15.911[97, 64, 85, 264, 198, 55, 39, 104]
15.933[128, 75, 87, 245, 192, 51, 43, 124]
15.957[122, 71, 83, 241, 198, 53, 48, 124]
15.971[117, 68, 67, 161, 173, 53, 48, 121]
15.993[124, 71, 71, 189, 176, 53, 48, 124]
16.017[127, 69, 65, 188, 189, 56, 48, 122]
16.039[103, 60, 70, 244, 198, 58, 43, 99]
16.054[109, 69, 78, 247, 204, 59, 40, 83]
16.077[122, 82, 90, 255, 205, 59, 46, 93]
16.091[122, 81, 93, 268, 208, 56, 50, 101]
16.121[130, 88, 102, 276, 202, 60, 57, 109]
16.137[126, 85, 94, 229, 215, 64, 56, 111]
16.151[126, 80, 92, 233, 202, 64, 56, 112]
16.173[115, 75, 90, 227, 205, 61, 52, 106]
16.197[118, 77, 89, 193, 190, 61, 51, 108]
16.211[105, 67, 80, 178, 206, 59, 41, 95]
16.233[107, 68, 78, 182, 179, 54, 43, 95]
16.257[103, 69, 78, 175, 184, 54, 45, 92]
16.271[105, 63, 69, 167, 177, 56, 44, 96]
16.294[106, 63, 69, 176, 203, 66, 41, 92]
16.316[119, 63, 70, 185, 191, 66, 43, 98]
16.331[121, 65, 69, 231, 186, 66, 44, 103]
16.353[127, 66, 70, 233, 223, 74, 45, 109]
16.377[123, 63, 67, 238, 225, 73, 44, 104]
16.391[133, 67, 59, 264, 211, 66, 46, 110]
16.421[118, 69, 65, 257, 231, 67, 44, 102]
16.437[112, 68, 71, 228, 246, 65, 41, 97]
16.459[117, 63, 69, 231, 222, 59, 46, 110]
16.473[119, 63, 70, 245, 237, 60, 45, 115]
16.497[117, 57, 75, 206, 233, 60, 50, 118]
16.519[124, 52, 77, 229, 235, 60, 53, 121]
16.534[131, 51, 75, 211, 223, 65, 55, 121]
16.557[122, 56, 81, 255, 221, 61, 49, 106]
16.579[131, 66, 88, 255, 196, 61, 50, 107]
16.594[124, 73, 89, 265, 222, 61, 52, 102]
16.624[134, 80, 92, 259, 210, 64, 52, 112]
16.639[136, 83, 92, 262, 207, 65, 53, 116]
16.653[136, 78, 86, 206, 195, 62, 52, 122]
16.676[122, 71, 84, 231, 210, 61, 54, 114]
16.699[114, 69, 83, 223, 194, 64, 54, 116]
16.713[110, 64, 78, 241, 185, 56, 50, 114]
16.737[114, 65, 73, 237, 196, 53, 48, 115]
16.766[141, 77, 81, 243, 208, 56, 60, 135]
16.773[148, 82, 83, 226, 217, 56, 58, 138]
16.796[153, 86, 84, 231, 207, 52, 50, 132]
16.819[146, 84, 87, 227, 210, 52, 50, 130]
16.833[142, 83, 89, 258, 215, 51, 51, 131]
16.857[111, 70, 81, 248, 208, 52, 37, 101]
16.879[111, 67, 78, 257, 197, 51, 38, 98]
16.901[111, 56, 74, 274, 208, 54, 40, 100]
16.918[128, 67, 78, 258, 204, 54, 42, 103]
16.939[124, 72, 87, 287, 224, 56, 44, 99]
16.953[125, 74, 95, 301, 250, 58, 44, 98]
16.977[126, 74, 90, 278, 241, 61, 44, 100]
16.999[129, 75, 88, 256, 238, 62, 46, 115]
17.013[118, 66, 81, 256, 239, 59, 44, 109]
17.036[120, 65, 84, 235, 245, 71, 47, 105]
17.059[116, 63, 80, 226, 228, 70, 47, 106]
17.073[114, 60, 81, 219, 229, 70, 50, 115]
17.097[111, 70, 93, 237, 226, 69, 53, 110]
17.119[116, 68, 91, 235, 210, 70, 54, 116]
17.133[115, 66, 76, 193, 177, 56, 49, 117]
17.157[120, 68, 73, 187, 170, 57, 55, 121]
17.179[116, 71, 78, 223, 210, 58, 54, 111]
17.194[125, 64, 69, 210, 205, 60, 52, 92]
17.217[116, 63, 68, 230, 244, 62, 52, 89]
17.239[112, 59, 70, 240, 240, 67, 54, 88]
17.254[125, 62, 72, 245, 255, 72, 58, 95]
17.277[132, 65, 85, 250, 231, 71, 63, 100]
17.299[164, 95, 106, 247, 247, 72, 69, 161]
17.313[164, 94, 105, 228, 235, 75, 73, 158]
17.337[194, 122, 138, 287, 242, 77, 81, 172]
17.359[210, 133, 153, 299, 264, 86, 94, 189]
17.381[219, 134, 146, 279, 267, 85, 94, 198]
17.397[195, 120, 139, 281, 255, 83, 90, 162]
17.419[221, 139, 147, 284, 233, 83, 97, 184]
17.441[198, 114, 116, 226, 215, 79, 89, 174]
17.457[203, 105, 103, 231, 187, 69, 76, 182]
17.479[192, 103, 106, 252, 176, 71, 73, 173]
17.501[181, 94, 91, 248, 165, 70, 68, 162]
17.524[158, 68, 81, 246, 199, 72, 61, 145]
17.539[179, 70, 86, 260, 207, 70, 62, 157]
17.561[141, 61, 74, 239, 192, 63, 51, 117]
17.577[140, 63, 72, 230, 187, 65, 50, 115]
17.599[149, 65, 78, 260, 209, 68, 53, 116]
17.622[144, 63, 76, 262, 195, 62, 48, 115]
17.637[130, 61, 75, 234, 225, 63, 50, 108]
17.659[135, 62, 75, 243, 223, 68, 55, 111]
17.681[177, 87, 95, 259, 259, 65, 61, 143]
17.697[175, 88, 92, 234, 251, 66, 57, 146]
17.726[178, 88, 90, 243, 273, 71, 58, 146]
17.741[201, 95, 99, 268, 255, 72, 63, 151]
17.757[204, 96, 100, 262, 257, 69, 61, 150]
17.779[182, 81, 85, 233, 223, 70, 64, 148]
17.809[202, 86, 89, 256, 218, 66, 69, 163]
17.816[199, 88, 91, 252, 176, 65, 67, 154]
17.839[163, 82, 78, 227, 167, 59, 59, 141]
17.861[163, 81, 82, 249, 199, 62, 61, 144]
17.876[142, 74, 78, 240, 199, 63, 50, 113]
17.899[118, 64, 70, 219, 190, 67, 42, 91]
17.921[120, 70, 84, 239, 202, 61, 43, 104]
17.936[124, 68, 84, 240, 199, 62, 45, 101]
17.959[128, 72, 85, 210, 165, 66, 46, 105]
17.982[140, 74, 89, 234, 175, 66, 51, 109]
17.996[144, 78, 96, 237, 186, 67, 58, 112]
18.019[140, 72, 86, 211, 167, 71, 60, 108]
18.041[142, 78, 94, 209, 171, 80, 72, 124]
18.064[150, 73, 87, 248, 221, 76, 71, 124]
18.08[138, 66, 78, 228, 228, 71, 66, 119]
18.102[130, 65, 77, 219, 227, 71, 63, 121]
18.131[146, 67, 79, 208, 233, 68, 64, 132]
18.14[156, 66, 80, 247, 248, 60, 54, 126]
18.161[136, 62, 82, 215, 208, 58, 50, 118]
18.183[143, 67, 88, 226, 233, 69, 52, 131]
18.207[138, 67, 86, 214, 228, 70, 51, 123]
18.221[124, 67, 83, 247, 254, 78, 49, 114]
18.243[116, 67, 82, 236, 257, 93, 53, 113]
18.26[134, 78, 91, 239, 267, 95, 59, 125]
18.281[129, 75, 86, 227, 236, 88, 61, 124]
18.305[140, 77, 86, 246, 257, 88, 61, 129]
18.32[135, 71, 81, 214, 251, 84, 60, 119]
18.341[137, 71, 76, 198, 264, 74, 57, 124]
18.365[122, 60, 62, 192, 277, 70, 59, 119]
18.38[138, 72, 72, 210, 287, 77, 58, 115]
18.401[123, 70, 74, 198, 283, 78, 57, 109]
18.423[125, 77, 77, 200, 268, 80, 55, 115]
18.44[124, 82, 86, 238, 283, 75, 51, 111]
18.461[139, 91, 91, 242, 273, 77, 50, 112]
18.491[153, 93, 90, 235, 259, 70, 49, 126]
18.507[161, 92, 95, 252, 248, 73, 51, 131]
18.521[158, 88, 98, 261, 249, 77, 54, 128]
18.543[147, 80, 85, 230, 225, 75, 57, 121]
18.56[135, 71, 83, 239, 236, 77, 53, 112]
18.581[130, 63, 83, 232, 231, 79, 57, 111]
18.603[130, 72, 88, 225, 267, 77, 60, 115]
18.62[133, 71, 89, 242, 304, 73, 62, 128]
18.642[148, 82, 102, 261, 299, 79, 70, 147]
18.663[160, 82, 100, 255, 280, 75, 68, 151]
18.681[142, 82, 100, 264, 289, 73, 62, 138]
18.701[133, 73, 91, 260, 270, 68, 58, 128]
18.723[133, 73, 86, 235, 243, 73, 55, 119]
18.74[125, 66, 74, 206, 214, 69, 43, 95]
18.761[117, 73, 81, 208, 221, 72, 46, 95]
18.783[113, 71, 83, 207, 219, 74, 48, 92]
18.8[119, 72, 76, 214, 219, 78, 53, 113]
18.821[129, 71, 77, 222, 197, 70, 54, 118]
18.843[121, 66, 76, 235, 196, 68, 52, 121]
18.858[119, 65, 87, 260, 218, 82, 62, 118]
18.881[114, 60, 79, 257, 214, 83, 63, 113]
18.903[109, 65, 98, 292, 210, 85, 67, 104]
18.919[87, 63, 97, 299, 218, 91, 65, 89]
18.941[97, 67, 99, 289, 261, 104, 70, 101]
18.963[95, 60, 87, 284, 273, 94, 67, 112]
18.978[98, 60, 91, 297, 307, 98, 67, 112]
19.001[105, 57, 76, 254, 304, 95, 59, 108]
19.023[126, 66, 86, 247, 321, 95, 68, 126]
19.038[136, 67, 79, 241, 309, 89, 65, 124]
19.061[158, 74, 86, 212, 285, 95, 64, 118]
19.083[170, 92, 96, 253, 277, 101, 66, 124]
19.098[169, 88, 92, 256, 280, 100, 68, 123]
19.121[160, 88, 90, 258, 271, 110, 68, 114]
19.143[156, 86, 92, 257, 267, 103, 69, 107]
19.158[126, 78, 83, 252, 262, 102, 70, 112]
19.181[116, 58, 76, 234, 243, 94, 71, 115]
19.203[114, 63, 81, 222, 241, 93, 69, 113]
19.218[118, 59, 75, 217, 261, 78, 60, 110]
19.241[104, 56, 71, 229, 247, 81, 57, 104]
19.264[113, 63, 79, 269, 291, 78, 52, 108]
19.286[109, 61, 72, 257, 283, 75, 48, 113]
19.301[113, 66, 78, 263, 291, 76, 50, 113]
19.325[100, 61, 77, 257, 250, 69, 47, 108]
19.346[115, 70, 85, 253, 275, 64, 48, 117]
19.361[109, 67, 82, 208, 214, 57, 44, 102]
19.383[105, 70, 84, 181, 231, 54, 45, 85]
19.406[95, 60, 70, 173, 209, 49, 42, 84]
19.421[101, 66, 80, 188, 252, 58, 43, 90]
19.443[83, 57, 71, 173, 221, 59, 41, 76]
19.474[103, 63, 72, 216, 230, 57, 44, 82]
19.481[108, 60, 70, 208, 221, 55, 43, 86]
19.503[118, 64, 73, 201, 223, 58, 47, 90]
19.526[109, 58, 66, 191, 191, 56, 49, 83]
19.541[108, 58, 66, 187, 183, 60, 47, 84]
19.564[136, 72, 72, 135, 174, 67, 59, 134]
19.586[136, 72, 67, 125, 144, 64, 56, 131]
19.601[127, 70, 67, 116, 122, 61, 54, 126]
19.623[128, 71, 63, 85, 82, 54, 50, 124]
19.646[127, 71, 63, 84, 83, 52, 51, 123]
19.661[64, 43, 42, 66, 59, 39, 29, 45]
19.683[49, 40, 41, 61, 57, 37, 30, 38]
19.706[42, 35, 37, 67, 54, 37, 27, 30]
19.721[35, 35, 37, 62, 57, 39, 26, 26]
19.752[34, 31, 31, 59, 60, 32, 24, 24]
19.765[33, 30, 31, 58, 63, 32, 24, 25]
19.781[32, 29, 30, 68, 64, 34, 24, 23]
19.803[32, 28, 28, 61, 65, 32, 25, 21]
19.826[31, 24, 23, 60, 57, 28, 25, 24]
19.841[30, 22, 26, 59, 49, 31, 25, 25]
19.863[27, 24, 28, 60, 49, 31, 25, 24]
19.885[29, 26, 30, 47, 54, 31, 25, 26]
19.901[27, 27, 27, 42, 48, 32, 22, 25]
19.923[30, 30, 29, 43, 55, 34, 22, 23]
19.946[29, 31, 28, 42, 53, 32, 23, 22]
19.961[30, 32, 30, 41, 48, 31, 23, 24]
19.983[27, 29, 27, 37, 43, 30, 23, 23]
20.005[29, 29, 28, 37, 43, 30, 23, 22]
20.021[26, 26, 25, 30, 35, 26, 22, 20]
20.044[25, 27, 25, 30, 33, 25, 21, 20]
20.066[23, 26, 21, 26, 29, 22, 20, 16]
20.081[22, 26, 21, 24, 26, 19, 18, 21]
20.103[24, 28, 22, 23, 26, 17, 20, 31]
20.126[24, 25, 22, 21, 23, 17, 21, 32]
20.141[24, 25, 23, 22, 24, 17, 22, 37]
20.163[24, 23, 21, 22, 24, 17, 22, 38]
20.186[25, 23, 22, 21, 23, 17, 23, 38]
20.201[22, 22, 20, 23, 22, 19, 22, 32]
20.223[22, 24, 22, 22, 22, 19, 20, 31]
20.246[22, 24, 23, 21, 19, 18, 19, 24]
20.269[22, 24, 24, 21, 19, 18, 18, 24]
20.284[22, 25, 23, 22, 23, 18, 15, 21]
20.306[22, 23, 25, 21, 23, 18, 15, 18]
20.328[22, 21, 23, 20, 24, 16, 15, 20]
20.351[22, 21, 21, 22, 24, 17, 15, 21]
20.374[23, 20, 21, 21, 24, 19, 16, 19]
20.388[22, 19, 20, 22, 22, 18, 17, 21]
20.403[19, 20, 20, 22, 23, 20, 16, 23]
20.426[20, 20, 20, 22, 22, 23, 19, 21]
20.449[18, 18, 19, 20, 22, 24, 20, 21]
20.464[19, 18, 19, 20, 22, 23, 20, 21]
20.486[21, 18, 21, 21, 21, 25, 20, 19]
20.508[20, 19, 22, 22, 21, 23, 23, 18]
20.523[20, 20, 23, 25, 24, 21, 21, 18]
20.546[21, 21, 25, 26, 25, 20, 19, 18]
20.577[22, 21, 26, 27, 24, 21, 20, 19]
20.585[20, 24, 25, 25, 26, 20, 21, 17]
20.606[21, 21, 23, 24, 25, 21, 18, 17]
20.629[22, 23, 22, 21, 23, 21, 18, 17]
20.643[24, 23, 22, 21, 21, 22, 18, 19]
20.666[22, 21, 20, 22, 20, 20, 18, 18]
20.689[22, 21, 19, 25, 20, 20, 18, 19]
20.703[22, 22, 20, 27, 26, 20, 19, 18]
20.726[21, 20, 21, 29, 26, 19, 19, 17]
20.749[20, 20, 19, 28, 27, 18, 22, 17]
20.763[20, 23, 21, 27, 28, 18, 21, 17]
20.786[20, 23, 20, 25, 26, 18, 21, 18]
20.809[22, 22, 19, 23, 20, 18, 21, 19]
20.823[21, 23, 20, 27, 20, 18, 20, 20]
20.861[20, 24, 19, 32, 21, 18, 18, 19]
20.869[21, 21, 17, 32, 19, 18, 19, 18]
20.883[21, 22, 21, 33, 22, 18, 18, 20]
20.906[22, 21, 21, 32, 22, 19, 19, 21]
20.929[22, 19, 19, 29, 23, 19, 19, 21]
20.943[23, 18, 21, 22, 23, 18, 20, 21]
20.966[23, 18, 23, 21, 24, 18, 19, 22]
20.989[26, 16, 22, 20, 25, 19, 20, 20]
21.003[23, 18, 22, 19, 24, 17, 20, 20]
21.026[23, 19, 22, 18, 22, 18, 20, 19]
21.049[23, 20, 22, 19, 21, 21, 18, 21]
21.063[22, 20, 21, 20, 21, 22, 19, 21]
21.086[19, 21, 20, 19, 17, 22, 18, 20]
21.109[21, 20, 21, 21, 17, 23, 20, 19]
21.123[21, 19, 22, 20, 19, 23, 22, 21]
21.146[21, 18, 21, 21, 20, 23, 22, 19]
21.169[21, 19, 20, 19, 20, 23, 21, 20]
21.191[23, 19, 22, 20, 20, 23, 23, 19]
21.206[20, 19, 21, 19, 20, 21, 21, 18]
21.229[20, 19, 22, 18, 20, 20, 20, 19]
21.251[20, 21, 21, 17, 18, 18, 20, 20]
21.266[19, 22, 24, 18, 19, 17, 21, 20]
21.289[17, 22, 22, 18, 20, 16, 18, 22]
21.311[19, 22, 21, 18, 21, 17, 20, 22]
21.326[21, 21, 22, 19, 20, 18, 20, 20]
21.349[22, 20, 22, 20, 20, 19, 19, 21]
21.379[20, 20, 21, 21, 20, 20, 19, 19]
21.386[21, 19, 22, 22, 21, 23, 20, 18]
21.409[20, 22, 23, 23, 22, 23, 18, 17]
21.431[18, 22, 22, 22, 23, 24, 19, 19]
21.446[22, 22, 21, 21, 25, 23, 18, 19]
21.469[22, 22, 20, 21, 24, 23, 19, 19]
21.491[22, 21, 20, 20, 24, 20, 20, 18]
21.506[22, 21, 18, 20, 23, 20, 19, 20]
21.529[23, 22, 18, 20, 21, 21, 19, 17]
21.551[19, 23, 19, 20, 21, 19, 19, 17]
21.566[19, 21, 17, 19, 22, 21, 22, 19]
21.589[20, 23, 17, 20, 22, 23, 20, 20]
21.611[18, 23, 19, 21, 22, 23, 20, 19]
21.634[18, 22, 19, 20, 24, 22, 21, 18]
21.649[17, 23, 19, 21, 24, 23, 22, 17]
21.671[16, 22, 21, 20, 22, 22, 19, 17]
21.694[17, 22, 22, 19, 23, 20, 21, 17]
21.709[18, 21, 22, 19, 21, 20, 21, 18]
21.731[18, 21, 23, 20, 19, 19, 20, 18]
21.746[19, 20, 24, 19, 18, 20, 19, 20]
21.769[19, 21, 22, 21, 21, 20, 20, 20]
21.791[17, 21, 21, 22, 20, 21, 18, 19]
21.806[18, 22, 23, 21, 21, 21, 18, 18]
21.829[18, 23, 21, 21, 22, 22, 18, 21]
21.852[18, 24, 21, 21, 23, 20, 18, 22]
21.866[18, 23, 21, 21, 21, 20, 18, 21]
21.889[19, 23, 21, 19, 23, 20, 18, 20]
21.911[18, 22, 17, 18, 23, 20, 19, 20]
21.926[17, 22, 19, 19, 22, 19, 19, 20]
21.949[18, 22, 20, 20, 20, 21, 19, 17]
21.971[23, 23, 20, 19, 21, 21, 20, 17]
21.986[22, 22, 21, 20, 19, 19, 21, 19]
22.009[22, 25, 22, 24, 16, 20, 20, 18]
22.031[24, 23, 21, 23, 16, 22, 23, 17]
22.046[25, 23, 20, 24, 18, 20, 22, 18]
22.069[21, 23, 18, 25, 18, 21, 21, 17]
22.091[23, 24, 22, 25, 22, 20, 19, 17]
22.114[25, 21, 22, 21, 22, 20, 21, 16]
22.129[24, 22, 23, 19, 22, 18, 19, 19]
22.152[22, 20, 23, 19, 22, 20, 20, 20]
22.174[23, 20, 25, 16, 22, 23, 21, 21]
22.189[22, 18, 21, 17, 19, 22, 24, 21]
22.211[21, 18, 20, 18, 20, 22, 22, 21]
22.234[19, 19, 20, 20, 22, 23, 22, 23]
22.249[18, 19, 19, 20, 22, 21, 22, 22]
22.271[17, 21, 17, 21, 23, 18, 21, 22]
22.294[20, 22, 17, 21, 25, 21, 19, 22]
22.31[21, 20, 17, 21, 24, 20, 21, 23]
22.331[22, 20, 16, 22, 23, 19, 21, 21]
22.354[22, 21, 17, 23, 22, 20, 22, 21]
22.369[22, 20, 18, 22, 23, 18, 21, 20]
22.391[17, 20, 19, 22, 22, 16, 21, 20]
22.414[17, 22, 19, 22, 23, 16, 20, 23]
22.429[17, 22, 19, 21, 24, 19, 20, 22]
22.451[17, 23, 19, 22, 26, 18, 19, 21]
22.474[17, 22, 20, 21, 23, 20, 20, 22]
22.489[18, 23, 22, 22, 24, 20, 21, 23]
22.511[17, 21, 21, 22, 24, 21, 21, 20]
22.534[16, 20, 22, 21, 23, 20, 21, 19]
22.549[17, 20, 24, 23, 23, 22, 21, 20]
22.571[17, 20, 23, 22, 21, 21, 20, 19]
22.594[19, 20, 22, 22, 21, 21, 18, 17]
22.609[19, 19, 23, 21, 22, 20, 21, 18]
22.631[21, 19, 22, 22, 23, 20, 21, 19]
22.655[20, 18, 20, 22, 21, 17, 20, 19]
22.668[21, 19, 21, 22, 24, 17, 23, 18]
22.691[19, 20, 22, 24, 25, 18, 24, 18]
22.715[21, 22, 23, 24, 23, 19, 22, 19]
22.728[19, 23, 23, 22, 23, 18, 22, 18]
22.751[22, 23, 24, 19, 23, 20, 21, 17]
22.774[21, 22, 24, 20, 20, 21, 18, 19]
22.788[21, 21, 23, 20, 19, 20, 17, 20]
22.811[19, 21, 22, 20, 19, 22, 18, 19]
22.834[20, 21, 24, 22, 19, 22, 17, 20]
22.848[17, 21, 24, 23, 24, 23, 18, 21]
22.871[16, 21, 22, 22, 24, 20, 21, 20]
22.895[17, 22, 23, 20, 24, 22, 21, 20]
22.908[17, 21, 22, 20, 26, 19, 21, 20]
22.932[20, 20, 18, 22, 25, 20, 21, 18]
22.954[21, 19, 19, 22, 23, 20, 22, 17]
22.968[20, 18, 20, 24, 23, 21, 20, 20]
22.991[20, 17, 20, 25, 26, 18, 21, 19]
23.014[21, 18, 22, 26, 25, 21, 21, 20]
23.028[20, 18, 23, 25, 26, 20, 21, 22]
23.051[20, 18, 23, 24, 24, 20, 20, 23]
23.074[22, 19, 23, 22, 23, 20, 19, 21]
23.096[23, 19, 25, 22, 20, 21, 19, 21]
23.113[24, 18, 23, 27, 19, 22, 20, 21]
23.133[23, 19, 22, 28, 20, 22, 19, 19]
23.156[22, 21, 22, 30, 21, 21, 20, 17]
23.172[21, 21, 21, 30, 24, 20, 21, 17]
23.193[20, 20, 19, 30, 26, 21, 21, 16]
23.216[19, 20, 19, 23, 25, 20, 21, 16]
23.232[19, 19, 20, 21, 26, 20, 23, 18]
23.253[21, 17, 18, 18, 25, 21, 21, 20]
23.276[19, 19, 18, 20, 23, 21, 23, 20]
23.292[21, 19, 19, 20, 22, 21, 22, 21]
23.313[22, 21, 20, 21, 22, 20, 24, 22]
23.336[21, 20, 19, 21, 22, 21, 23, 21]
23.352[20, 23, 20, 21, 24, 22, 22, 19]
23.374[21, 20, 20, 21, 23, 24, 22, 19]
23.396[19, 22, 19, 20, 22, 25, 22, 19]
23.412[18, 20, 20, 20, 22, 25, 20, 18]
23.433[17, 22, 21, 22, 20, 24, 21, 18]
23.456[17, 21, 21, 23, 20, 22, 21, 18]
23.472[18, 22, 23, 21, 20, 23, 20, 20]
23.493[20, 23, 24, 21, 20, 20, 21, 20]
23.516[20, 23, 23, 23, 21, 21, 20, 19]
23.532[21, 21, 22, 21, 22, 20, 19, 20]
23.553[22, 24, 23, 20, 21, 19, 19, 20]
23.576[23, 24, 22, 22, 21, 18, 19, 18]
23.592[23, 23, 22, 23, 25, 20, 17, 17]
23.613[21, 24, 21, 22, 24, 25, 18, 20]
23.635[22, 25, 20, 23, 25, 26, 19, 19]
23.652[20, 21, 21, 21, 24, 27, 20, 18]
23.673[20, 20, 23, 19, 24, 25, 22, 19]
23.696[20, 19, 20, 18, 21, 23, 22, 21]
23.712[20, 20, 19, 18, 22, 17, 21, 19]
23.733[19, 19, 23, 17, 20, 16, 20, 19]
23.756[22, 20, 22, 17, 18, 17, 21, 20]
23.772[20, 20, 23, 17, 18, 17, 19, 19]
23.793[20, 20, 25, 18, 18, 20, 19, 16]
23.816[20, 22, 27, 19, 18, 20, 19, 17]
23.832[21, 22, 24, 19, 19, 22, 20, 16]
23.853[20, 22, 24, 18, 21, 22, 19, 18]
23.876[21, 22, 23, 21, 24, 22, 20, 18]
23.892[22, 22, 22, 21, 22, 20, 18, 20]
23.913[24, 19, 22, 20, 23, 23, 19, 21]
23.936[23, 20, 22, 21, 22, 20, 17, 21]
23.952[23, 17, 22, 22, 22, 20, 17, 20]
23.974[21, 18, 21, 22, 19, 22, 16, 22]
23.996[18, 19, 22, 21, 20, 22, 16, 20]
24.018[19, 20, 22, 22, 18, 20, 17, 19]
24.035[21, 20, 22, 22, 19, 20, 17, 20]
24.055[21, 22, 21, 21, 18, 20, 17, 21]
24.078[23, 22, 19, 19, 21, 19, 17, 23]
24.093[24, 23, 22, 26, 20, 19, 17, 24]
24.117[24, 23, 22, 25, 21, 22, 15, 23]
24.138[26, 23, 20, 25, 23, 23, 16, 22]
24.153[26, 23, 22, 30, 24, 23, 17, 21]
24.176[25, 22, 25, 29, 22, 22, 17, 17]
24.198[24, 23, 23, 25, 26, 24, 18, 17]
24.213[21, 21, 21, 27, 26, 20, 17, 18]
24.236[18, 20, 24, 32, 23, 19, 15, 20]
24.258[18, 20, 23, 28, 22, 18, 14, 21]
24.281[18, 21, 22, 31, 24, 19, 15, 19]
24.296[18, 19, 22, 30, 22, 18, 15, 20]
24.318[27, 20, 22, 29, 21, 22, 18, 21]
24.333[26, 21, 19, 23, 25, 25, 21, 19]
24.356[25, 21, 21, 24, 28, 25, 22, 18]
24.378[40, 21, 19, 21, 27, 24, 21, 19]
24.395[54, 23, 20, 20, 27, 23, 22, 18]
24.415[52, 22, 22, 20, 29, 19, 20, 20]
24.438[53, 22, 24, 22, 27, 17, 21, 19]
24.453[55, 22, 23, 22, 25, 18, 21, 21]
24.476[47, 21, 24, 24, 24, 18, 21, 21]
24.498[33, 21, 24, 23, 26, 19, 21, 21]
24.513[28, 21, 23, 24, 25, 20, 22, 19]
24.536[26, 19, 24, 21, 22, 19, 21, 20]
24.558[23, 18, 24, 19, 23, 20, 21, 19]
24.573[18, 19, 22, 18, 23, 21, 22, 19]
24.596[21, 18, 21, 19, 20, 21, 22, 19]
24.619[20, 20, 21, 20, 21, 21, 20, 21]
24.633[22, 20, 20, 21, 24, 21, 20, 19]
24.655[24, 20, 21, 24, 25, 19, 18, 19]
24.686[24, 18, 21, 24, 26, 19, 17, 18]
24.693[21, 18, 21, 24, 26, 20, 18, 19]
24.716[21, 18, 20, 23, 25, 19, 19, 17]
24.738[21, 19, 21, 25, 22, 20, 19, 19]
24.753[20, 20, 21, 22, 19, 20, 19, 19]
24.775[22, 21, 22, 23, 18, 22, 18, 19]
24.798[22, 22, 21, 23, 18, 22, 18, 20]
24.813[24, 22, 21, 24, 20, 22, 20, 20]
24.835[23, 21, 20, 21, 23, 20, 22, 20]
24.858[26, 21, 20, 22, 24, 26, 21, 20]
24.873[24, 22, 20, 22, 23, 24, 22, 21]
24.896[23, 23, 23, 21, 23, 22, 21, 20]
24.926[23, 22, 23, 22, 21, 23, 19, 22]
24.933[23, 23, 22, 22, 23, 24, 17, 22]
24.964[19, 23, 22, 20, 22, 19, 19, 22]
24.978[20, 21, 22, 19, 23, 18, 38, 23]
25.001[22, 21, 21, 18, 24, 19, 48, 20]
25.017[21, 20, 19, 19, 24, 21, 51, 21]
25.038[21, 20, 20, 21, 22, 21, 52, 19]
25.061[21, 22, 20, 21, 22, 21, 52, 18]
25.076[21, 23, 20, 21, 22, 20, 40, 20]
25.098[17, 21, 20, 22, 23, 22, 30, 21]
25.12[20, 22, 20, 22, 22, 19, 25, 19]
25.136[23, 23, 23, 20, 21, 18, 25, 20]
25.158[22, 22, 26, 20, 21, 17, 23, 20]
25.181[21, 21, 25, 22, 19, 18, 23, 16]
25.195[23, 23, 26, 23, 19, 18, 20, 16]
25.226[22, 23, 27, 22, 20, 19, 19, 16]
25.241[20, 25, 26, 23, 19, 21, 19, 17]
25.256[24, 24, 24, 23, 20, 22, 20, 18]
25.278[23, 24, 25, 24, 22, 21, 18, 18]
25.301[22, 24, 22, 21, 21, 22, 19, 17]
25.316[23, 25, 20, 20, 22, 22, 20, 18]
25.338[23, 23, 19, 21, 23, 23, 20, 18]
25.369[19, 24, 21, 26, 30, 26, 19, 19]
25.376[20, 27, 22, 26, 37, 27, 21, 20]
25.398[23, 27, 25, 27, 37, 26, 20, 21]
25.42[22, 26, 27, 27, 36, 26, 21, 21]
25.436[23, 25, 26, 28, 36, 25, 21, 22]
25.458[25, 39, 27, 25, 31, 25, 22, 23]
25.481[27, 38, 26, 25, 21, 25, 20, 22]
25.504[25, 37, 23, 25, 23, 24, 22, 22]
25.518[25, 37, 24, 25, 23, 25, 19, 21]
25.541[25, 37, 24, 26, 32, 28, 18, 19]
25.556[25, 22, 23, 24, 32, 26, 21, 18]
25.578[24, 22, 25, 25, 32, 27, 22, 18]
25.601[23, 23, 28, 24, 32, 27, 21, 18]
25.616[21, 23, 26, 25, 32, 25, 21, 19]
25.638[23, 22, 25, 23, 25, 24, 21, 19]
25.661[21, 24, 26, 23, 25, 23, 18, 19]
25.676[18, 23, 26, 22, 25, 21, 18, 22]
25.699[18, 23, 25, 22, 24, 20, 20, 21]
25.721[18, 23, 24, 20, 25, 20, 21, 22]
25.735[16, 22, 27, 21, 23, 21, 21, 21]
25.758[17, 19, 25, 21, 23, 21, 21, 22]
25.78[18, 20, 24, 22, 23, 22, 19, 21]
25.795[20, 19, 24, 21, 25, 24, 18, 22]
25.818[20, 19, 23, 22, 25, 25, 19, 24]
25.841[20, 21, 21, 20, 24, 22, 18, 24]
25.855[19, 21, 21, 20, 25, 23, 18, 23]
25.878[20, 20, 21, 21, 25, 21, 18, 22]
25.9[19, 20, 23, 21, 23, 21, 18, 20]
25.924[20, 21, 24, 23, 22, 20, 18, 18]
25.938[20, 20, 27, 23, 24, 23, 18, 18]
25.961[22, 22, 26, 22, 22, 23, 18, 18]
25.984[22, 23, 27, 21, 22, 23, 18, 19]
25.998[23, 23, 25, 22, 21, 21, 18, 19]
26.021[21, 24, 26, 22, 23, 23, 17, 19]
26.043[22, 24, 23, 21, 22, 22, 18, 18]
26.058[20, 23, 23, 23, 23, 22, 18, 19]
26.08[19, 23, 21, 21, 23, 22, 18, 17]
26.104[19, 24, 21, 22, 22, 23, 18, 18]
26.118[21, 24, 19, 21, 21, 20, 17, 18]
26.141[18, 24, 20, 22, 20, 19, 17, 19]
26.164[20, 23, 19, 21, 20, 19, 17, 19]
26.178[22, 22, 21, 22, 19, 17, 17, 21]
26.201[21, 20, 21, 19, 20, 18, 18, 20]
26.224[20, 19, 22, 18, 20, 19, 21, 20]
26.238[21, 20, 22, 18, 20, 20, 19, 21]
26.262[19, 21, 23, 20, 21, 20, 21, 20]
26.284[17, 22, 22, 20, 22, 20, 20, 18]
26.298[18, 22, 22, 20, 29, 19, 23, 19]
26.329[19, 24, 21, 20, 32, 18, 21, 18]
26.344[21, 23, 20, 19, 32, 17, 21, 16]
26.358[21, 22, 20, 20, 32, 18, 20, 16]
26.381[21, 22, 20, 20, 32, 19, 22, 17]
26.412[23, 22, 19, 21, 25, 18, 22, 18]
26.426[22, 21, 19, 20, 20, 19, 22, 20]
26.441[20, 20, 21, 21, 19, 20, 22, 20]
26.464[20, 20, 21, 20, 19, 19, 22, 19]
26.478[21, 20, 19, 20, 20, 21, 21, 18]
26.502[17, 21, 19, 22, 21, 21, 18, 18]
26.531[17, 19, 20, 21, 22, 20, 20, 16]
26.539[20, 20, 20, 22, 22, 20, 20, 19]
26.562[18, 21, 19, 22, 22, 24, 19, 20]
26.584[16, 23, 21, 21, 23, 22, 21, 19]
26.598[18, 22, 21, 22, 22, 23, 21, 19]
26.621[19, 23, 22, 24, 26, 24, 20, 19]
26.644[18, 23, 23, 23, 25, 24, 19, 17]
26.658[18, 22, 24, 23, 25, 20, 19, 17]
26.681[19, 19, 23, 24, 24, 22, 18, 19]
26.704[18, 19, 25, 23, 24, 21, 18, 19]
26.726[19, 18, 25, 21, 21, 21, 18, 19]
26.741[21, 19, 22, 22, 21, 21, 17, 19]
26.764[22, 20, 23, 22, 23, 21, 17, 20]
26.778[22, 20, 22, 20, 24, 20, 16, 19]
26.801[24, 20, 21, 19, 23, 20, 16, 19]
26.823[23, 21, 20, 19, 24, 20, 18, 19]
26.838[23, 20, 20, 18, 23, 20, 18, 18]
26.861[22, 20, 19, 18, 22, 20, 20, 18]
26.884[25, 20, 21, 19, 21, 20, 21, 19]
26.906[22, 23, 20, 17, 23, 18, 20, 18]
26.921[23, 23, 20, 17, 22, 19, 19, 18]
26.944[21, 23, 20, 16, 23, 21, 19, 19]
26.974[22, 22, 19, 17, 24, 20, 19, 20]
26.981[19, 23, 20, 21, 24, 20, 19, 19]
27.004[20, 21, 20, 21, 22, 21, 21, 18]
27.026[22, 22, 21, 21, 21, 22, 20, 20]
27.042[22, 23, 21, 23, 22, 20, 22, 19]
27.064[21, 24, 22, 23, 22, 20, 21, 18]
27.086[21, 23, 20, 20, 22, 23, 22, 19]
27.109[21, 23, 21, 21, 21, 23, 20, 21]
27.124[19, 21, 19, 21, 22, 22, 22, 19]
27.146[18, 23, 21, 19, 21, 22, 21, 21]
27.161[18, 22, 22, 18, 22, 23, 21, 21]
27.184[17, 23, 22, 20, 22, 21, 20, 22]
27.207[17, 22, 21, 20, 21, 22, 22, 21]
27.221[17, 24, 24, 19, 22, 21, 21, 22]
27.244[17, 23, 22, 19, 21, 20, 22, 20]
27.266[17, 22, 21, 20, 19, 20, 21, 20]
27.281[18, 22, 21, 17, 20, 20, 21, 17]
27.305[19, 22, 22, 16, 21, 18, 20, 17]
27.326[20, 23, 21, 18, 20, 20, 21, 18]
27.341[21, 22, 21, 19, 21, 21, 21, 19]
27.371[20, 22, 22, 18, 21, 20, 21, 20]
27.386[21, 22, 21, 18, 20, 19, 20, 20]
27.4[22, 21, 20, 18, 19, 21, 21, 20]
27.424[22, 18, 20, 18, 18, 21, 20, 18]
27.446[21, 20, 20, 17, 18, 20, 21, 21]
27.461[22, 19, 18, 17, 17, 23, 20, 20]
27.484[22, 21, 20, 18, 17, 24, 21, 22]
27.506[21, 22, 19, 19, 19, 21, 19, 23]
27.521[21, 25, 20, 23, 22, 21, 19, 23]
27.544[21, 24, 20, 21, 22, 20, 18, 19]
27.567[20, 26, 20, 22, 23, 19, 18, 22]
27.581[21, 24, 17, 22, 23, 19, 17, 21]
27.604[21, 25, 21, 24, 24, 19, 18, 22]
27.626[20, 22, 19, 19, 22, 20, 18, 22]
27.641[21, 22, 19, 22, 21, 19, 19, 22]
27.664[22, 22, 22, 23, 23, 21, 18, 19]
27.686[21, 22, 24, 22, 23, 19, 20, 19]
27.701[20, 22, 22, 22, 20, 21, 19, 19]
27.724[20, 22, 23, 21, 20, 22, 20, 20]
27.746[18, 22, 25, 21, 19, 22, 22, 19]
27.761[18, 22, 23, 19, 18, 21, 22, 19]
27.784[18, 21, 22, 21, 17, 23, 22, 19]
27.806[17, 22, 23, 21, 20, 21, 23, 18]
27.829[19, 20, 22, 22, 21, 21, 22, 18]
27.844[19, 19, 20, 21, 22, 21, 19, 19]
27.866[18, 18, 20, 20, 23, 19, 22, 19]
27.889[20, 19, 20, 20, 23, 19, 21, 20]
27.904[21, 17, 21, 18, 20, 21, 20, 20]
27.926[21, 17, 21, 18, 22, 21, 23, 18]
27.949[22, 22, 23, 18, 21, 23, 23, 18]
27.964[21, 23, 24, 19, 20, 23, 20, 18]
27.986[20, 22, 24, 18, 21, 23, 21, 17]
28.009[19, 23, 23, 19, 22, 21, 20, 20]
28.023[20, 23, 22, 20, 20, 19, 18, 21]
28.047[20, 22, 22, 19, 20, 18, 19, 20]
28.069[20, 23, 20, 19, 21, 18, 19, 21]
28.084[20, 23, 21, 18, 20, 18, 18, 21]
28.106[21, 23, 21, 20, 22, 17, 20, 18]
28.128[21, 23, 21, 18, 22, 20, 20, 20]
28.145[20, 22, 21, 20, 24, 19, 21, 20]
28.165[20, 20, 22, 23, 24, 21, 21, 19]
28.188[20, 20, 22, 21, 23, 22, 21, 19]
28.204[19, 19, 23, 20, 21, 23, 21, 20]
28.225[19, 21, 22, 22, 22, 22, 21, 18]
28.249[18, 21, 21, 20, 22, 24, 19, 20]
28.265[19, 20, 22, 18, 22, 22, 19, 20]
28.286[21, 19, 22, 19, 23, 21, 19, 21]
28.308[22, 21, 20, 19, 25, 23, 19, 20]
28.325[21, 19, 21, 18, 24, 22, 18, 19]
28.345[21, 19, 21, 20, 24, 20, 19, 18]
28.368[21, 21, 21, 20, 24, 22, 20, 19]
28.384[19, 20, 20, 20, 22, 21, 20, 18]
28.407[18, 20, 20, 21, 21, 21, 20, 18]
28.428[19, 19, 21, 21, 22, 21, 20, 20]
28.444[20, 19, 21, 20, 20, 22, 19, 20]
28.465[19, 18, 22, 20, 21, 21, 19, 20]
28.488[19, 19, 22, 19, 21, 21, 19, 20]
28.505[20, 19, 21, 19, 22, 19, 18, 19]
28.525[20, 19, 19, 19, 22, 19, 19, 18]
28.555[19, 20, 20, 20, 21, 17, 18, 17]
28.565[18, 20, 18, 19, 20, 18, 19, 15]
28.586[18, 18, 17, 20, 20, 17, 19, 16]
28.608[20, 18, 17, 19, 20, 17, 18, 17]
28.624[20, 19, 19, 19, 20, 18, 17, 18]
28.645[19, 19, 21, 18, 21, 19, 18, 18]
28.668[20, 20, 21, 19, 21, 18, 15, 18]
28.684[21, 22, 23, 18, 20, 16, 17, 18]
28.705[20, 23, 25, 18, 20, 17, 17, 18]
28.728[18, 24, 25, 18, 19, 15, 18, 16]
28.75[19, 25, 23, 23, 21, 20, 18, 16]
28.765[20, 25, 22, 25, 20, 20, 19, 17]
28.789[19, 25, 21, 27, 23, 21, 17, 18]
28.81[19, 24, 20, 28, 24, 22, 17, 17]
28.833[19, 23, 20, 28, 24, 22, 17, 18]
28.849[20, 23, 21, 25, 23, 21, 17, 17]
28.87[19, 23, 24, 24, 24, 22, 19, 17]
28.885[19, 21, 25, 22, 22, 22, 20, 17]
28.908[21, 23, 24, 22, 20, 22, 20, 16]
28.93[21, 23, 26, 22, 20, 22, 20, 17]
28.946[20, 22, 26, 22, 22, 22, 19, 18]
28.968[18, 22, 26, 20, 22, 21, 19, 19]
28.99[17, 23, 27, 22, 24, 22, 19, 19]
29.006[15, 21, 26, 23, 24, 22, 19, 20]
29.028[18, 21, 25, 24, 24, 20, 18, 19]
29.05[19, 21, 24, 23, 23, 18, 17, 20]
29.066[19, 19, 23, 23, 21, 18, 16, 19]
29.088[20, 19, 23, 22, 19, 21, 14, 19]
29.112[19, 18, 23, 20, 20, 20, 14, 19]
29.125[19, 17, 22, 19, 22, 23, 15, 20]
29.155[20, 18, 23, 20, 20, 22, 17, 18]
29.17[23, 19, 21, 21, 21, 23, 17, 18]
29.187[23, 19, 19, 20, 21, 19, 18, 19]
29.208[24, 19, 20, 21, 20, 20, 18, 17]
29.232[22, 20, 22, 21, 16, 18, 19, 17]
29.253[21, 19, 20, 21, 19, 21, 19, 18]
29.268[18, 17, 21, 21, 22, 21, 20, 17]
29.291[19, 17, 22, 21, 21, 22, 19, 15]
29.314[19, 17, 22, 21, 21, 24, 23, 18]
29.328[20, 17, 19, 22, 23, 23, 22, 17]
29.35[21, 19, 19, 24, 22, 22, 21, 17]
29.365[21, 20, 18, 23, 22, 22, 20, 21]
29.389[18, 19, 20, 26, 22, 21, 21, 22]
29.41[19, 20, 21, 24, 25, 20, 17, 23]
29.425[16, 21, 22, 24, 24, 22, 17, 23]
29.448[16, 19, 22, 21, 24, 21, 19, 23]
29.47[17, 21, 23, 20, 22, 20, 19, 21]
29.485[18, 22, 21, 17, 22, 19, 20, 20]
29.508[16, 20, 22, 20, 21, 20, 20, 19]
29.53[17, 20, 22, 20, 22, 20, 20, 19]
29.545[19, 20, 23, 23, 22, 20, 19, 18]
29.568[18, 20, 23, 24, 21, 21, 19, 19]
29.591[17, 19, 21, 24, 20, 22, 18, 18]
29.607[19, 22, 20, 22, 20, 22, 18, 17]
29.628[21, 22, 20, 23, 19, 20, 18, 17]
29.65[18, 22, 20, 21, 18, 20, 16, 17]
29.666[22, 22, 20, 21, 20, 20, 17, 17]
29.689[23, 22, 23, 22, 21, 22, 18, 16]
29.711[21, 23, 22, 22, 23, 22, 20, 16]
29.733[20, 21, 23, 19, 22, 21, 20, 15]
29.748[21, 22, 23, 19, 22, 22, 20, 15]
29.771[19, 24, 23, 19, 22, 21, 20, 16]
29.793[18, 22, 23, 18, 21, 19, 19, 16]
29.808[18, 22, 24, 20, 19, 18, 18, 17]
29.83[20, 22, 23, 20, 21, 18, 21, 17]
29.853[18, 20, 22, 19, 22, 17, 20, 19]
29.868[17, 18, 22, 19, 21, 18, 22, 18]
29.89[17, 18, 22, 17, 20, 18, 22, 19]
29.913[18, 17, 20, 17, 18, 18, 23, 20]
29.928[17, 17, 20, 17, 17, 19, 20, 19]
29.95[19, 19, 20, 18, 17, 20, 20, 19]
29.973[21, 20, 21, 20, 20, 21, 19, 20]
29.988[20, 20, 19, 20, 21, 20, 19, 19]
30.01[21, 19, 19, 22, 22, 23, 17, 18]
30.033[20, 19, 20, 23, 23, 23, 18, 18]
30.048[21, 19, 21, 23, 23, 22, 18, 18]
30.07[18, 18, 21, 23, 22, 21, 18, 18]
30.093[21, 16, 21, 24, 22, 22, 19, 18]
30.108[22, 17, 22, 23, 23, 19, 18, 18]
30.139[22, 18, 23, 22, 23, 19, 17, 19]
30.153[22, 17, 20, 22, 22, 21, 19, 17]
30.168[22, 19, 21, 21, 22, 21, 19, 16]
30.19[20, 22, 20, 22, 24, 20, 17, 16]
30.213[20, 22, 20, 21, 24, 20, 19, 16]
30.228[19, 22, 21, 44, 28, 21, 20, 16]
30.25[18, 22, 26, 65, 42, 23, 20, 18]
30.273[25, 23, 29, 92, 71, 28, 21, 19]
30.288[35, 25, 31, 113, 72, 31, 23, 29]
30.31[35, 25, 37, 159, 87, 35, 24, 32]
30.333[48, 34, 42, 167, 104, 39, 24, 37]
30.348[75, 43, 45, 165, 103, 42, 31, 48]
30.371[82, 46, 52, 181, 133, 46, 34, 56]
30.393[80, 47, 57, 190, 148, 48, 38, 54]
30.408[96, 54, 70, 246, 170, 63, 52, 61]
30.43[95, 56, 72, 246, 211, 124, 73, 63]
30.453[82, 57, 74, 257, 226, 127, 76, 65]
30.468[82, 55, 70, 261, 229, 139, 126, 68]
30.49[97, 61, 73, 292, 263, 147, 130, 79]
30.513[99, 73, 78, 261, 279, 152, 133, 77]
30.528[111, 85, 97, 278, 270, 118, 127, 88]
30.55[133, 90, 102, 298, 316, 121, 127, 107]
30.573[133, 97, 116, 310, 313, 117, 81, 118]
30.589[134, 100, 130, 345, 294, 129, 82, 116]
30.611[223, 135, 156, 406, 324, 138, 91, 167]
30.633[231, 144, 164, 435, 340, 139, 90, 172]
30.656[267, 163, 171, 438, 334, 149, 98, 199]
30.67[275, 163, 173, 460, 346, 146, 104, 200]
30.693[292, 177, 181, 446, 398, 149, 109, 227]
30.716[248, 160, 169, 436, 368, 133, 97, 207]
30.73[255, 151, 159, 442, 352, 138, 94, 205]
30.753[255, 146, 155, 442, 317, 133, 93, 202]
30.777[272, 150, 150, 424, 302, 140, 86, 213]
30.79[268, 141, 132, 394, 250, 151, 86, 206]
30.813[274, 130, 125, 416, 248, 165, 100, 211]
30.836[288, 148, 134, 409, 251, 161, 109, 218]
30.851[284, 156, 153, 447, 253, 155, 107, 229]
30.873[307, 184, 164, 450, 270, 152, 131, 257]
30.897[343, 205, 180, 481, 256, 131, 136, 274]
30.911[396, 224, 185, 411, 246, 122, 136, 303]
30.933[389, 218, 188, 411, 245, 118, 141, 317]
30.956[377, 212, 190, 392, 280, 124, 139, 306]
30.97[361, 192, 187, 431, 314, 123, 126, 296]
30.993[325, 173, 188, 440, 357, 162, 132, 299]
31.016[272, 156, 178, 460, 372, 159, 126, 293]
31.03[291, 164, 177, 432, 405, 163, 130, 318]
31.053[373, 199, 180, 401, 441, 171, 156, 384]
31.076[381, 205, 174, 357, 427, 168, 154, 388]
31.09[390, 205, 162, 358, 408, 125, 141, 377]
31.113[395, 209, 176, 366, 440, 143, 146, 365]
31.136[396, 197, 162, 384, 405, 135, 133, 348]
31.15[344, 174, 135, 387, 383, 124, 112, 283]
31.173[336, 175, 141, 440, 423, 128, 113, 261]
31.196[385, 177, 138, 426, 446, 134, 127, 302]
31.21[399, 193, 140, 416, 431, 114, 118, 301]
31.233[379, 193, 143, 450, 460, 119, 121, 289]
31.256[373, 185, 151, 453, 450, 135, 123, 285]
31.27[398, 191, 158, 428, 407, 128, 121, 309]
31.293[357, 198, 166, 424, 373, 122, 116, 284]
31.316[320, 178, 157, 419, 356, 116, 121, 295]
31.331[344, 195, 158, 374, 338, 113, 127, 315]
31.353[334, 187, 153, 375, 336, 85, 112, 306]
31.376[307, 171, 139, 336, 319, 100, 115, 294]
31.39[309, 162, 130, 293, 329, 94, 110, 297]
31.413[305, 155, 123, 308, 380, 129, 114, 300]
31.436[313, 150, 140, 349, 374, 138, 123, 325]
31.451[384, 195, 163, 370, 370, 153, 175, 408]
31.473[364, 189, 160, 360, 398, 158, 176, 403]
31.496[356, 183, 161, 374, 381, 158, 171, 388]
31.51[360, 190, 167, 349, 353, 140, 165, 377]
31.533[345, 188, 153, 319, 367, 131, 152, 344]
31.556[273, 147, 133, 301, 385, 118, 105, 270]
31.571[296, 155, 136, 299, 365, 108, 105, 294]
31.593[283, 147, 126, 302, 363, 112, 108, 286]
31.616[273, 140, 123, 296, 327, 115, 104, 278]
31.639[256, 133, 127, 319, 314, 119, 112, 285]
31.653[224, 120, 116, 308, 307, 113, 101, 261]
31.677[230, 130, 117, 293, 306, 113, 96, 233]
31.699[257, 153, 135, 289, 329, 117, 116, 257]
31.713[275, 156, 136, 284, 341, 104, 129, 269]
31.737[270, 148, 123, 228, 324, 97, 128, 261]
31.758[286, 153, 129, 208, 307, 100, 128, 255]
31.773[256, 137, 128, 255, 323, 96, 126, 252]
31.796[225, 115, 108, 292, 313, 87, 117, 244]
31.818[231, 117, 104, 283, 327, 89, 108, 249]
31.834[231, 124, 114, 285, 345, 100, 105, 235]
31.856[212, 123, 114, 314, 395, 101, 103, 223]
31.879[214, 124, 107, 298, 374, 102, 113, 228]
31.894[211, 132, 128, 328, 388, 102, 102, 210]
31.916[248, 153, 140, 340, 388, 102, 105, 244]
31.939[247, 150, 139, 368, 396, 99, 111, 253]
31.961[258, 158, 147, 357, 347, 103, 114, 269]
31.976[293, 179, 162, 368, 377, 95, 113, 294]
31.999[291, 171, 145, 300, 363, 89, 118, 302]
32.013[235, 144, 125, 288, 347, 95, 110, 275]
32.036[239, 143, 116, 241, 342, 92, 106, 276]
32.059[235, 139, 105, 231, 330, 85, 106, 295]
32.074[217, 127, 90, 197, 308, 86, 101, 274]
32.096[226, 129, 93, 209, 311, 91, 97, 272]
32.118[235, 125, 93, 227, 324, 88, 98, 261]
32.133[247, 144, 123, 238, 309, 86, 97, 262]
32.156[243, 145, 127, 238, 344, 88, 93, 238]
32.179[234, 144, 134, 269, 360, 102, 95, 236]
32.193[250, 160, 144, 280, 354, 101, 98, 257]
32.217[235, 165, 160, 276, 365, 103, 101, 246]
32.239[294, 175, 160, 281, 381, 108, 126, 339]
32.253[309, 176, 159, 283, 353, 108, 131, 359]
32.276[302, 169, 158, 280, 359, 105, 125, 350]
32.299[314, 173, 163, 256, 355, 107, 122, 338]
32.313[336, 183, 158, 250, 355, 103, 126, 357]
32.336[315, 175, 149, 252, 328, 104, 107, 282]
32.359[343, 192, 160, 287, 336, 110, 110, 277]
32.373[365, 209, 166, 290, 321, 107, 119, 292]
32.396[340, 194, 154, 294, 332, 112, 122, 289]
32.419[334, 188, 152, 298, 305, 114, 137, 306]
32.433[312, 180, 146, 283, 314, 109, 132, 303]
32.456[278, 168, 142, 282, 404, 111, 127, 280]
32.479[294, 165, 140, 268, 402, 105, 131, 312]
32.493[301, 171, 148, 270, 404, 96, 130, 323]
32.517[329, 185, 153, 265, 408, 110, 124, 326]
32.538[312, 184, 164, 270, 416, 109, 124, 320]
32.561[304, 179, 158, 221, 318, 101, 133, 335]
32.576[261, 158, 147, 229, 370, 110, 124, 296]
32.598[249, 149, 133, 219, 356, 112, 122, 282]
32.621[311, 166, 148, 253, 357, 103, 132, 343]
32.644[343, 161, 134, 257, 375, 115, 138, 349]
32.658[349, 164, 149, 304, 384, 119, 135, 357]
32.681[358, 170, 151, 282, 331, 117, 138, 368]
32.696[370, 174, 159, 289, 340, 119, 142, 379]
32.718[293, 147, 155, 284, 376, 121, 128, 313]
32.742[264, 167, 167, 286, 354, 111, 120, 289]
32.757[260, 162, 154, 258, 342, 110, 116, 269]
32.779[252, 164, 157, 263, 340, 115, 120, 265]
32.801[260, 176, 164, 299, 329, 113, 123, 263]
32.816[266, 168, 142, 275, 281, 103, 110, 241]
32.838[255, 150, 136, 321, 307, 105, 110, 248]
32.861[293, 168, 153, 341, 316, 98, 116, 282]
32.876[285, 156, 145, 346, 321, 96, 113, 271]
32.899[290, 148, 133, 330, 333, 89, 111, 292]
32.921[267, 140, 137, 343, 333, 101, 129, 314]
32.936[258, 129, 124, 312, 314, 95, 128, 307]
32.959[203, 116, 137, 289, 309, 100, 116, 263]
32.981[264, 153, 163, 292, 302, 116, 131, 310]
32.996[306, 168, 174, 323, 336, 120, 135, 321]
33.019[339, 177, 181, 342, 338, 113, 131, 326]
33.041[353, 182, 184, 337, 353, 113, 134, 349]
33.055[362, 175, 154, 325, 360, 111, 138, 355]
33.086[342, 155, 133, 321, 372, 93, 120, 312]
33.101[288, 129, 115, 269, 329, 105, 111, 260]
33.115[275, 131, 104, 225, 316, 108, 101, 221]
33.139[264, 123, 98, 249, 310, 115, 100, 190]
33.16[264, 126, 110, 266, 310, 120, 101, 190]
33.183[258, 123, 101, 263, 287, 116, 102, 227]
33.199[264, 135, 117, 286, 313, 106, 99, 252]
33.221[245, 127, 123, 307, 332, 114, 103, 262]
33.243[286, 154, 132, 286, 307, 111, 117, 323]
33.259[297, 160, 126, 273, 284, 113, 125, 344]
33.28[280, 163, 146, 311, 304, 122, 122, 325]
33.303[292, 165, 138, 296, 275, 131, 141, 357]
33.319[288, 158, 127, 277, 256, 125, 147, 366]
33.341[257, 139, 121, 260, 250, 130, 139, 336]
33.357[251, 137, 133, 315, 282, 124, 131, 319]
33.379[254, 131, 113, 306, 314, 116, 130, 327]
33.401[233, 114, 112, 327, 324, 105, 114, 296]
33.417[237, 116, 115, 352, 343, 110, 100, 271]
33.439[270, 137, 126, 353, 379, 108, 98, 275]
33.461[255, 120, 111, 314, 359, 104, 90, 259]
33.483[252, 119, 126, 337, 318, 111, 103, 274]
33.499[246, 128, 143, 330, 333, 122, 97, 251]
33.521[238, 129, 142, 305, 320, 113, 99, 260]
33.543[193, 108, 134, 319, 272, 101, 92, 229]
33.559[188, 115, 134, 315, 267, 97, 96, 245]
33.58[197, 124, 123, 262, 272, 92, 87, 233]
33.603[199, 120, 104, 238, 235, 72, 86, 241]
33.619[214, 125, 112, 284, 240, 75, 82, 233]
33.641[204, 120, 109, 280, 256, 84, 79, 234]
33.663[194, 113, 104, 274, 260, 92, 81, 223]
33.678[170, 98, 98, 278, 241, 91, 75, 202]
33.7[158, 86, 92, 289, 257, 93, 79, 182]
33.723[188, 96, 90, 287, 227, 90, 93, 217]
33.745[185, 91, 96, 290, 263, 87, 91, 203]
33.76[205, 101, 104, 296, 297, 83, 89, 206]
33.783[208, 96, 106, 288, 295, 79, 89, 191]
33.798[236, 121, 113, 287, 295, 76, 86, 196]
33.821[198, 109, 105, 259, 301, 69, 69, 157]
33.843[200, 113, 95, 251, 262, 75, 78, 161]
33.858[184, 108, 91, 237, 231, 70, 79, 156]
33.881[205, 125, 93, 296, 294, 74, 86, 186]
33.904[178, 108, 93, 287, 273, 72, 84, 183]
33.918[211, 125, 107, 286, 296, 77, 80, 174]
33.94[211, 136, 117, 272, 316, 77, 79, 179]
33.963[214, 135, 117, 311, 302, 79, 78, 192]
33.978[240, 146, 122, 259, 238, 71, 71, 188]
34.001[236, 144, 116, 265, 248, 80, 79, 194]
34.023[205, 129, 104, 286, 259, 75, 81, 199]
34.038[212, 129, 113, 295, 230, 63, 79, 215]
34.061[213, 133, 115, 266, 228, 68, 74, 199]
34.083[168, 108, 104, 272, 247, 69, 76, 193]
34.098[185, 107, 106, 283, 259, 63, 71, 218]
34.121[186, 108, 105, 259, 231, 65, 69, 205]
34.143[212, 115, 97, 265, 234, 69, 78, 230]
34.158[222, 111, 97, 288, 266, 74, 82, 248]
34.182[228, 110, 93, 278, 261, 75, 78, 246]
34.203[221, 112, 87, 261, 259, 78, 78, 225]
34.218[228, 122, 100, 246, 258, 78, 93, 245]
34.241[212, 110, 104, 312, 264, 81, 87, 211]
34.263[195, 107, 102, 287, 289, 81, 87, 189]
34.278[189, 119, 124, 338, 361, 91, 91, 184]
34.3[192, 123, 130, 345, 358, 88, 87, 192]
34.323[187, 118, 122, 349, 363, 86, 76, 178]
34.338[158, 108, 118, 289, 368, 87, 70, 166]
34.361[169, 114, 119, 275, 331, 79, 74, 172]
34.384[168, 100, 101, 231, 256, 74, 71, 171]
34.398[165, 106, 108, 240, 241, 73, 74, 155]
34.422[165, 102, 107, 244, 213, 87, 78, 154]
34.443[172, 98, 94, 240, 198, 81, 76, 147]
34.465[172, 93, 92, 259, 206, 86, 76, 156]
34.481[159, 94, 88, 245, 189, 88, 76, 146]
34.503[156, 89, 74, 233, 211, 91, 79, 181]
34.526[145, 84, 78, 232, 230, 82, 75, 184]
34.54[199, 106, 108, 358, 270, 83, 79, 220]
34.563[197, 109, 113, 363, 263, 84, 87, 223]
34.586[206, 109, 115, 361, 266, 78, 89, 233]
34.6[220, 105, 117, 362, 286, 85, 91, 229]
34.623[232, 106, 114, 355, 285, 84, 92, 241]
34.645[218, 114, 112, 243, 310, 93, 112, 251]
34.661[225, 110, 107, 225, 333, 93, 107, 240]
34.683[225, 113, 111, 238, 336, 91, 103, 234]
34.705[206, 111, 108, 238, 322, 81, 97, 216]
34.72[220, 111, 108, 236, 328, 79, 98, 210]
34.743[191, 87, 93, 262, 281, 67, 70, 161]
34.765[172, 83, 89, 261, 246, 57, 61, 159]
34.78[190, 83, 83, 246, 243, 66, 65, 170]
34.803[182, 79, 83, 238, 233, 69, 69, 169]
34.825[160, 78, 82, 244, 210, 72, 63, 150]
34.84[166, 71, 79, 245, 185, 78, 71, 160]
34.863[172, 78, 84, 252, 193, 81, 74, 168]
34.885[139, 71, 93, 317, 182, 76, 70, 148]
34.9[212, 106, 120, 320, 211, 76, 83, 210]
34.931[211, 106, 121, 331, 217, 78, 82, 214]
34.945[220, 112, 117, 313, 267, 78, 91, 239]
34.961[224, 114, 116, 326, 290, 82, 94, 238]
34.983[246, 119, 123, 322, 349, 89, 106, 259]
35.013[238, 113, 109, 328, 375, 91, 103, 240]
35.02[245, 115, 115, 360, 410, 100, 107, 249]
35.043[230, 110, 117, 346, 387, 101, 99, 220]
35.065[228, 110, 120, 328, 402, 109, 95, 214]
35.081[209, 105, 105, 271, 370, 111, 87, 195]
35.103[164, 90, 108, 310, 398, 112, 75, 157]
35.125[149, 96, 122, 292, 399, 111, 76, 150]
35.141[152, 98, 127, 312, 401, 104, 73, 155]
35.163[169, 111, 148, 360, 458, 116, 72, 158]
35.185[186, 125, 155, 363, 465, 112, 70, 174]
35.201[209, 135, 147, 329, 414, 114, 76, 206]
35.223[213, 134, 132, 295, 394, 108, 76, 203]
35.246[235, 137, 127, 284, 392, 118, 76, 200]
35.261[223, 131, 107, 254, 322, 104, 80, 214]
35.283[213, 122, 98, 262, 316, 106, 92, 223]
35.305[208, 116, 95, 252, 314, 101, 102, 221]
35.321[217, 118, 104, 283, 349, 101, 100, 228]
35.343[214, 129, 112, 273, 404, 110, 109, 234]
35.365[240, 129, 108, 250, 391, 99, 109, 236]
35.388[245, 128, 113, 279, 399, 93, 98, 215]
35.403[229, 132, 129, 291, 444, 98, 86, 187]
35.426[242, 130, 126, 278, 430, 97, 93, 218]
35.448[247, 126, 117, 291, 392, 90, 92, 229]
35.463[217, 116, 114, 301, 410, 92, 88, 210]
35.486[213, 120, 112, 270, 401, 94, 87, 216]
35.508[211, 107, 91, 254, 351, 92, 94, 232]
35.523[180, 108, 98, 252, 375, 104, 86, 200]
35.545[140, 95, 99, 241, 370, 98, 79, 192]
35.569[128, 98, 103, 261, 362, 105, 78, 190]
35.583[136, 97, 103, 250, 350, 103, 87, 198]
35.605[169, 101, 101, 301, 343, 100, 76, 192]
35.629[167, 97, 94, 298, 329, 94, 82, 196]
35.643[208, 105, 91, 302, 341, 99, 90, 223]
35.665[227, 115, 110, 329, 308, 97, 92, 229]
35.689[217, 113, 115, 354, 334, 104, 86, 214]
35.703[232, 119, 123, 324, 369, 106, 87, 220]
35.725[263, 135, 130, 351, 356, 103, 93, 242]
35.749[241, 129, 131, 343, 341, 97, 85, 209]
35.763[236, 118, 111, 302, 401, 98, 91, 211]
35.785[233, 117, 109, 287, 399, 109, 95, 210]
35.809[241, 119, 109, 292, 359, 104, 103, 244]
35.823[213, 116, 121, 280, 373, 121, 99, 205]
35.846[226, 113, 120, 283, 382, 121, 94, 201]
35.869[222, 119, 123, 281, 315, 117, 91, 201]
35.883[226, 121, 125, 272, 299, 103, 91, 203]
35.914[184, 110, 121, 254, 314, 107, 80, 156]
35.929[205, 121, 117, 291, 265, 90, 84, 177]
35.943[180, 123, 126, 290, 244, 90, 86, 179]
35.965[186, 126, 127, 277, 267, 89, 84, 180]
35.989[197, 129, 125, 284, 296, 113, 95, 195]
36.003[194, 130, 129, 326, 304, 111, 94, 187]
36.025[172, 106, 105, 274, 308, 104, 81, 173]
36.049[172, 104, 98, 285, 317, 98, 77, 182]
36.063[174, 106, 101, 290, 303, 96, 76, 185]
36.085[170, 100, 96, 283, 302, 74, 66, 177]
36.109[172, 98, 89, 252, 282, 74, 64, 167]
36.123[181, 109, 99, 245, 280, 74, 80, 211]
36.145[209, 123, 99, 228, 264, 76, 91, 238]
36.169[216, 117, 95, 230, 258, 81, 95, 244]
36.183[224, 114, 89, 219, 211, 78, 94, 252]
36.205[236, 125, 96, 238, 245, 84, 105, 285]
36.229[240, 122, 92, 227, 242, 86, 94, 263]
36.243[220, 107, 86, 265, 252, 99, 95, 241]
36.266[226, 109, 78, 254, 265, 96, 98, 266]
36.289[210, 114, 87, 262, 258, 99, 103, 258]
36.303[231, 121, 83, 260, 252, 99, 104, 257]
36.325[235, 113, 81, 264, 256, 103, 105, 256]
36.349[247, 128, 93, 231, 260, 92, 97, 261]
36.371[237, 125, 95, 245, 250, 89, 93, 248]
36.385[245, 129, 99, 250, 256, 80, 87, 264]
36.409[207, 118, 103, 226, 236, 83, 87, 236]
36.431[199, 118, 100, 227, 236, 85, 88, 237]
36.446[190, 113, 110, 265, 280, 92, 87, 228]
36.469[188, 117, 115, 244, 280, 102, 90, 210]
36.491[194, 116, 112, 242, 288, 109, 97, 216]
36.505[209, 113, 110, 264, 305, 109, 87, 215]
36.529[202, 114, 114, 267, 311, 101, 87, 223]
36.551[236, 111, 97, 219, 269, 108, 99, 223]
36.566[229, 102, 92, 238, 297, 99, 93, 227]
36.589[210, 97, 91, 251, 314, 94, 80, 189]
36.611[209, 99, 88, 213, 297, 98, 79, 195]
36.625[216, 98, 88, 238, 287, 101, 78, 189]
36.649[223, 97, 86, 264, 274, 87, 70, 222]
36.671[241, 114, 95, 288, 266, 90, 72, 214]
36.685[248, 112, 91, 267, 272, 90, 76, 221]
36.709[254, 115, 102, 272, 271, 80, 82, 250]
36.731[248, 112, 100, 258, 267, 71, 82, 239]
36.745[197, 111, 108, 236, 308, 77, 75, 200]
36.769[191, 95, 97, 180, 289, 82, 72, 205]
36.791[231, 100, 96, 221, 269, 81, 77, 225]
36.806[210, 85, 80, 232, 269, 75, 73, 175]
36.829[229, 94, 86, 224, 313, 83, 77, 192]
36.851[241, 99, 90, 270, 297, 94, 79, 196]
36.865[275, 115, 92, 277, 296, 89, 81, 191]
36.888[239, 111, 103, 258, 286, 99, 82, 162]
36.912[247, 110, 102, 253, 290, 101, 78, 174]
36.925[244, 112, 99, 245, 248, 95, 76, 169]
36.956[242, 105, 90, 192, 224, 79, 72, 169]
36.971[188, 91, 101, 195, 244, 83, 73, 160]
36.986[178, 85, 89, 197, 233, 74, 67, 156]
37.009[217, 95, 90, 206, 219, 79, 77, 187]
37.031[200, 85, 85, 222, 252, 96, 76, 171]
37.045[198, 92, 90, 232, 246, 97, 75, 166]
37.068[214, 97, 91, 260, 220, 94, 74, 176]
37.091[218, 96, 91, 249, 221, 89, 70, 182]
37.105[170, 90, 90, 236, 247, 93, 59, 144]
37.128[180, 89, 95, 246, 214, 83, 66, 164]
37.151[187, 94, 106, 268, 218, 85, 71, 169]
37.165[162, 85, 96, 238, 222, 83, 70, 160]
37.189[158, 87, 100, 247, 244, 85, 72, 153]
37.211[158, 88, 108, 240, 218, 72, 68, 143]
37.225[181, 102, 113, 224, 213, 65, 58, 171]
37.249[178, 95, 102, 244, 233, 59, 59, 183]
37.271[183, 99, 109, 260, 257, 63, 58, 197]
37.294[191, 97, 104, 262, 241, 58, 58, 208]
37.309[190, 105, 97, 269, 267, 67, 61, 214]
37.331[150, 89, 86, 269, 273, 65, 62, 176]
37.353[133, 82, 83, 242, 247, 65, 56, 158]
37.369[143, 94, 101, 231, 265, 80, 62, 143]
37.391[192, 128, 126, 252, 295, 104, 87, 157]
37.413[192, 119, 126, 245, 274, 101, 86, 146]
37.429[191, 125, 134, 275, 290, 104, 83, 150]
37.451[217, 128, 130, 267, 287, 105, 88, 178]
37.474[227, 118, 110, 279, 255, 92, 87, 195]
37.489[186, 95, 99, 246, 257, 64, 58, 170]
37.511[205, 101, 104, 250, 267, 63, 63, 180]
37.533[213, 97, 97, 221, 235, 61, 73, 193]
37.549[182, 93, 96, 199, 244, 59, 66, 163]
37.571[159, 95, 101, 232, 299, 59, 61, 136]
37.593[210, 115, 103, 240, 341, 71, 74, 159]
37.609[207, 111, 98, 266, 343, 77, 75, 159]
37.631[218, 124, 112, 284, 397, 72, 71, 147]
37.653[237, 129, 112, 291, 404, 77, 70, 152]
37.669[245, 131, 115, 281, 395, 82, 75, 183]
37.691[198, 108, 104, 298, 394, 84, 72, 167]
37.713[218, 116, 108, 277, 401, 90, 70, 179]
37.729[200, 105, 108, 275, 372, 99, 70, 172]
37.751[189, 103, 109, 273, 377, 101, 77, 175]
37.773[200, 111, 125, 269, 367, 107, 84, 152]
37.788[202, 103, 119, 245, 317, 100, 82, 154]
37.811[166, 92, 118, 238, 306, 96, 81, 139]
37.833[171, 84, 103, 213, 294, 91, 78, 140]
37.848[168, 84, 106, 209, 281, 90, 73, 130]
37.871[216, 112, 109, 181, 264, 83, 71, 187]
37.893[219, 114, 108, 184, 265, 82, 69, 195]
37.908[216, 116, 116, 217, 292, 76, 65, 200]
37.931[254, 128, 122, 260, 304, 78, 75, 242]
37.954[250, 126, 118, 274, 304, 73, 75, 249]
37.968[193, 90, 91, 272, 300, 62, 65, 212]
37.991[205, 96, 94, 291, 282, 69, 69, 205]
38.014[219, 97, 106, 374, 280, 77, 81, 206]
38.028[179, 83, 99, 347, 268, 72, 70, 152]
38.051[181, 87, 106, 348, 288, 78, 73, 153]
38.073[216, 86, 107, 359, 288, 86, 74, 162]
38.088[206, 83, 106, 347, 308, 77, 69, 155]
38.111[185, 74, 85, 272, 282, 67, 57, 160]
38.133[194, 85, 88, 270, 271, 68, 59, 179]
38.157[195, 80, 83, 259, 253, 68, 58, 174]
38.172[164, 86, 96, 258, 243, 66, 63, 180]
38.193[176, 87, 95, 278, 219, 70, 66, 198]
38.215[175, 87, 94, 253, 235, 85, 73, 181]
38.232[147, 75, 93, 285, 226, 88, 73, 158]
38.253[145, 78, 91, 294, 226, 84, 71, 154]
38.275[138, 74, 78, 297, 234, 85, 62, 137]
38.292[164, 88, 94, 286, 227, 81, 65, 157]
38.313[178, 91, 91, 288, 243, 79, 64, 175]
38.335[186, 94, 91, 263, 273, 75, 61, 182]
38.352[201, 94, 88, 253, 267, 75, 63, 192]
38.373[201, 91, 87, 250, 290, 74, 68, 198]
38.395[167, 79, 72, 250, 310, 74, 67, 170]
38.412[153, 83, 76, 237, 289, 60, 62, 152]
38.433[175, 90, 80, 264, 268, 60, 68, 151]
38.455[169, 93, 89, 269, 268, 64, 69, 152]
38.472[210, 107, 102, 282, 257, 67, 74, 177]
38.493[235, 117, 109, 271, 260, 83, 72, 189]
38.516[292, 138, 117, 266, 273, 95, 71, 214]
38.532[282, 138, 115, 272, 284, 96, 66, 213]
38.553[296, 143, 113, 264, 276, 93, 64, 227]
38.575[308, 166, 119, 232, 261, 97, 79, 247]
38.592[305, 164, 112, 239, 272, 90, 81, 247]
38.62[258, 148, 104, 254, 260, 83, 84, 240]
38.635[257, 145, 104, 215, 236, 83, 87, 240]
38.652[233, 137, 103, 217, 250, 82, 90, 227]
38.673[184, 100, 81, 217, 236, 68, 70, 178]
38.695[176, 94, 85, 201, 191, 63, 79, 206]
38.712[178, 87, 83, 180, 217, 64, 77, 199]
38.733[196, 97, 92, 189, 230, 69, 84, 225]
38.755[207, 106, 93, 185, 245, 68, 81, 231]
38.772[203, 104, 94, 215, 265, 73, 82, 229]
38.794[179, 100, 98, 250, 280, 72, 67, 184]
38.815[167, 113, 109, 274, 243, 67, 75, 188]
38.832[156, 104, 98, 263, 276, 63, 69, 175]
38.853[153, 96, 97, 296, 266, 67, 74, 181]
38.875[150, 89, 91, 276, 259, 68, 76, 190]
38.899[151, 88, 80, 266, 259, 72, 80, 207]
38.913[180, 93, 72, 253, 306, 71, 76, 222]
38.935[178, 100, 81, 272, 275, 70, 78, 231]
38.952[223, 118, 101, 263, 266, 68, 75, 221]
38.973[231, 120, 103, 267, 285, 67, 78, 233]
38.995[251, 122, 104, 257, 277, 60, 78, 248]
39.018[247, 112, 109, 283, 261, 65, 80, 252]
39.033[245, 105, 105, 291, 268, 64, 74, 229]
39.055[199, 85, 85, 277, 279, 59, 71, 230]
39.072[192, 95, 106, 276, 287, 56, 61, 228]
39.093[169, 98, 114, 288, 293, 62, 60, 199]
39.115[165, 98, 113, 266, 263, 57, 53, 170]
39.132[152, 99, 117, 244, 247, 62, 52, 180]
39.153[170, 114, 120, 238, 242, 62, 56, 183]
39.177[186, 114, 107, 249, 233, 62, 64, 184]
39.198[224, 121, 104, 251, 233, 57, 78, 239]
39.213[231, 129, 110, 260, 240, 59, 85, 269]
39.235[232, 127, 101, 254, 254, 56, 84, 265]
39.258[241, 122, 107, 259, 242, 58, 89, 288]
39.273[220, 117, 117, 303, 250, 59, 83, 272]
39.303[176, 102, 115, 286, 249, 57, 67, 226]
39.318[162, 90, 102, 266, 253, 53, 59, 188]
39.333[172, 98, 113, 276, 259, 60, 74, 204]
39.355[145, 78, 99, 275, 305, 61, 64, 159]
39.378[164, 91, 90, 210, 289, 66, 68, 202]
39.393[178, 99, 96, 227, 295, 76, 68, 206]
39.415[187, 97, 94, 234, 309, 79, 67, 204]
39.438[175, 94, 98, 258, 313, 71, 51, 193]
39.453[182, 115, 106, 322, 274, 71, 55, 205]
39.475[186, 121, 100, 311, 273, 65, 62, 186]
39.498[199, 131, 96, 325, 258, 65, 70, 206]
39.513[180, 129, 99, 322, 229, 60, 67, 197]
39.535[214, 140, 94, 315, 208, 62, 78, 223]
39.558[207, 133, 88, 305, 247, 67, 87, 245]
39.573[199, 121, 96, 323, 253, 69, 85, 231]
39.595[190, 111, 92, 310, 252, 60, 81, 221]
39.618[196, 111, 91, 317, 263, 60, 86, 249]
39.633[184, 98, 94, 308, 291, 68, 88, 224]
39.657[175, 84, 91, 253, 248, 66, 78, 187]
39.678[163, 75, 87, 277, 229, 66, 72, 177]
39.693[152, 63, 87, 288, 233, 66, 68, 165]
39.715[155, 71, 99, 294, 226, 78, 68, 135]
39.738[134, 62, 89, 296, 190, 70, 53, 127]
39.753[142, 72, 110, 335, 276, 73, 53, 136]
39.775[142, 81, 112, 306, 286, 68, 54, 141]
39.798[145, 81, 105, 281, 286, 68, 56, 134]
39.813[152, 73, 97, 266, 296, 60, 50, 137]
39.836[144, 77, 102, 265, 304, 62, 50, 140]
39.858[146, 68, 82, 229, 249, 55, 45, 152]
39.873[158, 61, 78, 229, 246, 59, 44, 158]
39.895[152, 59, 78, 220, 245, 58, 48, 179]
39.918[133, 56, 70, 231, 232, 68, 63, 211]
39.934[153, 54, 70, 233, 235, 68, 68, 228]
39.955[142, 55, 71, 201, 218, 70, 68, 213]
39.978[132, 56, 64, 246, 249, 71, 72, 216]
39.993[130, 55, 64, 251, 236, 71, 71, 205]
40.015[136, 66, 85, 309, 254, 57, 58, 163]
40.038[175, 78, 84, 303, 235, 70, 60, 140]
40.053[179, 78, 82, 304, 235, 72, 60, 137]
40.075[175, 81, 93, 271, 175, 68, 58, 137]
40.098[170, 80, 96, 274, 185, 67, 54, 130]
40.12[174, 72, 77, 182, 138, 68, 59, 164]
40.135[108, 55, 69, 158, 128, 53, 52, 159]
40.158[99, 53, 70, 173, 127, 45, 54, 162]
40.181[95, 50, 60, 180, 128, 42, 48, 148]
40.196[97, 50, 56, 168, 109, 41, 51, 157]
40.218[80, 47, 54, 165, 108, 38, 51, 128]
40.24[94, 54, 55, 173, 109, 50, 54, 132]
40.255[90, 52, 52, 149, 92, 51, 50, 124]
40.286[85, 45, 43, 112, 94, 50, 49, 113]
40.3[81, 43, 41, 108, 87, 49, 44, 90]
40.315[69, 42, 46, 115, 85, 45, 32, 59]
40.338[38, 29, 38, 89, 70, 30, 23, 31]
40.36[29, 29, 36, 82, 61, 27, 22, 27]
40.375[29, 27, 38, 81, 52, 28, 22, 26]
40.398[35, 37, 54, 102, 54, 31, 24, 25]
40.421[44, 44, 57, 101, 80, 41, 30, 28]
40.435[44, 45, 58, 103, 82, 43, 30, 25]
40.458[47, 47, 60, 103, 87, 46, 33, 27]
40.488[49, 51, 61, 101, 87, 48, 36, 28]
40.495[45, 45, 49, 83, 90, 49, 34, 28]
40.518[38, 37, 42, 64, 74, 44, 31, 25]
40.541[37, 35, 43, 57, 72, 43, 31, 25]
40.555[37, 36, 42, 55, 72, 42, 28, 25]
40.578[33, 31, 37, 52, 73, 43, 24, 23]
40.6[32, 29, 34, 45, 67, 39, 25, 23]
40.615[36, 36, 35, 42, 61, 37, 23, 26]
40.638[38, 37, 33, 43, 59, 36, 23, 28]
40.66[38, 35, 35, 43, 56, 34, 23, 29]
40.675[37, 35, 36, 43, 49, 30, 22, 29]
40.698[37, 35, 36, 38, 48, 30, 20, 28]
40.721[33, 29, 35, 42, 48, 29, 20, 24]
40.735[32, 28, 33, 42, 49, 30, 19, 22]
40.766[30, 26, 31, 37, 42, 27, 19, 19]
40.78[32, 25, 27, 35, 36, 26, 22, 38]
40.795[33, 26, 27, 35, 35, 27, 23, 51]
40.818[28, 23, 25, 25, 29, 24, 27, 58]
40.84[31, 25, 25, 24, 26, 23, 29, 64]
40.855[32, 24, 23, 24, 32, 24, 30, 65]
40.878[29, 24, 24, 23, 33, 24, 29, 57]
40.901[29, 24, 24, 24, 33, 22, 29, 48]
40.915[30, 24, 22, 25, 32, 19, 25, 39]
40.938[28, 25, 21, 25, 33, 20, 22, 30]
40.96[27, 24, 20, 23, 28, 19, 19, 28]
40.975[29, 25, 20, 26, 28, 19, 19, 25]
40.998[29, 23, 21, 24, 28, 18, 19, 20]
41.02[29, 25, 21, 24, 28, 19, 19, 18]
41.037[27, 22, 24, 25, 28, 19, 20, 17]
41.058[26, 24, 24, 26, 27, 19, 22, 16]
41.08[31, 23, 27, 25, 27, 17, 23, 17]
41.104[29, 23, 25, 26, 25, 19, 22, 18]
41.118[27, 22, 26, 25, 27, 21, 23, 20]
41.141[26, 24, 26, 24, 26, 20, 23, 18]
41.164[30, 25, 28, 27, 28, 21, 21, 20]
41.178[24, 24, 24, 25, 28, 23, 19, 20]
41.201[27, 25, 24, 24, 29, 21, 20, 20]
41.223[27, 26, 23, 26, 28, 21, 20, 19]
41.238[29, 27, 21, 27, 28, 21, 19, 20]
41.261[26, 24, 22, 23, 25, 20, 18, 19]
41.283[26, 24, 23, 24, 23, 20, 19, 19]
41.298[22, 25, 22, 25, 23, 20, 19, 19]
41.321[23, 25, 25, 23, 23, 16, 19, 19]
41.343[24, 22, 25, 22, 22, 17, 19, 19]
41.358[25, 22, 23, 22, 22, 18, 20, 19]
41.381[24, 22, 23, 22, 24, 19, 19, 17]
41.403[25, 20, 23, 22, 23, 20, 19, 18]
41.418[25, 19, 21, 22, 21, 21, 20, 18]
41.441[24, 21, 20, 23, 22, 20, 22, 16]
41.463[22, 20, 19, 23, 23, 21, 22, 16]
41.478[22, 22, 19, 22, 26, 22, 23, 16]
41.501[21, 23, 21, 22, 26, 21, 23, 15]
41.523[21, 23, 21, 23, 26, 21, 21, 16]
41.538[19, 21, 21, 21, 25, 23, 19, 17]
41.561[19, 23, 22, 22, 26, 22, 18, 18]
41.583[20, 23, 23, 22, 21, 22, 20, 19]
41.599[19, 22, 22, 20, 22, 23, 19, 18]
41.621[20, 20, 21, 21, 23, 22, 20, 18]
41.644[23, 20, 21, 21, 22, 23, 19, 20]
41.658[23, 19, 20, 20, 21, 24, 20, 18]
41.689[23, 18, 17, 19, 22, 23, 18, 17]
41.703[24, 20, 17, 21, 21, 23, 19, 19]
41.718[25, 20, 19, 21, 21, 24, 19, 19]
41.741[22, 20, 19, 20, 21, 21, 20, 18]
41.763[21, 21, 19, 21, 21, 19, 20, 18]
41.778[22, 21, 20, 21, 21, 19, 20, 18]
41.801[22, 19, 20, 20, 20, 17, 20, 18]
41.824[22, 20, 19, 18, 20, 18, 21, 19]
41.838[22, 19, 18, 21, 21, 19, 21, 19]
41.861[24, 18, 21, 21, 22, 22, 20, 20]
41.883[23, 20, 20, 21, 24, 21, 20, 20]
41.898[23, 19, 21, 23, 25, 23, 20, 18]
41.921[20, 19, 22, 26, 26, 21, 20, 17]
41.943[23, 21, 23, 25, 26, 21, 19, 17]
41.957[21, 22, 22, 24, 25, 20, 20, 17]
41.981[20, 22, 21, 23, 23, 18, 19, 17]
42.003[19, 23, 21, 23, 24, 18, 20, 18]
42.026[21, 23, 24, 21, 23, 19, 20, 18]
42.041[20, 24, 23, 23, 23, 21, 20, 18]
42.064[20, 24, 22, 24, 23, 20, 20, 17]
42.086[21, 21, 25, 24, 24, 20, 20, 17]
42.101[21, 22, 25, 23, 23, 20, 21, 17]
42.123[21, 23, 22, 24, 23, 19, 22, 17]
42.146[22, 21, 24, 22, 21, 16, 22, 18]
42.161[22, 20, 22, 23, 22, 21, 21, 19]
42.184[22, 23, 20, 23, 21, 20, 21, 18]
42.206[23, 22, 21, 22, 22, 22, 19, 17]
42.229[21, 21, 21, 22, 22, 24, 17, 18]
42.243[20, 21, 20, 21, 22, 25, 18, 18]
42.266[19, 20, 19, 19, 21, 23, 18, 18]
42.281[19, 17, 19, 22, 21, 24, 18, 19]
42.311[19, 17, 18, 23, 20, 22, 18, 19]
42.325[20, 18, 18, 21, 22, 20, 17, 19]
42.341[17, 18, 18, 22, 24, 18, 19, 20]
42.363[16, 19, 20, 23, 22, 17, 19, 18]
42.386[16, 20, 20, 21, 23, 18, 20, 21]
42.401[17, 20, 19, 20, 22, 18, 19, 20]
42.423[18, 18, 21, 21, 23, 20, 21, 21]
42.446[20, 20, 22, 21, 23, 20, 18, 19]
42.461[21, 21, 22, 22, 24, 22, 18, 21]
42.483[21, 20, 22, 24, 24, 21, 17, 19]
42.514[21, 20, 23, 25, 26, 22, 19, 19]
42.522[21, 20, 22, 24, 24, 22, 19, 18]
42.544[20, 19, 26, 24, 23, 21, 20, 19]
42.574[20, 17, 25, 24, 23, 21, 20, 18]
42.58[20, 18, 25, 24, 23, 20, 19, 18]
42.603[20, 19, 25, 22, 21, 20, 20, 19]
42.626[18, 21, 24, 22, 21, 18, 19, 19]
42.64[21, 21, 17, 22, 21, 20, 19, 18]
42.663[21, 22, 18, 21, 19, 18, 20, 18]
42.686[21, 21, 18, 21, 18, 20, 20, 18]
42.701[22, 20, 18, 21, 22, 21, 20, 18]
42.724[21, 18, 21, 21, 22, 21, 20, 17]
42.746[20, 18, 21, 19, 21, 22, 21, 20]
42.76[23, 18, 22, 20, 23, 22, 20, 19]
42.783[23, 19, 22, 19, 26, 20, 20, 19]
42.807[23, 20, 23, 20, 22, 20, 19, 18]
42.82[23, 21, 22, 22, 23, 19, 20, 19]
42.843[24, 21, 22, 22, 23, 18, 18, 18]
42.866[19, 22, 21, 22, 21, 19, 18, 18]
42.88[19, 22, 22, 22, 19, 19, 18, 18]
42.903[20, 24, 22, 23, 20, 19, 19, 19]
42.927[22, 23, 20, 22, 19, 19, 17, 18]
42.94[21, 23, 20, 22, 20, 21, 19, 19]
42.963[22, 22, 21, 23, 22, 20, 19, 19]
42.986[23, 23, 22, 23, 21, 22, 18, 19]
43.009[22, 20, 21, 22, 23, 23, 17, 18]
43.023[24, 19, 23, 24, 24, 24, 18, 23]
43.046[24, 19, 24, 23, 27, 22, 18, 20]
43.068[25, 19, 22, 22, 28, 21, 19, 21]
43.083[24, 18, 21, 22, 30, 20, 19, 20]
43.106[24, 20, 22, 22, 28, 20, 19, 20]
43.129[20, 23, 20, 19, 27, 19, 18, 16]
43.143[20, 22, 19, 21, 23, 18, 20, 17]
43.166[20, 23, 21, 24, 21, 19, 19, 16]
43.188[19, 23, 21, 22, 20, 20, 20, 18]
43.21[20, 21, 21, 23, 18, 19, 20, 20]
43.225[22, 20, 20, 25, 18, 18, 22, 18]
43.248[22, 21, 20, 24, 19, 19, 19, 18]
43.264[21, 19, 20, 25, 19, 19, 20, 19]
43.285[23, 18, 20, 23, 18, 19, 20, 20]
43.308[22, 18, 21, 24, 18, 21, 22, 18]
43.324[21, 18, 21, 22, 19, 22, 21, 19]
43.345[21, 17, 21, 21, 20, 21, 20, 21]
43.368[20, 17, 21, 17, 20, 20, 20, 21]
43.384[19, 18, 21, 19, 22, 19, 19, 22]
43.405[21, 19, 19, 17, 24, 19, 18, 21]
43.428[22, 18, 19, 17, 24, 17, 19, 22]
43.444[21, 20, 18, 22, 23, 17, 19, 22]
43.465[21, 21, 17, 23, 27, 19, 19, 22]
43.488[24, 20, 17, 23, 25, 20, 20, 21]
43.505[22, 20, 19, 24, 24, 22, 20, 21]
43.525[21, 20, 20, 26, 23, 23, 20, 22]
43.548[20, 19, 20, 24, 23, 23, 22, 21]
43.564[22, 18, 22, 24, 22, 23, 23, 21]
43.585[18, 18, 21, 24, 21, 22, 22, 18]
43.607[20, 18, 20, 24, 22, 21, 21, 19]
43.624[20, 21, 20, 24, 23, 21, 21, 17]
43.645[21, 20, 20, 21, 22, 21, 19, 17]
43.668[21, 22, 18, 20, 21, 18, 15, 18]
43.684[22, 23, 21, 22, 21, 18, 17, 18]
43.705[21, 22, 21, 22, 23, 20, 20, 19]
43.744[21, 22, 20, 20, 22, 18, 19, 18]
43.746[23, 22, 21, 22, 23, 19, 18, 18]
43.765[22, 23, 23, 24, 22, 20, 20, 19]
43.787[21, 23, 21, 22, 25, 20, 19, 19]
43.804[21, 24, 21, 23, 23, 17, 17, 18]
43.825[22, 23, 21, 24, 24, 17, 18, 19]
43.848[19, 24, 21, 22, 24, 18, 20, 20]
43.864[21, 22, 19, 20, 25, 17, 21, 18]
43.885[20, 23, 21, 19, 22, 17, 20, 18]
43.908[25, 23, 21, 20, 24, 19, 20, 18]
43.93[23, 21, 21, 19, 23, 19, 20, 17]
43.946[24, 22, 21, 19, 23, 17, 21, 17]
43.968[23, 22, 22, 20, 23, 19, 19, 17]
43.99[24, 22, 20, 22, 24, 19, 21, 17]
44.005[21, 22, 20, 21, 21, 18, 23, 17]
44.028[22, 22, 20, 21, 23, 18, 22, 18]
44.05[22, 22, 21, 20, 23, 20, 21, 17]
44.066[21, 22, 20, 20, 22, 19, 22, 18]
44.088[23, 23, 21, 20, 22, 19, 20, 19]
44.11[21, 22, 20, 19, 22, 18, 19, 19]
44.125[20, 22, 20, 18, 21, 18, 19, 19]
44.148[21, 23, 19, 19, 20, 18, 20, 20]
44.17[22, 22, 19, 18, 22, 18, 22, 19]
44.185[22, 21, 18, 18, 21, 20, 23, 21]
44.208[24, 21, 19, 19, 23, 21, 24, 21]
44.23[23, 20, 19, 23, 22, 21, 25, 20]
44.246[22, 18, 18, 22, 22, 21, 25, 20]
44.268[22, 19, 19, 22, 21, 21, 23, 20]
44.29[22, 19, 23, 22, 24, 19, 23, 19]
44.305[20, 21, 22, 21, 23, 20, 22, 18]
44.328[23, 23, 24, 18, 23, 21, 21, 18]
44.35[23, 24, 25, 20, 23, 19, 19, 19]
44.373[22, 24, 25, 21, 24, 21, 20, 19]
44.388[20, 25, 22, 20, 20, 21, 18, 19]
44.41[22, 24, 21, 23, 22, 20, 20, 19]
44.425[19, 22, 20, 25, 20, 22, 20, 19]
44.447[20, 24, 20, 24, 22, 22, 20, 19]
44.47[20, 23, 20, 25, 22, 22, 21, 21]
44.485[21, 21, 19, 25, 22, 20, 20, 21]
44.515[21, 20, 20, 24, 20, 20, 19, 24]
44.53[22, 20, 19, 23, 21, 19, 20, 24]
44.545[22, 18, 19, 23, 20, 18, 21, 23]
44.569[24, 19, 18, 21, 20, 17, 19, 22]
44.59[26, 19, 20, 21, 22, 18, 20, 21]
44.605[25, 19, 20, 21, 22, 18, 19, 18]
44.628[24, 19, 22, 20, 23, 17, 20, 19]
44.65[23, 17, 22, 20, 21, 18, 19, 19]
44.665[22, 17, 22, 21, 23, 20, 20, 18]
44.688[21, 19, 20, 24, 22, 20, 21, 18]
44.71[19, 19, 21, 22, 22, 22, 20, 20]
44.727[21, 20, 21, 23, 21, 22, 19, 19]
44.748[22, 21, 22, 23, 22, 21, 18, 18]
44.77[20, 21, 22, 22, 19, 21, 18, 20]
44.786[19, 20, 24, 21, 19, 21, 16, 20]
44.808[19, 19, 24, 25, 18, 19, 16, 20]
44.83[21, 21, 23, 30, 18, 18, 17, 21]
44.853[21, 21, 20, 31, 18, 20, 18, 21]
44.868[21, 22, 22, 31, 18, 19, 18, 20]
44.89[23, 20, 20, 30, 20, 19, 20, 20]
44.912[24, 23, 21, 27, 20, 19, 20, 19]
44.929[22, 21, 22, 22, 20, 21, 20, 19]
44.95[22, 22, 23, 20, 21, 20, 21, 20]
44.973[22, 23, 21, 19, 22, 23, 21, 21]
44.988[20, 22, 21, 18, 20, 23, 19, 21]
45.01[20, 20, 20, 18, 22, 22, 19, 21]
45.032[21, 20, 18, 16, 21, 23, 20, 20]
45.048[23, 19, 17, 16, 21, 22, 18, 18]
45.07[23, 18, 18, 18, 20, 21, 18, 18]
45.093[21, 18, 19, 18, 22, 20, 18, 16]
45.108[22, 18, 19, 20, 21, 21, 20, 18]
45.13[19, 18, 22, 20, 22, 20, 20, 17]
45.153[16, 18, 22, 20, 21, 19, 20, 20]
45.168[16, 18, 22, 19, 22, 18, 21, 19]
45.19[15, 18, 22, 19, 21, 19, 21, 19]
45.213[17, 19, 23, 19, 21, 19, 19, 18]
45.227[17, 19, 20, 21, 21, 18, 18, 18]
45.25[19, 19, 21, 20, 20, 19, 17, 17]
45.273[19, 20, 21, 19, 20, 18, 15, 18]
45.287[19, 20, 20, 21, 18, 18, 16, 18]
45.31[19, 20, 20, 18, 19, 18, 17, 18]
45.333[20, 20, 21, 17, 19, 17, 18, 20]
45.348[18, 20, 20, 18, 20, 17, 20, 20]
45.37[20, 20, 19, 19, 21, 17, 21, 21]
45.393[20, 21, 19, 21, 21, 16, 19, 21]
45.407[18, 20, 20, 21, 21, 17, 20, 22]
45.43[17, 21, 21, 21, 21, 16, 21, 22]
45.453[18, 20, 21, 25, 20, 17, 19, 21]
45.476[17, 19, 21, 36, 18, 18, 20, 20]
45.49[19, 18, 22, 42, 22, 19, 20, 21]
45.513[22, 18, 21, 43, 22, 18, 19, 20]
45.527[23, 18, 22, 44, 22, 20, 20, 18]
45.55[24, 22, 21, 42, 23, 20, 19, 19]
45.573[24, 21, 22, 34, 24, 19, 21, 19]
45.588[23, 24, 22, 23, 22, 18, 20, 18]
45.61[21, 25, 23, 22, 21, 18, 19, 17]
45.633[21, 27, 22, 22, 20, 18, 18, 19]
45.647[19, 25, 24, 22, 20, 17, 18, 18]
45.67[19, 27, 23, 20, 22, 18, 17, 18]
45.693[21, 25, 23, 21, 20, 19, 18, 18]
45.707[21, 25, 22, 20, 19, 18, 18, 18]
45.73[22, 22, 22, 18, 19, 18, 16, 17]
45.753[23, 23, 20, 17, 19, 19, 17, 19]
45.768[23, 21, 20, 18, 21, 19, 17, 19]
45.79[23, 23, 20, 19, 21, 18, 20, 20]
45.813[23, 23, 22, 19, 23, 19, 21, 20]
45.836[22, 23, 22, 21, 23, 19, 22, 23]
45.85[23, 23, 22, 21, 22, 19, 22, 22]
45.873[23, 21, 23, 22, 19, 19, 21, 22]
45.897[21, 20, 22, 21, 19, 19, 20, 30]
45.91[21, 19, 21, 23, 20, 19, 26, 53]
45.932[25, 18, 20, 23, 20, 19, 28, 62]
45.956[24, 20, 20, 23, 22, 20, 27, 66]
45.97[24, 20, 21, 21, 23, 21, 29, 68]
45.993[25, 20, 22, 20, 24, 21, 28, 66]
46.023[24, 20, 21, 20, 23, 19, 23, 51]
46.03[20, 21, 21, 19, 22, 20, 20, 38]
46.053[20, 20, 23, 21, 23, 20, 21, 29]
46.076[19, 21, 22, 21, 22, 18, 18, 25]
46.09[17, 20, 22, 22, 21, 21, 18, 24]
46.113[19, 20, 23, 21, 20, 22, 18, 23]
46.136[19, 20, 22, 21, 21, 23, 19, 24]
46.158[19, 20, 22, 18, 18, 22, 20, 25]
46.172[19, 19, 21, 17, 17, 23, 21, 25]
46.196[21, 20, 22, 17, 17, 20, 21, 20]
46.21[18, 20, 20, 19, 17, 20, 21, 21]
46.234[20, 18, 21, 21, 21, 20, 21, 20]
46.256[20, 20, 19, 21, 21, 20, 19, 21]
46.278[20, 19, 19, 21, 21, 18, 18, 20]
46.293[19, 19, 20, 22, 24, 18, 18, 22]
46.316[19, 21, 20, 20, 24, 17, 18, 19]
46.33[17, 22, 20, 17, 21, 16, 17, 21]
46.353[18, 21, 21, 18, 23, 16, 17, 20]
46.376[17, 22, 21, 20, 22, 17, 16, 20]
46.39[20, 21, 18, 20, 21, 17, 16, 20]
46.413[21, 20, 18, 18, 21, 17, 15, 20]
46.443[21, 19, 19, 19, 21, 17, 17, 20]
46.45[20, 21, 21, 20, 21, 15, 18, 22]
46.473[20, 21, 22, 18, 21, 15, 18, 22]
46.496[18, 20, 23, 18, 20, 16, 16, 21]
46.51[17, 20, 23, 19, 20, 17, 19, 21]
46.532[17, 20, 23, 21, 21, 19, 18, 21]
46.557[19, 20, 21, 21, 21, 20, 16, 19]
46.57[19, 20, 17, 21, 22, 20, 17, 19]
46.593[20, 19, 20, 23, 22, 20, 20, 19]
46.618[20, 21, 20, 23, 20, 19, 18, 18]
46.63[20, 21, 18, 20, 21, 19, 20, 17]
46.653[20, 21, 18, 21, 22, 17, 21, 16]
46.676[20, 20, 22, 22, 20, 17, 21, 15]
46.69[20, 22, 21, 21, 21, 17, 19, 14]
46.713[19, 20, 21, 21, 21, 17, 19, 15]
46.736[19, 21, 22, 21, 22, 20, 18, 14]
46.758[19, 18, 22, 20, 20, 20, 18, 15]
46.773[20, 20, 21, 18, 21, 21, 18, 15]
46.796[19, 18, 20, 18, 22, 22, 20, 17]
46.818[20, 21, 22, 18, 23, 22, 19, 16]
46.833[22, 21, 22, 19, 21, 19, 19, 17]
46.856[22, 22, 22, 19, 22, 18, 18, 17]
46.878[22, 20, 21, 21, 22, 18, 21, 17]
46.893[25, 20, 23, 22, 20, 16, 19, 17]
46.916[25, 18, 22, 22, 20, 17, 19, 18]
46.938[24, 21, 23, 23, 20, 18, 20, 18]
46.953[23, 21, 23, 23, 19, 19, 20, 18]
46.976[24, 21, 21, 22, 19, 20, 19, 19]
46.998[20, 21, 20, 23, 19, 20, 20, 18]
47.013[20, 21, 19, 22, 19, 20, 21, 18]
47.036[19, 17, 18, 20, 20, 20, 22, 17]
47.058[19, 20, 21, 21, 22, 19, 22, 18]
47.073[17, 21, 21, 23, 23, 19, 21, 17]
47.096[17, 25, 23, 21, 23, 19, 19, 18]
47.118[18, 25, 24, 23, 24, 18, 18, 17]
47.133[18, 26, 24, 23, 23, 17, 16, 20]
47.156[18, 26, 22, 23, 21, 17, 17, 19]
47.178[19, 26, 22, 20, 20, 15, 16, 19]
47.194[19, 21, 19, 20, 19, 15, 17, 20]
47.216[19, 22, 22, 19, 19, 19, 17, 20]
47.238[18, 24, 22, 18, 19, 18, 17, 17]
47.253[19, 22, 23, 20, 21, 18, 17, 17]
47.276[18, 22, 24, 20, 21, 20, 21, 19]
47.298[20, 24, 23, 21, 21, 21, 23, 19]
47.313[20, 23, 21, 21, 20, 20, 23, 19]
47.336[20, 21, 21, 21, 21, 21, 23, 20]
47.358[20, 21, 20, 20, 18, 21, 25, 19]
47.373[20, 21, 19, 20, 18, 20, 23, 19]
47.396[18, 20, 20, 20, 18, 21, 20, 19]
47.419[18, 21, 19, 20, 21, 21, 20, 20]
47.433[18, 20, 20, 22, 23, 20, 21, 20]
47.456[16, 19, 20, 22, 24, 21, 18, 19]
47.478[18, 18, 20, 22, 24, 20, 18, 21]
47.493[18, 19, 18, 22, 25, 19, 18, 22]
47.516[19, 20, 19, 22, 24, 20, 18, 21]
47.538[20, 21, 21, 21, 21, 19, 18, 22]
47.553[21, 22, 20, 23, 22, 17, 18, 23]
47.576[19, 23, 22, 24, 23, 19, 19, 21]
47.598[18, 21, 23, 25, 21, 18, 18, 20]
47.613[19, 20, 23, 25, 23, 17, 16, 20]
47.636[20, 19, 22, 24, 25, 19, 17, 21]
47.659[21, 19, 23, 23, 24, 18, 16, 19]
47.673[22, 19, 23, 22, 24, 17, 15, 21]
47.696[22, 19, 24, 20, 25, 19, 18, 20]
47.718[20, 19, 23, 20, 23, 20, 19, 20]
47.741[22, 21, 23, 21, 22, 21, 18, 20]
47.756[20, 21, 21, 21, 23, 21, 18, 20]
47.779[19, 19, 19, 20, 22, 21, 19, 19]
47.801[20, 21, 19, 21, 23, 21, 19, 20]
47.816[21, 21, 20, 22, 24, 21, 18, 20]
47.838[20, 19, 21, 21, 24, 19, 19, 18]
47.861[20, 21, 21, 20, 25, 19, 18, 18]
47.876[22, 22, 22, 20, 24, 20, 18, 17]
47.906[20, 21, 23, 19, 22, 19, 17, 16]
47.921[20, 21, 22, 17, 21, 18, 17, 15]
47.936[20, 22, 23, 19, 21, 18, 16, 17]
47.958[20, 21, 23, 20, 19, 18, 16, 17]
47.981[21, 22, 22, 18, 22, 19, 17, 20]
47.997[21, 23, 21, 20, 22, 19, 17, 20]
48.018[21, 22, 22, 20, 22, 18, 17, 21]
48.04[22, 22, 20, 18, 22, 19, 20, 20]
48.056[21, 21, 21, 17, 21, 20, 21, 21]
48.079[18, 19, 20, 18, 20, 18, 21, 19]
48.109[19, 19, 20, 19, 20, 17, 21, 20]
48.116[19, 19, 19, 19, 21, 19, 21, 19]
48.138[19, 19, 20, 19, 21, 19, 19, 19]
48.161[18, 20, 19, 21, 20, 19, 18, 19]
48.176[20, 22, 20, 22, 21, 20, 18, 20]
48.199[21, 22, 21, 20, 21, 24, 17, 19]
48.22[20, 21, 21, 22, 22, 23, 17, 21]
48.237[19, 21, 20, 23, 22, 22, 16, 23]
48.259[19, 22, 19, 21, 23, 22, 17, 22]
48.28[18, 21, 19, 20, 22, 22, 17, 24]
48.297[16, 20, 18, 22, 23, 21, 19, 24]
48.319[16, 22, 17, 20, 23, 21, 20, 23]
48.347[16, 21, 17, 21, 21, 22, 22, 22]
48.357[18, 21, 18, 21, 21, 21, 21, 22]
48.379[19, 21, 19, 20, 21, 21, 23, 19]
48.401[18, 21, 18, 18, 22, 20, 22, 18]
48.423[17, 21, 18, 18, 22, 22, 21, 18]
48.439[19, 22, 19, 17, 23, 22, 22, 19]
48.46[19, 23, 19, 17, 23, 22, 22, 20]
48.476[19, 23, 18, 19, 23, 21, 20, 21]
48.499[20, 24, 19, 21, 22, 20, 20, 22]
48.527[21, 23, 19, 22, 23, 19, 21, 21]
48.542[20, 21, 19, 21, 22, 19, 20, 21]
48.559[19, 19, 17, 23, 22, 19, 19, 23]
48.58[19, 19, 18, 23, 22, 21, 21, 22]
48.597[18, 19, 21, 20, 22, 20, 20, 22]
48.618[18, 20, 22, 22, 21, 20, 19, 22]
48.64[19, 20, 21, 22, 20, 20, 19, 21]
48.663[18, 20, 21, 19, 21, 19, 18, 19]
48.678[18, 22, 21, 20, 20, 20, 17, 18]
48.7[19, 23, 21, 19, 22, 20, 18, 17]
48.723[17, 24, 20, 18, 21, 22, 18, 18]
48.738[17, 25, 21, 17, 21, 22, 18, 19]
48.76[19, 25, 23, 18, 22, 22, 18, 17]
48.782[19, 25, 22, 17, 22, 20, 20, 17]
48.799[19, 23, 21, 17, 20, 19, 19, 18]
48.82[22, 21, 22, 18, 22, 17, 17, 18]
48.843[21, 20, 21, 20, 22, 19, 18, 16]
48.857[19, 21, 22, 21, 20, 19, 19, 18]
48.887[18, 21, 22, 22, 21, 20, 18, 17]
48.902[18, 22, 22, 22, 21, 20, 17, 17]
48.917[17, 22, 22, 21, 19, 19, 19, 18]
48.94[17, 24, 22, 20, 20, 17, 19, 20]
48.962[19, 22, 20, 18, 21, 19, 19, 19]
48.978[20, 23, 21, 19, 21, 18, 17, 20]
49.0[19, 21, 20, 20, 22, 18, 18, 19]
49.023[21, 22, 21, 20, 22, 19, 18, 17]
49.037[21, 20, 21, 21, 23, 20, 17, 18]
49.06[19, 20, 20, 21, 23, 21, 18, 18]
49.082[19, 19, 20, 20, 23, 21, 20, 19]
49.097[19, 19, 21, 20, 23, 23, 20, 19]
49.128[17, 17, 20, 21, 24, 23, 19, 20]
49.143[18, 17, 21, 21, 23, 23, 20, 18]
49.157[18, 19, 21, 23, 21, 22, 20, 19]
49.18[20, 19, 22, 23, 22, 21, 17, 18]
49.203[20, 20, 21, 21, 21, 21, 17, 19]
49.217[21, 21, 21, 21, 21, 21, 18, 20]
49.24[21, 21, 22, 20, 21, 21, 18, 21]
49.262[21, 19, 21, 18, 22, 24, 18, 21]
49.277[21, 19, 22, 19, 22, 24, 18, 21]
49.3[22, 19, 23, 20, 22, 23, 17, 21]
49.322[21, 19, 21, 20, 21, 22, 19, 22]
49.338[21, 20, 21, 21, 20, 21, 18, 22]
49.368[21, 22, 22, 22, 20, 18, 20, 21]
49.382[19, 22, 20, 22, 22, 18, 20, 22]
49.397[21, 22, 21, 21, 21, 19, 21, 22]
49.421[22, 22, 21, 22, 20, 20, 19, 21]
49.442[21, 22, 22, 21, 22, 22, 20, 19]
49.457[21, 21, 21, 20, 24, 21, 18, 19]
49.48[21, 22, 21, 19, 21, 21, 21, 19]
49.502[18, 22, 20, 20, 22, 23, 20, 20]
49.519[18, 22, 21, 20, 23, 20, 20, 19]
49.54[20, 19, 21, 21, 22, 19, 19, 19]
49.562[19, 20, 22, 20, 20, 18, 20, 20]
49.585[19, 21, 22, 22, 20, 18, 19, 20]
49.6[19, 20, 23, 22, 21, 17, 17, 20]
49.622[18, 21, 23, 20, 19, 18, 18, 18]
49.646[18, 22, 22, 19, 19, 19, 18, 18]
49.661[20, 21, 23, 19, 20, 21, 18, 19]
49.683[22, 20, 22, 17, 20, 20, 16, 20]
49.705[23, 21, 22, 18, 19, 20, 17, 19]
49.721[22, 20, 22, 16, 20, 21, 18, 21]
49.742[22, 20, 21, 19, 24, 21, 18, 21]
49.765[20, 21, 20, 19, 23, 19, 17, 22]
49.78[19, 19, 20, 21, 27, 19, 17, 19]
49.803[18, 19, 20, 21, 27, 19, 18, 21]
49.826[17, 20, 19, 22, 27, 18, 17, 21]
49.849[16, 21, 20, 22, 25, 18, 17, 22]
49.863[18, 22, 20, 23, 25, 19, 18, 20]
49.885[19, 22, 18, 23, 22, 18, 21, 22]
49.9[19, 23, 20, 22, 19, 19, 21, 21]
49.922[19, 23, 20, 22, 21, 19, 22, 21]
49.945[21, 22, 20, 22, 20, 19, 22, 21]
49.96[21, 23, 21, 21, 19, 18, 22, 21]
49.982[19, 26, 22, 20, 19, 18, 20, 18]
50.005[19, 26, 19, 20, 21, 17, 20, 19]
50.02[24, 26, 18, 20, 22, 15, 20, 20]
50.042[23, 26, 19, 19, 22, 17, 22, 19]
50.065[21, 24, 18, 19, 22, 17, 22, 17]
50.08[22, 22, 17, 21, 23, 18, 21, 19]
50.103[23, 21, 16, 21, 23, 17, 21, 19]
50.125[18, 19, 18, 21, 21, 20, 19, 19]
50.14[18, 19, 18, 20, 20, 20, 18, 20]
50.163[17, 20, 18, 20, 19, 20, 19, 20]
50.185[18, 21, 19, 19, 17, 21, 18, 20]
50.209[17, 20, 20, 18, 17, 22, 19, 20]
50.222[17, 20, 19, 20, 19, 21, 20, 21]
50.245[19, 21, 20, 20, 20, 19, 20, 22]
50.26[19, 21, 20, 20, 21, 20, 19, 22]
50.291[17, 20, 21, 19, 21, 20, 19, 21]
50.305[17, 21, 20, 20, 23, 19, 18, 20]
50.321[18, 20, 21, 20, 22, 20, 18, 19]
50.342[16, 19, 20, 22, 23, 20, 18, 17]
50.365[17, 18, 22, 22, 24, 19, 19, 18]
50.387[18, 18, 19, 22, 24, 20, 18, 18]
50.403[19, 20, 20, 22, 23, 19, 19, 18]
50.425[18, 19, 21, 21, 22, 18, 19, 19]
50.44[20, 21, 21, 20, 20, 18, 18, 19]
50.462[19, 21, 20, 20, 19, 17, 18, 19]
50.485[19, 24, 22, 20, 19, 16, 18, 20]
50.5[18, 21, 22, 22, 18, 17, 18, 19]
50.522[19, 22, 22, 22, 18, 17, 18, 18]
50.554[19, 21, 22, 23, 17, 17, 19, 18]
50.569[20, 23, 23, 23, 18, 18, 19, 19]
50.582