[14, 19, 18, 25, 18, 15, 17, 18]
0.48[14, 18, 17, 24, 17, 15, 18, 17]
0.504[14, 21, 16, 23, 17, 15, 17, 19]
0.527[15, 20, 17, 23, 17, 15, 17, 19]
0.541[16, 19, 17, 20, 18, 14, 19, 20]
0.564[16, 18, 17, 22, 16, 14, 19, 19]
0.587[17, 19, 19, 21, 17, 14, 18, 19]
0.603[18, 16, 18, 20, 17, 14, 20, 18]
0.629[19, 18, 21, 20, 21, 20, 27, 24]
0.647[21, 26, 27, 22, 25, 23, 26, 25]
0.661[22, 26, 27, 22, 26, 24, 26, 26]
0.684[22, 26, 26, 24, 27, 25, 26, 27]
0.707[21, 26, 27, 24, 28, 25, 25, 27]
0.721[21, 26, 24, 25, 27, 23, 20, 22]
0.744[19, 19, 18, 24, 25, 23, 20, 22]
0.767[19, 20, 18, 22, 26, 22, 20, 23]
0.781[21, 23, 17, 20, 25, 21, 22, 22]
0.804[21, 22, 18, 20, 25, 21, 23, 20]
0.827[20, 21, 18, 18, 22, 18, 22, 21]
0.841[20, 23, 19, 17, 20, 16, 26, 20]
0.864[19, 23, 19, 19, 20, 16, 25, 20]
0.887[19, 21, 20, 19, 19, 17, 23, 18]
0.901[21, 21, 19, 19, 18, 18, 23, 18]
0.924[20, 21, 22, 20, 17, 18, 22, 18]
0.947[19, 20, 21, 20, 18, 18, 18, 18]
0.962[20, 19, 20, 18, 16, 18, 18, 19]
0.984[21, 19, 19, 19, 15, 18, 19, 21]
1.007[18, 19, 19, 19, 14, 18, 22, 22]
1.021[20, 18, 15, 19, 16, 18, 21, 21]
1.045[21, 17, 16, 19, 18, 19, 21, 21]
1.074[20, 16, 16, 19, 20, 19, 22, 21]
1.081[18, 16, 18, 17, 22, 23, 21, 22]
1.104[20, 16, 19, 22, 24, 23, 21, 21]
1.127[17, 16, 19, 24, 24, 22, 20, 22]
1.141[17, 17, 20, 25, 23, 23, 20, 22]
1.164[17, 18, 20, 24, 23, 23, 20, 21]
1.187[19, 17, 18, 25, 21, 19, 21, 21]
1.2[18, 18, 17, 22, 19, 18, 19, 19]
1.223[17, 20, 18, 19, 18, 19, 21, 20]
1.246[18, 19, 20, 18, 19, 18, 22, 18]
1.26[19, 20, 20, 19, 17, 18, 22, 20]
1.284[19, 19, 19, 19, 17, 18, 22, 18]
1.306[21, 18, 21, 21, 18, 18, 21, 19]
1.329[22, 18, 20, 22, 19, 17, 21, 17]
1.344[21, 18, 18, 21, 18, 17, 22, 17]
1.366[20, 19, 18, 21, 20, 18, 21, 16]
1.388[19, 20, 18, 20, 22, 18, 20, 16]
1.411[17, 20, 18, 19, 22, 18, 21, 16]
1.425[18, 20, 18, 18, 22, 19, 20, 16]
1.448[18, 21, 19, 17, 22, 19, 19, 17]
1.471[18, 21, 19, 19, 21, 17, 19, 17]
1.485[20, 22, 20, 18, 19, 17, 20, 18]
1.509[20, 21, 20, 17, 19, 18, 20, 18]
1.532[19, 20, 21, 18, 20, 17, 21, 18]
1.546[19, 19, 21, 19, 20, 18, 21, 17]
1.568[20, 19, 20, 19, 20, 18, 21, 18]
1.591[18, 20, 19, 19, 21, 19, 21, 18]
1.613[19, 20, 20, 19, 21, 19, 21, 18]
1.629[19, 20, 21, 19, 20, 19, 21, 17]
1.65[18, 21, 19, 18, 20, 19, 21, 17]
1.673[17, 20, 20, 20, 20, 19, 22, 17]
1.69[19, 21, 19, 21, 20, 19, 21, 17]
1.71[18, 21, 17, 20, 19, 18, 20, 17]
1.733[19, 23, 18, 20, 19, 18, 19, 17]
1.749[20, 23, 19, 20, 21, 19, 19, 17]
1.77[21, 23, 20, 17, 21, 21, 19, 16]
1.793[21, 22, 20, 17, 21, 22, 19, 17]
1.809[21, 23, 22, 18, 21, 23, 19, 18]
1.83[19, 21, 20, 20, 21, 23, 19, 18]
1.854[19, 21, 20, 18, 22, 22, 17, 18]
1.869[19, 21, 19, 19, 20, 21, 16, 20]
1.89[17, 20, 19, 18, 19, 18, 17, 20]
1.913[17, 20, 18, 19, 20, 18, 18, 21]
1.929[16, 20, 19, 20, 20, 18, 17, 21]
1.95[17, 20, 20, 21, 18, 17, 17, 22]
1.973[17, 21, 20, 20, 19, 17, 20, 21]
1.989[18, 22, 22, 20, 18, 17, 19, 20]
2.01[18, 20, 21, 18, 19, 17, 18, 19]
2.033[19, 20, 20, 16, 19, 16, 19, 20]
2.049[19, 19, 20, 17, 21, 17, 19, 19]
2.07[17, 19, 20, 18, 21, 17, 17, 17]
2.093[19, 19, 18, 18, 21, 20, 17, 19]
2.109[19, 18, 20, 19, 20, 19, 19, 20]
2.13[20, 17, 20, 22, 23, 20, 19, 18]
2.153[20, 19, 20, 20, 20, 19, 21, 18]
2.169[20, 18, 20, 19, 22, 19, 21, 19]
2.19[19, 18, 20, 18, 24, 19, 21, 18]
2.213[20, 19, 18, 19, 24, 20, 21, 16]
2.229[20, 20, 21, 15, 22, 20, 21, 17]
2.25[20, 18, 20, 17, 22, 22, 19, 16]
2.273[21, 20, 21, 18, 21, 21, 18, 18]
2.289[20, 22, 20, 19, 21, 19, 18, 18]
2.31[19, 21, 22, 18, 19, 19, 16, 18]
2.334[18, 20, 22, 20, 20, 17, 18, 20]
2.348[18, 21, 22, 20, 21, 16, 19, 20]
2.372[21, 20, 22, 22, 21, 17, 19, 19]
2.393[21, 18, 23, 20, 20, 17, 20, 19]
2.408[22, 18, 22, 20, 22, 17, 21, 19]
2.43[24, 19, 21, 20, 20, 17, 18, 18]
2.453[24, 19, 21, 20, 21, 17, 18, 17]
2.469[21, 18, 20, 18, 21, 18, 19, 18]
2.49[20, 18, 18, 20, 23, 18, 17, 19]
2.513[18, 20, 20, 20, 22, 18, 17, 20]
2.528[18, 20, 21, 20, 23, 17, 17, 19]
2.551[18, 20, 22, 19, 21, 18, 16, 20]
2.573[20, 22, 22, 18, 22, 16, 17, 18]
2.588[21, 21, 23, 16, 22, 17, 16, 17]
2.611[22, 21, 21, 17, 20, 18, 17, 17]
2.633[20, 21, 20, 18, 21, 19, 18, 17]
2.648[20, 22, 19, 20, 22, 20, 18, 19]
2.67[18, 21, 19, 21, 20, 20, 18, 19]
2.693[19, 22, 19, 20, 20, 19, 19, 18]
2.708[18, 21, 21, 20, 20, 19, 19, 18]
2.73[17, 22, 21, 19, 19, 20, 19, 17]
2.753[18, 20, 20, 17, 19, 18, 18, 13]
2.775[19, 22, 22, 18, 19, 20, 20, 15]
2.79[20, 23, 21, 18, 18, 19, 20, 16]
2.813[20, 23, 20, 19, 19, 17, 19, 16]
2.835[21, 21, 19, 20, 19, 16, 20, 19]
2.85[22, 22, 20, 20, 19, 16, 21, 20]
2.873[21, 22, 19, 20, 19, 16, 18, 19]
2.895[20, 23, 20, 20, 20, 18, 18, 19]
2.91[20, 23, 19, 19, 19, 18, 18, 18]
2.933[19, 24, 21, 20, 20, 19, 17, 17]
2.955[18, 25, 20, 19, 18, 20, 18, 17]
2.97[18, 24, 21, 19, 19, 20, 19, 17]
2.993[18, 23, 21, 19, 17, 19, 19, 18]
3.015[17, 22, 22, 19, 19, 19, 19, 19]
3.03[17, 21, 22, 18, 18, 17, 20, 20]
3.053[17, 20, 23, 18, 20, 16, 20, 20]
3.075[21, 20, 23, 19, 21, 17, 20, 21]
3.09[20, 19, 21, 19, 22, 18, 21, 20]
3.113[20, 19, 20, 20, 21, 17, 22, 21]
3.135[20, 19, 21, 20, 23, 19, 22, 19]
3.15[21, 19, 22, 20, 22, 19, 21, 19]
3.173[17, 18, 21, 19, 20, 17, 20, 18]
3.195[19, 18, 22, 19, 20, 17, 19, 17]
3.21[20, 18, 23, 20, 22, 19, 19, 17]
3.233[19, 21, 21, 21, 21, 18, 18, 17]
3.255[19, 20, 20, 20, 19, 20, 18, 16]
3.27[19, 21, 21, 21, 19, 22, 19, 17]
3.293[18, 21, 22, 20, 19, 21, 19, 17]
3.315[19, 23, 21, 19, 16, 21, 18, 17]
3.33[19, 20, 20, 17, 18, 21, 19, 17]
3.353[18, 21, 22, 20, 21, 20, 18, 16]
3.375[20, 21, 21, 18, 21, 20, 18, 16]
3.391[20, 21, 21, 19, 22, 21, 19, 18]
3.413[19, 19, 21, 20, 22, 20, 19, 18]
3.435[19, 20, 22, 21, 21, 19, 18, 19]
3.45[19, 19, 22, 19, 18, 19, 18, 19]
3.473[18, 19, 22, 20, 17, 17, 19, 20]
3.495[18, 18, 20, 19, 19, 19, 18, 17]
3.511[18, 18, 20, 18, 19, 19, 18, 19]
3.533[18, 17, 19, 18, 21, 19, 20, 19]
3.555[18, 19, 16, 18, 21, 19, 20, 21]
3.57[19, 17, 17, 19, 23, 20, 19, 19]
3.593[20, 19, 17, 20, 21, 19, 20, 20]
3.615[20, 18, 17, 19, 21, 18, 21, 18]
3.63[20, 19, 18, 19, 19, 19, 20, 17]
3.653[20, 18, 21, 21, 19, 17, 19, 17]
3.675[19, 20, 20, 20, 18, 18, 17, 18]
3.698[19, 19, 23, 19, 19, 17, 18, 19]
3.713[19, 21, 22, 19, 20, 18, 17, 18]
3.736[20, 21, 22, 21, 19, 19, 16, 19]
3.766[21, 21, 21, 19, 20, 20, 19, 20]
3.773[21, 21, 21, 22, 19, 19, 19, 19]
3.795[20, 21, 20, 22, 18, 21, 17, 20]
3.819[22, 19, 21, 22, 17, 21, 19, 21]
3.833[20, 19, 21, 20, 17, 22, 19, 20]
3.856[18, 20, 21, 21, 17, 21, 18, 17]
3.878[19, 22, 22, 18, 17, 21, 19, 20]
3.893[18, 21, 23, 19, 16, 21, 21, 19]
3.915[17, 23, 22, 19, 18, 20, 20, 18]
3.938[18, 22, 22, 20, 17, 18, 21, 20]
3.953[20, 22, 21, 20, 18, 17, 20, 20]
3.975[21, 21, 21, 19, 18, 18, 20, 19]
3.998[21, 21, 20, 18, 20, 16, 19, 19]
4.013[20, 20, 21, 22, 20, 17, 21, 19]
4.036[21, 21, 20, 21, 19, 18, 20, 17]
4.058[18, 19, 21, 24, 19, 18, 21, 18]
4.073[19, 20, 21, 24, 20, 17, 20, 16]
4.095[19, 20, 23, 25, 18, 18, 21, 16]
4.118[19, 19, 22, 22, 18, 17, 17, 18]
4.133[19, 18, 22, 23, 18, 17, 19, 19]
4.155[19, 20, 21, 19, 20, 17, 18, 17]
4.178[16, 18, 20, 19, 19, 18, 21, 19]
4.193[15, 21, 19, 18, 20, 17, 21, 19]
4.215[16, 21, 21, 18, 21, 18, 20, 19]
4.238[15, 21, 20, 17, 22, 19, 20, 19]
4.253[17, 20, 21, 18, 20, 19, 21, 20]
4.275[19, 21, 21, 17, 21, 18, 17, 18]
4.298[19, 20, 20, 18, 20, 20, 17, 16]
4.313[23, 21, 20, 18, 19, 20, 19, 15]
4.335[23, 23, 20, 18, 20, 19, 18, 16]
4.358[22, 22, 20, 19, 22, 20, 18, 15]
4.373[22, 22, 20, 19, 21, 21, 18, 16]
4.395[22, 20, 21, 20, 21, 19, 17, 18]
4.418[18, 21, 20, 18, 20, 20, 17, 18]
4.433[20, 19, 21, 21, 19, 20, 17, 17]
4.455[20, 20, 19, 20, 16, 18, 16, 19]
4.478[19, 19, 20, 20, 17, 17, 18, 18]
4.493[19, 21, 21, 20, 16, 17, 19, 16]
4.515[19, 19, 21, 22, 17, 15, 18, 17]
4.538[18, 18, 21, 20, 18, 14, 19, 17]
4.553[17, 19, 22, 21, 19, 16, 20, 16]
4.575[15, 20, 21, 22, 19, 18, 19, 17]
4.598[16, 20, 21, 20, 20, 17, 17, 17]
4.613[16, 22, 20, 19, 22, 17, 19, 17]
4.635[17, 22, 21, 20, 21, 18, 19, 17]
4.658[17, 21, 21, 21, 19, 18, 18, 17]
4.681[17, 22, 21, 20, 20, 16, 18, 17]
4.695[17, 22, 22, 21, 20, 17, 19, 18]
4.719[18, 20, 22, 21, 19, 17, 17, 18]
4.741[18, 20, 20, 21, 20, 18, 16, 18]
4.755[21, 20, 21, 20, 20, 19, 18, 20]
4.778[23, 20, 21, 21, 20, 21, 17, 21]
4.801[23, 20, 22, 20, 19, 22, 18, 21]
4.815[22, 21, 21, 20, 19, 22, 19, 20]
4.838[21, 24, 22, 19, 18, 21, 18, 20]
4.861[19, 22, 22, 20, 18, 20, 16, 16]
4.875[19, 22, 20, 20, 20, 19, 16, 16]
4.898[18, 21, 19, 20, 23, 17, 15, 15]
4.921[20, 21, 19, 21, 22, 16, 16, 15]
4.935[20, 19, 19, 22, 23, 16, 17, 15]
4.958[21, 19, 19, 22, 24, 17, 18, 17]
4.981[21, 20, 20, 23, 22, 18, 18, 18]
4.995[22, 21, 20, 23, 19, 18, 19, 17]
5.018[22, 21, 19, 22, 18, 20, 19, 17]
5.041[21, 20, 19, 22, 18, 20, 19, 17]
5.055[20, 22, 21, 19, 17, 19, 19, 16]
5.078[19, 21, 20, 19, 18, 18, 20, 16]
5.101[18, 20, 19, 19, 20, 19, 19, 18]
5.115[18, 22, 19, 20, 20, 17, 19, 18]
5.138[19, 21, 20, 20, 20, 19, 18, 19]
5.161[22, 19, 17, 21, 21, 19, 19, 19]
5.175[21, 22, 19, 19, 21, 18, 18, 19]
5.198[23, 25, 19, 23, 20, 19, 17, 19]
5.221[23, 23, 21, 21, 19, 20, 18, 19]
5.235[21, 24, 22, 21, 20, 18, 19, 20]
5.258[18, 25, 23, 22, 20, 18, 18, 19]
5.281[19, 22, 22, 23, 18, 18, 20, 21]
5.295[17, 19, 22, 21, 20, 19, 20, 20]
5.318[18, 20, 21, 22, 20, 18, 19, 19]
5.341[17, 18, 22, 21, 19, 18, 21, 19]
5.355[16, 17, 21, 20, 18, 17, 21, 20]
5.378[18, 19, 22, 20, 20, 19, 19, 19]
5.4[17, 18, 23, 18, 17, 18, 20, 20]
5.415[17, 17, 21, 18, 18, 18, 21, 20]
5.438[20, 20, 19, 17, 21, 19, 20, 20]
5.461[21, 19, 20, 17, 20, 21, 19, 20]
5.475[20, 18, 18, 18, 19, 21, 20, 19]
5.498[20, 19, 17, 19, 21, 20, 19, 19]
5.522[21, 20, 17, 18, 19, 20, 19, 21]
5.535[20, 17, 17, 21, 18, 20, 18, 20]
5.558[19, 18, 18, 19, 19, 17, 19, 20]
5.581[19, 18, 21, 21, 21, 18, 19, 20]
5.595[19, 17, 21, 22, 19, 17, 21, 20]
5.618[19, 17, 23, 23, 20, 17, 21, 20]
5.641[19, 17, 24, 23, 21, 17, 21, 20]
5.663[21, 17, 22, 24, 21, 20, 20, 18]
5.678[21, 17, 18, 24, 20, 19, 21, 18]
5.701[21, 19, 19, 23, 20, 19, 19, 17]
5.723[21, 20, 18, 23, 20, 19, 19, 16]
5.739[19, 21, 19, 21, 18, 20, 18, 17]
5.761[17, 20, 20, 21, 19, 20, 19, 17]
5.783[15, 24, 21, 19, 18, 21, 19, 16]
5.798[15, 23, 20, 17, 19, 22, 19, 18]
5.821[17, 23, 20, 16, 19, 22, 20, 18]
5.843[18, 22, 20, 18, 20, 20, 22, 18]
5.858[18, 22, 20, 19, 19, 20, 21, 21]
5.881[18, 20, 21, 18, 19, 20, 20, 23]
5.903[19, 18, 21, 19, 19, 19, 19, 22]
5.918[17, 18, 21, 22, 18, 20, 19, 22]
5.941[16, 20, 20, 21, 17, 21, 18, 22]
5.964[17, 20, 20, 19, 18, 23, 18, 19]
5.978[18, 20, 20, 22, 18, 21, 19, 17]
6.001[16, 21, 20, 21, 19, 21, 18, 21]
6.023[16, 22, 22, 21, 19, 20, 18, 20]
6.038[18, 21, 22, 19, 21, 19, 18, 19]
6.069[18, 23, 22, 22, 20, 17, 17, 20]
6.083[18, 22, 22, 21, 20, 18, 20, 21]
6.098[19, 23, 20, 21, 21, 18, 20, 17]
6.121[20, 22, 18, 22, 20, 17, 20, 19]
6.143[19, 22, 20, 23, 19, 17, 20, 20]
6.158[20, 20, 20, 22, 19, 18, 20, 18]
6.181[20, 19, 20, 22, 20, 17, 19, 17]
6.203[20, 19, 21, 21, 19, 18, 18, 18]
6.218[20, 17, 22, 21, 20, 20, 19, 17]
6.241[19, 19, 21, 21, 20, 20, 20, 16]
6.263[18, 20, 20, 18, 20, 19, 19, 18]
6.278[17, 20, 20, 20, 21, 20, 18, 18]
6.301[17, 19, 19, 21, 21, 19, 19, 18]
6.323[17, 19, 18, 22, 22, 18, 19, 19]
6.338[18, 18, 19, 21, 22, 17, 17, 18]
6.361[18, 19, 19, 24, 22, 18, 19, 18]
6.383[21, 21, 19, 21, 21, 18, 20, 19]
6.398[20, 21, 18, 21, 20, 18, 19, 18]
6.421[20, 22, 18, 20, 18, 18, 19, 17]
6.443[21, 21, 17, 21, 16, 20, 20, 18]
6.466[20, 21, 16, 19, 17, 20, 19, 20]
6.481[17, 19, 19, 20, 17, 19, 18, 20]
6.503[19, 18, 20, 20, 17, 18, 18, 20]
6.518[19, 20, 21, 19, 17, 18, 17, 21]
6.541[18, 20, 21, 18, 17, 16, 17, 20]
6.563[19, 19, 22, 21, 18, 17, 16, 17]
6.585[19, 19, 20, 18, 18, 16, 16, 19]
6.602[19, 20, 20, 20, 18, 18, 15, 18]
6.623[18, 17, 19, 19, 18, 19, 15, 18]
6.646[19, 17, 20, 18, 18, 22, 17, 18]
6.661[19, 16, 21, 18, 17, 22, 18, 20]
6.683[19, 17, 21, 19, 17, 22, 19, 19]
6.705[18, 15, 21, 17, 17, 21, 20, 19]
6.722[19, 17, 22, 17, 19, 22, 20, 19]
6.742[19, 16, 21, 20, 19, 18, 17, 20]
6.765[19, 18, 20, 19, 20, 19, 17, 19]
6.782[19, 17, 20, 19, 18, 19, 16, 20]
6.802[19, 18, 20, 19, 20, 19, 15, 21]
6.825[20, 18, 18, 19, 18, 20, 15, 20]
6.842[19, 19, 18, 18, 20, 20, 16, 19]
6.863[20, 19, 17, 18, 19, 20, 17, 19]
6.885[22, 20, 20, 18, 21, 23, 17, 18]
6.908[22, 21, 21, 19, 20, 22, 17, 19]
6.923[21, 21, 22, 20, 21, 21, 18, 21]
6.945[20, 20, 23, 18, 19, 21, 19, 22]
6.962[19, 20, 24, 18, 20, 22, 18, 23]
6.983[19, 20, 22, 19, 19, 19, 18, 23]
7.013[18, 21, 21, 19, 20, 20, 19, 22]
7.021[18, 21, 20, 18, 19, 22, 19, 21]
7.044[18, 24, 21, 19, 19, 22, 19, 20]
7.065[18, 23, 19, 19, 18, 20, 22, 19]
7.082[17, 22, 20, 19, 18, 21, 24, 18]
7.103[16, 19, 20, 18, 16, 22, 22, 18]
7.126[18, 19, 19, 18, 17, 19, 22, 19]
7.156[18, 15, 19, 17, 17, 20, 22, 18]
7.163[19, 16, 21, 17, 19, 21, 17, 17]
7.185[18, 18, 19, 20, 21, 21, 17, 17]
7.201[19, 18, 20, 19, 23, 20, 16, 18]
7.224[18, 21, 23, 20, 22, 19, 17, 18]
7.245[18, 21, 21, 21, 23, 18, 17, 18]
7.262[17, 20, 21, 20, 24, 18, 17, 19]
7.283[18, 23, 21, 17, 22, 19, 16, 18]
7.305[17, 23, 22, 17, 21, 19, 17, 18]
7.322[19, 21, 20, 19, 21, 19, 17, 18]
7.343[18, 23, 22, 18, 20, 19, 17, 18]
7.365[18, 23, 22, 18, 19, 18, 16, 20]
7.382[17, 20, 22, 19, 19, 19, 18, 20]
7.403[18, 20, 21, 20, 21, 18, 17, 20]
7.425[17, 21, 21, 20, 22, 20, 18, 19]
7.441[18, 19, 21, 21, 22, 20, 21, 19]
7.463[18, 22, 21, 20, 22, 21, 21, 17]
7.485[19, 22, 22, 27, 21, 19, 19, 16]
7.508[21, 23, 21, 26, 21, 19, 20, 17]
7.523[20, 21, 21, 26, 20, 18, 20, 18]
7.545[20, 21, 22, 24, 20, 17, 18, 18]
7.568[19, 19, 23, 25, 20, 16, 21, 19]
7.583[18, 20, 22, 18, 20, 18, 21, 19]
7.605[19, 19, 22, 19, 18, 18, 20, 19]
7.629[21, 20, 23, 19, 21, 17, 19, 18]
7.643[20, 20, 21, 20, 22, 20, 18, 17]
7.665[22, 20, 19, 20, 22, 20, 17, 17]
7.688[23, 17, 20, 19, 23, 18, 18, 18]
7.703[21, 16, 20, 20, 23, 17, 19, 18]
7.725[19, 18, 18, 20, 21, 19, 19, 18]
7.748[21, 18, 18, 22, 21, 18, 20, 18]
7.763[19, 19, 19, 22, 21, 23, 20, 21]
7.793[21, 19, 19, 22, 21, 28, 18, 20]
7.808[21, 21, 19, 21, 21, 32, 19, 20]
7.823[21, 21, 19, 21, 22, 31, 19, 24]
7.853[20, 21, 19, 22, 21, 31, 19, 23]
7.868[20, 20, 18, 21, 21, 28, 18, 20]
7.882[19, 20, 18, 21, 20, 24, 18, 21]
7.905[19, 18, 18, 22, 21, 19, 16, 20]
7.928[20, 19, 19, 21, 19, 20, 18, 16]
7.943[19, 20, 21, 20, 20, 19, 17, 18]
7.966[20, 21, 20, 20, 21, 17, 17, 20]
7.988[21, 21, 19, 19, 22, 17, 19, 19]
8.003[21, 23, 19, 18, 21, 18, 19, 20]
8.025[19, 22, 17, 19, 21, 18, 18, 20]
8.048[20, 21, 19, 19, 20, 18, 18, 20]
8.064[18, 20, 19, 20, 20, 19, 16, 18]
8.085[19, 20, 19, 19, 20, 20, 17, 19]
8.108[19, 18, 20, 19, 18, 19, 18, 18]
8.123[20, 19, 21, 18, 21, 19, 19, 17]
8.145[19, 22, 21, 17, 21, 19, 20, 17]
8.168[20, 20, 20, 16, 21, 20, 21, 17]
8.184[18, 20, 21, 17, 21, 20, 19, 17]
8.205[19, 19, 23, 19, 22, 20, 20, 19]
8.228[19, 21, 23, 19, 20, 20, 20, 21]
8.243[19, 20, 23, 20, 19, 18, 20, 20]
8.266[19, 21, 22, 22, 20, 16, 20, 20]
8.288[19, 21, 24, 22, 21, 17, 19, 22]
8.303[20, 22, 21, 20, 21, 16, 18, 19]
8.327[20, 20, 21, 20, 22, 17, 16, 18]
8.348[21, 20, 23, 19, 22, 16, 18, 19]
8.363[20, 23, 23, 16, 22, 17, 17, 19]
8.385[20, 23, 21, 18, 23, 17, 19, 19]
8.408[22, 22, 21, 19, 23, 17, 19, 19]
8.423[25, 23, 22, 19, 22, 19, 20, 20]
8.445[23, 23, 18, 18, 22, 21, 19, 18]
8.468[26, 20, 18, 19, 23, 21, 19, 19]
8.49[25, 21, 19, 18, 24, 22, 18, 19]
8.505[22, 21, 19, 15, 24, 22, 20, 19]
8.528[18, 20, 17, 16, 24, 21, 21, 19]
8.55[21, 21, 19, 15, 26, 19, 20, 20]
8.565[19, 20, 19, 16, 23, 20, 19, 19]
8.587[19, 20, 21, 16, 21, 17, 18, 21]
8.61[20, 21, 20, 17, 21, 17, 15, 19]
8.625[21, 21, 21, 16, 20, 17, 15, 18]
8.648[19, 20, 21, 17, 18, 18, 16, 20]
8.67[20, 21, 22, 16, 18, 18, 17, 20]
8.685[23, 21, 21, 17, 19, 19, 17, 20]
8.708[23, 21, 22, 17, 19, 18, 18, 20]
8.73[23, 22, 21, 18, 22, 18, 18, 20]
8.746[22, 20, 19, 18, 20, 20, 16, 20]
8.768[21, 20, 19, 20, 21, 21, 15, 19]
8.79[19, 20, 17, 20, 21, 20, 15, 18]
8.805[21, 19, 17, 20, 20, 21, 16, 18]
8.828[21, 20, 19, 20, 19, 21, 15, 20]
8.85[22, 20, 20, 22, 22, 20, 17, 18]
8.865[22, 20, 22, 22, 23, 19, 18, 19]
8.888[21, 21, 23, 22, 23, 19, 17, 17]
8.91[18, 21, 22, 22, 24, 19, 20, 20]
8.925[39, 21, 21, 21, 23, 20, 20, 20]
8.948[50, 21, 22, 20, 23, 19, 20, 20]
8.97[63, 21, 20, 18, 20, 21, 18, 21]
8.986[69, 20, 20, 18, 22, 21, 20, 21]
9.016[69, 22, 24, 19, 22, 21, 16, 20]
9.03[60, 22, 24, 20, 20, 21, 17, 19]
9.045[51, 21, 21, 19, 21, 22, 17, 18]
9.068[33, 20, 22, 19, 21, 19, 18, 19]
9.09[20, 21, 22, 20, 18, 18, 17, 19]
9.105[18, 19, 20, 19, 18, 18, 19, 18]
9.128[19, 17, 20, 21, 19, 17, 21, 18]
9.15[19, 18, 20, 22, 18, 16, 20, 18]
9.165[19, 18, 19, 22, 18, 17, 20, 16]
9.188[20, 18, 21, 20, 21, 17, 21, 17]
9.211[21, 18, 20, 23, 22, 17, 20, 17]
9.225[20, 18, 20, 21, 22, 17, 17, 17]
9.248[21, 19, 22, 21, 21, 18, 19, 18]
9.27[21, 21, 22, 21, 21, 17, 19, 19]
9.285[20, 20, 21, 21, 19, 16, 20, 19]
9.308[18, 19, 21, 19, 18, 17, 18, 20]
9.33[18, 21, 21, 19, 17, 17, 19, 20]
9.346[19, 20, 20, 17, 17, 18, 18, 20]
9.368[19, 22, 22, 19, 18, 19, 19, 20]
9.39[18, 23, 23, 22, 20, 18, 17, 19]
9.413[18, 23, 23, 21, 19, 19, 18, 19]
9.427[19, 22, 22, 21, 21, 18, 17, 20]
9.451[17, 22, 21, 21, 22, 18, 17, 17]
9.473[18, 21, 21, 20, 23, 17, 17, 18]
9.488[20, 19, 19, 16, 21, 19, 17, 20]
9.51[20, 20, 21, 17, 22, 18, 17, 21]
9.533[21, 21, 21, 18, 22, 20, 19, 21]
9.548[20, 22, 21, 20, 24, 19, 22, 22]
9.57[19, 20, 21, 22, 23, 19, 21, 22]
9.593[18, 22, 22, 22, 22, 19, 22, 19]
9.608[18, 24, 20, 22, 22, 19, 23, 18]
9.63[18, 23, 21, 21, 21, 18, 22, 20]
9.653[18, 23, 20, 20, 20, 19, 20, 19]
9.676[19, 24, 18, 18, 22, 19, 20, 19]
9.691[17, 22, 17, 19, 22, 19, 20, 20]
9.714[17, 19, 15, 19, 22, 18, 18, 22]
9.728[18, 21, 16, 19, 23, 20, 18, 18]
9.751[18, 22, 18, 20, 24, 20, 18, 19]
9.773[18, 21, 18, 20, 21, 20, 19, 20]
9.788[20, 21, 19, 21, 22, 20, 17, 19]
9.811[21, 21, 18, 23, 22, 21, 18, 17]
9.841[18, 21, 20, 23, 20, 23, 20, 19]
9.848[19, 19, 19, 22, 20, 23, 20, 20]
9.871[20, 21, 20, 21, 21, 23, 18, 19]
9.894[18, 22, 19, 19, 22, 23, 19, 19]
9.908[19, 21, 20, 17, 22, 22, 20, 19]
9.931[19, 22, 19, 17, 22, 20, 18, 19]
9.954[19, 23, 20, 22, 23, 19, 19, 18]
9.968[20, 22, 23, 41, 30, 23, 24, 19]
9.991[20, 22, 23, 46, 33, 27, 25, 21]
10.013[21, 24, 30, 120, 51, 33, 29, 24]
10.027[23, 26, 37, 135, 58, 34, 34, 25]
10.05[29, 30, 40, 152, 63, 35, 34, 27]
10.073[33, 33, 46, 159, 68, 45, 34, 28]
10.088[43, 43, 51, 164, 84, 76, 49, 43]
10.111[48, 44, 51, 124, 81, 105, 66, 86]
10.134[71, 51, 49, 111, 84, 136, 137, 160]
10.148[125, 72, 59, 104, 98, 205, 209, 268]
10.171[151, 81, 61, 102, 132, 326, 278, 305]
10.194[168, 83, 69, 125, 220, 466, 431, 353]
10.207[184, 98, 81, 135, 236, 500, 534, 438]
10.231[206, 111, 93, 151, 254, 605, 615, 520]
10.254[187, 101, 94, 162, 274, 621, 635, 490]
10.267[200, 105, 105, 164, 283, 647, 701, 549]
10.291[196, 104, 103, 148, 245, 616, 729, 560]
10.313[212, 98, 101, 152, 266, 683, 755, 669]
10.327[189, 84, 95, 149, 321, 662, 702, 661]
10.351[208, 95, 95, 134, 381, 735, 684, 701]
10.373[207, 95, 91, 150, 423, 739, 642, 735]
10.396[202, 95, 89, 149, 430, 753, 534, 745]
10.419[172, 89, 82, 141, 430, 721, 442, 629]
10.433[185, 99, 85, 140, 392, 671, 463, 622]
10.456[164, 89, 81, 134, 323, 585, 448, 590]
10.471[139, 85, 78, 121, 298, 601, 415, 500]
10.493[138, 93, 86, 140, 294, 565, 419, 462]
10.516[148, 92, 89, 153, 303, 609, 429, 510]
10.531[130, 81, 84, 151, 304, 609, 396, 461]
10.561[134, 78, 82, 155, 298, 588, 452, 464]
10.576[135, 76, 79, 153, 275, 497, 446, 474]
10.591[147, 65, 68, 129, 245, 460, 460, 523]
10.613[140, 62, 62, 111, 207, 340, 460, 493]
10.636[144, 63, 62, 105, 186, 324, 511, 500]
10.65[133, 67, 64, 101, 187, 354, 475, 486]
10.673[138, 68, 65, 105, 147, 346, 476, 511]
10.696[138, 73, 71, 114, 162, 337, 506, 494]
10.71[138, 74, 75, 116, 153, 311, 496, 493]
10.733[131, 70, 76, 121, 173, 336, 472, 473]
10.756[135, 67, 73, 120, 183, 320, 490, 494]
10.771[138, 62, 66, 99, 190, 338, 491, 526]
10.793[143, 68, 66, 102, 201, 357, 465, 536]
10.816[137, 69, 64, 100, 218, 351, 426, 478]
10.831[147, 74, 63, 92, 204, 359, 410, 528]
10.853[156, 76, 66, 100, 196, 358, 490, 564]
10.876[138, 76, 66, 101, 194, 343, 486, 480]
10.89[125, 68, 62, 92, 177, 325, 463, 424]
10.913[129, 67, 63, 96, 160, 378, 532, 463]
10.936[121, 66, 61, 93, 155, 345, 510, 418]
10.958[137, 64, 56, 83, 156, 337, 494, 421]
10.974[146, 66, 58, 88, 148, 327, 528, 463]
10.996[151, 71, 60, 87, 146, 406, 572, 480]
11.01[151, 75, 59, 78, 138, 361, 537, 463]
11.033[152, 73, 58, 79, 141, 373, 558, 467]
11.056[126, 72, 58, 76, 137, 379, 497, 392]
11.07[136, 67, 55, 80, 159, 406, 488, 446]
11.093[134, 63, 55, 84, 161, 324, 418, 443]
11.116[138, 62, 54, 88, 168, 356, 485, 435]
11.13[138, 64, 55, 95, 176, 364, 512, 419]
11.154[137, 62, 56, 100, 177, 353, 507, 429]
11.176[118, 66, 60, 102, 168, 348, 469, 317]
11.19[109, 63, 54, 94, 167, 340, 494, 287]
11.213[131, 67, 58, 94, 170, 333, 455, 358]
11.236[130, 66, 57, 86, 154, 327, 414, 376]
11.25[130, 64, 54, 82, 167, 322, 467, 366]
11.273[137, 70, 58, 81, 165, 335, 483, 383]
11.296[144, 75, 64, 92, 176, 380, 489, 410]
11.318[120, 68, 60, 90, 182, 380, 511, 352]
11.333[130, 78, 70, 102, 217, 430, 515, 351]
11.356[129, 77, 70, 100, 228, 454, 488, 360]
11.378[119, 73, 68, 102, 238, 461, 500, 366]
11.393[108, 65, 62, 95, 240, 451, 478, 354]
11.416[105, 67, 64, 95, 247, 445, 394, 357]
11.438[90, 55, 53, 85, 259, 395, 385, 338]
11.453[88, 58, 57, 93, 253, 375, 342, 311]
11.476[90, 53, 49, 83, 265, 338, 316, 297]
11.498[102, 55, 52, 81, 256, 305, 361, 296]
11.513[108, 53, 49, 78, 245, 292, 398, 284]
11.535[104, 52, 48, 75, 208, 326, 410, 265]
11.558[101, 51, 47, 72, 208, 332, 422, 268]
11.573[98, 52, 51, 70, 166, 319, 407, 244]
11.595[84, 54, 50, 73, 165, 357, 382, 247]
11.618[79, 60, 52, 75, 162, 336, 370, 233]
11.634[87, 62, 53, 76, 156, 287, 355, 241]
11.655[88, 62, 51, 71, 148, 291, 338, 233]
11.677[95, 67, 50, 69, 145, 316, 340, 288]
11.694[91, 65, 49, 70, 155, 274, 368, 258]
11.715[90, 59, 50, 68, 162, 273, 388, 278]
11.738[85, 54, 49, 66, 165, 289, 385, 284]
11.754[96, 53, 46, 63, 143, 266, 404, 307]
11.775[103, 51, 45, 61, 140, 245, 431, 295]
11.798[103, 50, 44, 57, 140, 242, 408, 303]
11.814[100, 50, 42, 59, 137, 249, 375, 290]
11.835[96, 50, 37, 59, 127, 230, 412, 283]
11.858[87, 52, 43, 65, 131, 234, 384, 261]
11.874[66, 47, 44, 71, 150, 282, 368, 218]
11.895[70, 52, 51, 77, 140, 300, 351, 200]
11.917[70, 50, 50, 72, 130, 326, 407, 243]
11.934[73, 50, 53, 72, 134, 348, 355, 244]
11.955[76, 47, 49, 69, 151, 367, 397, 244]
11.978[80, 46, 48, 65, 138, 319, 377, 252]
11.994[86, 45, 42, 58, 138, 311, 382, 303]
12.015[88, 49, 47, 69, 142, 296, 333, 290]
12.038[93, 49, 45, 71, 147, 263, 333, 294]
12.054[89, 49, 47, 74, 133, 254, 281, 300]
12.075[90, 53, 48, 77, 142, 261, 326, 286]
12.105[83, 57, 53, 83, 138, 254, 377, 238]
12.114[82, 54, 48, 78, 131, 250, 351, 214]
12.135[74, 54, 47, 72, 126, 260, 373, 204]
12.158[80, 54, 45, 69, 121, 266, 400, 213]
12.174[102, 57, 46, 71, 118, 278, 406, 286]
12.195[104, 51, 42, 67, 117, 276, 353, 283]
12.217[105, 51, 42, 64, 118, 267, 380, 289]
12.234[111, 55, 47, 70, 120, 257, 390, 295]
12.255[114, 62, 51, 80, 152, 251, 382, 297]
12.277[90, 60, 51, 79, 147, 250, 355, 239]
12.3[90, 60, 52, 81, 158, 247, 348, 249]
12.315[93, 68, 55, 84, 162, 284, 318, 238]
12.339[90, 65, 52, 80, 166, 300, 280, 243]
12.377[88, 58, 50, 74, 161, 313, 288, 248]
12.378[89, 58, 49, 70, 155, 320, 272, 262]
12.397[97, 61, 47, 66, 159, 350, 368, 283]
12.42[88, 51, 42, 59, 155, 325, 395, 281]
12.435[93, 54, 47, 63, 160, 317, 425, 262]
12.457[91, 54, 45, 57, 139, 315, 437, 278]
12.488[88, 51, 43, 69, 167, 299, 450, 271]
12.495[72, 50, 48, 72, 153, 277, 377, 263]
12.517[72, 50, 48, 76, 159, 280, 361, 273]
12.541[58, 46, 46, 78, 151, 291, 366, 278]
12.555[55, 43, 43, 80, 159, 280, 370, 268]
12.578[69, 44, 42, 71, 142, 299, 342, 269]
12.602[80, 40, 38, 66, 137, 298, 396, 264]
12.615[84, 44, 44, 66, 130, 296, 403, 277]
12.637[90, 44, 45, 62, 126, 269, 382, 299]
12.661[95, 47, 48, 60, 127, 245, 352, 269]
12.675[87, 46, 48, 56, 118, 226, 404, 273]
12.697[88, 46, 46, 58, 121, 254, 384, 271]
12.72[85, 46, 45, 59, 120, 260, 399, 253]
12.736[80, 47, 46, 58, 118, 290, 416, 229]
12.758[73, 47, 47, 60, 112, 297, 410, 243]
12.78[81, 54, 50, 70, 121, 286, 381, 246]
12.795[70, 54, 50, 67, 121, 259, 368, 225]
12.818[70, 54, 47, 70, 140, 322, 383, 227]
12.848[71, 54, 49, 69, 149, 315, 412, 218]
12.855[72, 55, 45, 70, 155, 340, 448, 205]
12.878[68, 52, 45, 68, 157, 364, 483, 185]
12.9[69, 51, 47, 72, 171, 361, 501, 179]
12.915[68, 48, 45, 66, 155, 289, 462, 166]
12.938[68, 52, 46, 73, 151, 279, 413, 215]
12.96[69, 51, 46, 72, 149, 289, 413, 217]
12.975[61, 47, 45, 69, 141, 270, 385, 204]
12.997[69, 52, 50, 71, 129, 270, 381, 237]
13.02[71, 52, 52, 74, 133, 301, 452, 245]
13.035[70, 49, 51, 73, 129, 301, 458, 206]
13.058[81, 65, 62, 80, 123, 269, 444, 231]
13.08[85, 66, 62, 79, 123, 280, 427, 239]
13.097[80, 65, 59, 74, 119, 317, 528, 249]
13.119[81, 65, 57, 73, 122, 287, 529, 257]
13.14[82, 64, 55, 67, 116, 327, 550, 274]
13.155[72, 58, 51, 72, 124, 320, 580, 259]
13.178[75, 62, 52, 71, 117, 317, 585, 249]
13.208[72, 57, 50, 69, 109, 284, 479, 229]
13.223[72, 58, 51, 70, 111, 291, 427, 221]
13.237[69, 57, 50, 71, 125, 283, 398, 200]
13.26[62, 47, 41, 61, 132, 277, 347, 186]
13.282[58, 44, 40, 60, 140, 249, 377, 210]
13.297[62, 49, 45, 65, 166, 261, 362, 190]
13.322[56, 46, 43, 69, 168, 282, 425, 188]
13.342[54, 44, 43, 67, 159, 246, 420, 182]
13.358[64, 59, 49, 68, 144, 259, 456, 206]
13.38[61, 57, 47, 65, 137, 285, 432, 184]
13.402[59, 56, 45, 63, 114, 285, 464, 186]
13.418[67, 62, 52, 64, 109, 264, 425, 203]
13.44[71, 64, 54, 71, 124, 265, 480, 218]
13.462[68, 55, 49, 70, 125, 279, 442, 212]
13.477[77, 62, 55, 73, 127, 265, 503, 243]
13.509[79, 68, 60, 83, 121, 245, 502, 239]
13.522[80, 71, 67, 97, 119, 255, 475, 225]
13.537[78, 72, 68, 97, 120, 272, 421, 210]
13.56[79, 74, 69, 97, 120, 247, 430, 210]
13.582[77, 68, 65, 96, 115, 255, 355, 185]
13.598[73, 64, 61, 96, 119, 246, 349, 180]
13.62[70, 57, 53, 82, 120, 241, 368, 178]
13.642[71, 53, 50, 79, 106, 197, 363, 199]
13.658[65, 49, 47, 75, 103, 212, 365, 190]
13.68[58, 47, 51, 74, 103, 189, 381, 172]
13.702[59, 46, 47, 64, 110, 228, 381, 189]
13.717[55, 42, 41, 53, 102, 234, 363, 194]
13.74[55, 44, 43, 52, 102, 244, 389, 193]
13.762[58, 43, 43, 53, 102, 265, 362, 203]
13.777[58, 49, 47, 66, 107, 314, 317, 211]
13.8[55, 47, 48, 66, 108, 309, 276, 196]
13.822[53, 49, 49, 68, 109, 293, 271, 182]
13.838[59, 53, 51, 72, 104, 313, 259, 173]
13.86[58, 54, 55, 82, 102, 296, 330, 168]
13.882[61, 52, 49, 72, 97, 257, 347, 168]
13.897[64, 53, 48, 70, 93, 230, 352, 196]
13.92[70, 54, 51, 70, 87, 229, 358, 200]
13.942[63, 48, 45, 63, 86, 195, 339, 201]
13.957[63, 47, 42, 52, 89, 188, 295, 219]
13.98[68, 49, 41, 48, 89, 178, 280, 242]
14.002[72, 54, 47, 54, 81, 193, 299, 278]
14.017[70, 51, 43, 55, 90, 224, 280, 278]
14.04[70, 53, 43, 54, 89, 218, 285, 272]
14.071[70, 55, 45, 55, 92, 239, 288, 253]
14.078[59, 49, 43, 60, 100, 256, 287, 221]
14.1[51, 45, 39, 59, 104, 284, 263, 150]
14.123[50, 45, 39, 55, 96, 256, 282, 174]
14.146[48, 42, 38, 55, 93, 275, 286, 170]
14.16[55, 47, 43, 63, 95, 252, 341, 170]
14.183[58, 46, 42, 58, 99, 241, 340, 187]
14.206[58, 45, 40, 56, 95, 248, 333, 183]
14.22[55, 45, 43, 59, 98, 253, 327, 150]
14.243[59, 48, 46, 59, 102, 234, 316, 161]
14.266[62, 42, 42, 50, 96, 226, 213, 188]
14.281[62, 47, 46, 58, 83, 210, 239, 179]
14.303[64, 46, 45, 59, 81, 137, 234, 191]
14.325[70, 48, 44, 57, 85, 151, 252, 195]
14.34[70, 46, 42, 55, 82, 182, 238, 213]
14.362[61, 45, 40, 54, 83, 202, 235, 206]
14.386[64, 49, 43, 49, 82, 210, 222, 219]
14.4[69, 49, 43, 52, 87, 249, 310, 257]
14.423[72, 53, 47, 56, 82, 255, 311, 273]
14.446[77, 57, 49, 63, 102, 254, 353, 280]
14.46[86, 61, 52, 68, 117, 276, 386, 317]
14.482[84, 58, 48, 68, 120, 299, 396, 311]
14.506[80, 60, 51, 69, 115, 269, 347, 306]
14.52[75, 57, 50, 77, 116, 255, 324, 292]
14.542[82, 58, 53, 80, 100, 237, 314, 287]
14.566[70, 51, 49, 81, 99, 226, 299, 232]
14.58[70, 47, 50, 83, 104, 226, 322, 253]
14.602[70, 44, 50, 89, 117, 243, 345, 231]
14.626[68, 43, 46, 85, 113, 263, 352, 229]
14.64[52, 35, 47, 90, 115, 264, 355, 207]
14.662[54, 37, 46, 90, 99, 244, 351, 205]
14.686[56, 39, 47, 96, 94, 219, 333, 194]
14.7[57, 42, 49, 90, 86, 246, 371, 172]
14.722[63, 44, 52, 108, 89, 226, 394, 186]
14.746[67, 47, 49, 102, 86, 228, 368, 212]
14.76[70, 49, 51, 104, 91, 231, 371, 223]
14.782[72, 51, 52, 101, 89, 229, 375, 217]
14.813[68, 51, 51, 103, 107, 228, 348, 210]
14.82[62, 50, 51, 89, 119, 238, 324, 195]
14.842[56, 49, 50, 91, 118, 237, 322, 179]
14.874[65, 53, 52, 95, 117, 232, 303, 165]
14.88[64, 50, 48, 91, 118, 234, 298, 171]
14.902[76, 54, 49, 90, 103, 208, 330, 198]
14.926[77, 55, 46, 81, 92, 196, 326, 212]
14.94[76, 53, 47, 78, 93, 195, 335, 200]
14.962[68, 50, 41, 63, 90, 200, 341, 193]
14.986[67, 54, 45, 74, 84, 208, 350, 175]
15.0[58, 47, 42, 70, 77, 258, 349, 195]
15.022[56, 46, 42, 68, 78, 301, 359, 209]
15.046[58, 47, 41, 72, 80, 306, 359, 210]
15.06[62, 50, 45, 77, 86, 301, 369, 239]
15.082[60, 44, 42, 67, 88, 299, 352, 243]
15.106[58, 46, 44, 67, 96, 267, 345, 217]
15.128[58, 53, 51, 76, 105, 257, 340, 197]
15.142[56, 50, 50, 68, 105, 248, 342, 208]
15.165[56, 46, 48, 66, 121, 278, 392, 185]
15.188[69, 52, 52, 68, 130, 273, 420, 186]
15.203[71, 53, 51, 69, 122, 255, 392, 192]
15.226[77, 50, 46, 60, 116, 248, 412, 205]
15.248[81, 55, 48, 62, 121, 284, 470, 199]
15.263[80, 56, 47, 60, 110, 278, 438, 196]
15.286[77, 54, 46, 71, 132, 286, 416, 201]
15.308[76, 56, 49, 85, 170, 298, 423, 189]
15.323[67, 52, 48, 86, 172, 287, 403, 169]
15.346[62, 49, 47, 86, 173, 277, 368, 155]
15.368[58, 48, 48, 90, 179, 263, 382, 161]
15.383[47, 48, 47, 84, 163, 276, 421, 154]
15.406[47, 45, 43, 68, 127, 276, 410, 175]
15.428[52, 45, 42, 67, 125, 287, 479, 212]
15.443[50, 44, 44, 72, 129, 266, 466, 217]
15.466[54, 47, 43, 67, 118, 279, 435, 205]
15.488[67, 47, 42, 67, 141, 282, 408, 230]
15.511[71, 46, 42, 68, 140, 269, 401, 232]
15.526[70, 48, 43, 68, 147, 297, 358, 204]
15.548[75, 50, 44, 62, 146, 305, 346, 203]
15.563[83, 51, 45, 63, 150, 291, 344, 224]
15.593[80, 52, 53, 75, 158, 296, 325, 202]
15.608[78, 55, 55, 83, 165, 315, 380, 186]
15.622[78, 53, 54, 83, 161, 317, 444, 193]
15.646[76, 53, 53, 87, 170, 319, 465, 195]
15.675[67, 50, 52, 91, 179, 331, 497, 194]
15.683[68, 48, 45, 80, 152, 331, 489, 221]
15.706[72, 47, 42, 73, 152, 361, 481, 258]
15.728[70, 48, 43, 73, 149, 344, 429, 256]
15.743[87, 53, 46, 81, 154, 362, 409, 302]
15.766[93, 54, 49, 84, 161, 367, 378, 305]
15.788[101, 61, 54, 89, 169, 404, 385, 308]
15.802[97, 60, 55, 91, 169, 365, 369, 287]
15.826[106, 61, 55, 90, 170, 335, 353, 326]
15.848[93, 56, 52, 85, 156, 314, 407, 296]
15.862[91, 55, 48, 77, 134, 300, 418, 291]
15.885[86, 46, 43, 71, 126, 234, 463, 316]
15.908[88, 49, 43, 67, 114, 241, 433, 310]
15.922[89, 53, 50, 77, 128, 247, 414, 314]
15.946[86, 51, 49, 73, 123, 281, 382, 340]
15.968[89, 57, 52, 71, 120, 271, 378, 344]
15.982[97, 56, 51, 77, 128, 325, 444, 379]
16.006[101, 58, 54, 80, 142, 395, 533, 426]
16.028[95, 64, 55, 85, 133, 402, 531, 392]
16.051[99, 65, 55, 87, 135, 387, 523, 390]
16.066[92, 61, 55, 89, 156, 405, 528, 394]
16.088[74, 62, 55, 89, 153, 377, 493, 328]
16.111[86, 63, 56, 96, 164, 356, 456, 293]
16.126[91, 55, 52, 90, 172, 372, 455, 297]
16.148[98, 59, 53, 89, 172, 365, 493, 301]
16.171[105, 62, 58, 99, 167, 360, 499, 320]
16.186[107, 71, 69, 107, 182, 352, 473, 320]
16.208[93, 71, 68, 100, 171, 309, 434, 299]
16.231[102, 70, 68, 99, 164, 303, 455, 325]
16.246[102, 73, 68, 99, 162, 293, 411, 311]
16.268[99, 71, 66, 98, 168, 281, 397, 276]
16.29[103, 61, 56, 85, 152, 275, 371, 297]
16.306[123, 63, 54, 88, 147, 260, 379, 388]
16.328[134, 62, 53, 92, 169, 250, 368, 496]
16.351[165, 64, 53, 93, 174, 265, 363, 616]
16.367[166, 60, 47, 86, 166, 275, 410, 648]
16.388[185, 59, 46, 86, 176, 253, 468, 706]
16.41[176, 57, 45, 81, 181, 264, 451, 672]
16.425[160, 55, 43, 71, 161, 305, 445, 585]
16.448[141, 53, 46, 69, 158, 296, 446, 546]
16.47[143, 55, 47, 66, 146, 277, 394, 556]
16.486[127, 54, 48, 65, 132, 295, 310, 518]
16.508[125, 52, 48, 65, 121, 285, 313, 507]
16.531[143, 56, 51, 70, 112, 227, 314, 578]
16.545[140, 55, 47, 67, 107, 249, 325, 549]
16.568[141, 54, 50, 66, 112, 255, 340, 515]
16.59[143, 55, 49, 65, 108, 247, 338, 493]
16.613[161, 58, 50, 61, 100, 244, 324, 524]
16.629[148, 61, 51, 60, 100, 232, 304, 464]
16.65[132, 55, 50, 63, 100, 217, 289, 392]
16.673[133, 57, 49, 70, 103, 212, 313, 405]
16.689[123, 55, 47, 67, 100, 193, 342, 401]
16.71[106, 53, 51, 77, 113, 201, 377, 474]
16.726[112, 46, 48, 78, 132, 235, 411, 505]
16.749[130, 51, 49, 77, 131, 227, 410, 543]
16.77[131, 49, 45, 73, 128, 256, 410, 572]
16.786[135, 58, 50, 83, 138, 262, 394, 563]
16.809[123, 58, 46, 79, 133, 250, 366, 470]
16.83[123, 65, 54, 78, 120, 252, 360, 432]
16.846[102, 69, 60, 88, 144, 280, 410, 401]
16.869[96, 70, 63, 90, 164, 261, 377, 353]
16.89[90, 63, 60, 88, 161, 272, 397, 351]
16.906[100, 66, 63, 85, 162, 282, 452, 393]
16.929[95, 60, 56, 81, 162, 266, 430, 388]
16.95[110, 51, 49, 69, 146, 258, 388, 416]
16.966[109, 58, 56, 79, 134, 276, 413, 425]
16.989[108, 59, 55, 75, 131, 267, 383, 410]
17.01[105, 56, 50, 75, 125, 255, 338, 366]
17.032[102, 60, 56, 82, 129, 278, 392, 369]
17.047[105, 62, 57, 83, 126, 263, 425, 346]
17.07[105, 59, 53, 69, 111, 257, 449, 311]
17.092[104, 61, 54, 71, 107, 266, 455, 303]
17.107[100, 62, 57, 77, 114, 287, 467, 296]
17.13[100, 65, 58, 81, 113, 285, 485, 306]
17.152[90, 70, 64, 80, 110, 308, 460, 305]
17.167[98, 69, 62, 81, 110, 328, 416, 312]
17.19[108, 67, 60, 77, 112, 338, 428, 346]
17.212[113, 71, 63, 74, 108, 322, 384, 354]
17.227[128, 68, 59, 64, 96, 315, 357, 398]
17.25[140, 62, 52, 65, 96, 308, 379, 448]
17.272[175, 69, 54, 69, 119, 318, 455, 621]
17.287[207, 81, 61, 74, 131, 307, 451, 676]
17.31[216, 82, 58, 73, 135, 305, 464, 682]
17.332[210, 84, 64, 74, 141, 289, 414, 667]
17.347[201, 85, 65, 78, 144, 274, 389, 654]
17.37[186, 79, 62, 71, 122, 211, 292, 525]
17.393[154, 64, 56, 71, 122, 235, 298, 496]
17.407[136, 57, 55, 69, 120, 306, 305, 485]
17.43[138, 51, 48, 65, 112, 315, 308, 469]
17.452[140, 51, 46, 58, 103, 309, 309, 445]
17.467[127, 53, 46, 58, 113, 327, 338, 463]
17.49[124, 58, 46, 52, 104, 330, 388, 458]
17.512[137, 57, 44, 48, 113, 275, 413, 505]
17.527[139, 54, 41, 47, 121, 277, 442, 519]
17.55[138, 56, 43, 47, 121, 304, 434, 495]
17.572[121, 56, 50, 57, 126, 301, 422, 444]
17.587[113, 54, 48, 57, 122, 278, 360, 411]
17.61[98, 54, 51, 67, 119, 301, 333, 411]
17.634[108, 58, 52, 69, 116, 330, 334, 419]
17.647[104, 53, 48, 68, 115, 311, 355, 430]
17.67[123, 58, 47, 67, 108, 311, 350, 441]
17.7[125, 58, 49, 70, 111, 304, 352, 456]
17.707[140, 64, 52, 77, 138, 297, 348, 430]
17.73[127, 60, 51, 77, 142, 270, 333, 412]
17.76[132, 63, 57, 81, 152, 300, 338, 431]
17.767[118, 61, 57, 82, 156, 312, 331, 418]
17.79[119, 67, 63, 85, 159, 388, 364, 406]
17.812[102, 62, 60, 78, 140, 391, 385, 379]
17.827[100, 63, 65, 83, 136, 398, 364, 360]
17.85[106, 66, 65, 83, 127, 393, 347, 331]
17.872[107, 61, 62, 81, 118, 391, 430, 350]
17.887[96, 54, 54, 73, 108, 351, 387, 318]
17.91[102, 56, 55, 70, 92, 343, 400, 345]
17.932[114, 62, 54, 67, 93, 318, 407, 378]
17.955[105, 56, 49, 64, 97, 300, 391, 371]
17.97[102, 55, 47, 61, 95, 307, 301, 338]
17.992[114, 57, 49, 65, 102, 271, 324, 361]
18.015[114, 62, 52, 66, 113, 257, 316, 343]
18.03[101, 55, 48, 60, 109, 285, 352, 331]
18.052[97, 56, 53, 67, 106, 321, 412, 330]
18.075[97, 55, 52, 67, 118, 330, 410, 334]
18.09[92, 55, 54, 66, 126, 369, 474, 319]
18.112[84, 49, 48, 62, 121, 383, 454, 318]
18.135[86, 50, 49, 68, 131, 388, 471, 293]
18.15[121, 53, 46, 69, 162, 404, 466, 392]
18.174[127, 55, 48, 69, 161, 389, 477, 414]
18.195[121, 52, 47, 68, 156, 365, 428, 397]
18.21[158, 55, 48, 70, 164, 387, 412, 513]
18.232[162, 55, 46, 67, 163, 361, 363, 522]
18.255[147, 54, 45, 62, 144, 321, 355, 459]
18.27[163, 55, 43, 63, 135, 322, 393, 498]
18.293[165, 57, 43, 62, 143, 310, 362, 495]
18.316[138, 56, 44, 64, 132, 264, 365, 379]
18.338[144, 53, 45, 62, 124, 267, 386, 419]
18.353[139, 54, 44, 56, 112, 256, 343, 410]
18.375[123, 53, 46, 57, 114, 241, 289, 377]
18.39[126, 53, 44, 54, 99, 252, 369, 445]
18.412[125, 47, 39, 57, 110, 308, 385, 475]
18.443[116, 49, 40, 60, 116, 324, 383, 422]
18.45[122, 50, 42, 62, 111, 320, 442, 447]
18.472[113, 50, 42, 63, 111, 333, 444, 414]
18.495[105, 49, 46, 68, 121, 348, 401, 332]
18.51[115, 58, 50, 65, 125, 340, 416, 309]
18.533[113, 61, 52, 71, 122, 321, 395, 320]
18.555[101, 59, 51, 74, 124, 323, 328, 277]
18.57[98, 57, 50, 74, 125, 340, 319, 284]
18.593[110, 60, 49, 73, 123, 314, 339, 336]
18.615[101, 53, 46, 68, 109, 286, 328, 326]
18.63[94, 52, 47, 65, 122, 305, 357, 323]
18.652[96, 51, 47, 64, 126, 298, 359, 319]
18.675[100, 52, 44, 59, 122, 265, 367, 335]
18.69[93, 48, 39, 55, 121, 253, 348, 288]
18.712[82, 52, 44, 65, 142, 313, 408, 267]
18.735[93, 50, 41, 60, 132, 306, 389, 292]
18.75[109, 54, 41, 58, 135, 306, 390, 332]
18.772[116, 54, 45, 62, 137, 297, 427, 322]
18.795[122, 55, 49, 63, 132, 302, 417, 334]
18.811[125, 53, 44, 52, 113, 274, 404, 389]
18.832[139, 55, 49, 58, 123, 275, 474, 447]
18.855[124, 49, 48, 59, 118, 262, 472, 424]
18.877[121, 50, 48, 59, 124, 267, 432, 426]
18.892[116, 52, 48, 58, 127, 278, 460, 431]
18.915[116, 48, 47, 59, 120, 213, 405, 379]
18.938[95, 49, 42, 51, 111, 211, 358, 283]
18.952[97, 54, 45, 56, 114, 226, 387, 274]
18.975[102, 57, 48, 65, 133, 219, 400, 306]
18.998[107, 57, 47, 66, 146, 226, 362, 289]
19.021[101, 58, 46, 67, 150, 243, 369, 277]
19.035[99, 58, 48, 70, 148, 267, 344, 260]
19.059[108, 64, 51, 75, 174, 280, 395, 338]
19.072[99, 59, 47, 69, 162, 303, 390, 301]
19.095[98, 60, 46, 72, 156, 323, 427, 339]
19.118[107, 65, 52, 73, 156, 318, 441, 364]
19.132[114, 63, 50, 73, 159, 317, 437, 377]
19.155[104, 55, 45, 64, 152, 341, 378, 316]
19.178[102, 58, 47, 59, 146, 339, 380, 329]
19.193[102, 59, 49, 55, 137, 322, 353, 314]
19.215[95, 52, 44, 54, 149, 382, 360, 323]
19.238[97, 57, 48, 60, 152, 374, 362, 358]
19.252[93, 54, 48, 56, 128, 342, 361, 369]
19.275[92, 50, 45, 57, 127, 338, 359, 354]
19.298[98, 56, 50, 56, 130, 382, 379, 346]
19.312[99, 59, 49, 56, 120, 340, 371, 329]
19.335[92, 53, 44, 52, 111, 326, 378, 283]
19.358[115, 67, 52, 56, 106, 353, 433, 294]
19.372[129, 71, 56, 66, 137, 365, 467, 360]
19.395[116, 63, 49, 65, 147, 330, 460, 343]
19.418[124, 67, 52, 64, 144, 321, 453, 343]
19.432[126, 67, 52, 62, 142, 341, 464, 369]
19.455[108, 57, 44, 63, 148, 369, 415, 364]
19.478[104, 52, 42, 61, 136, 358, 371, 358]
19.492[122, 54, 45, 69, 138, 347, 362, 405]
19.515[135, 53, 48, 73, 144, 358, 382, 431]
19.538[135, 52, 47, 74, 144, 363, 355, 409]
19.552[142, 54, 49, 76, 147, 304, 345, 417]
19.575[149, 60, 55, 76, 131, 293, 338, 407]
19.598[137, 60, 55, 73, 115, 283, 319, 360]
19.613[119, 55, 52, 71, 113, 273, 294, 346]
19.643[114, 56, 52, 67, 115, 245, 272, 348]
19.658[120, 60, 54, 66, 108, 262, 274, 375]
19.673[111, 58, 48, 65, 112, 281, 310, 349]
19.695[114, 55, 45, 61, 117, 299, 316, 365]
19.718[113, 57, 46, 56, 117, 348, 320, 357]
19.732[113, 57, 49, 60, 126, 342, 332, 356]
19.755[100, 53, 47, 58, 123, 324, 349, 315]
19.778[98, 54, 49, 55, 118, 311, 325, 310]
19.793[94, 57, 57, 68, 125, 330, 339, 315]
19.815[93, 55, 56, 74, 124, 261, 335, 292]
19.838[94, 59, 58, 74, 120, 299, 344, 284]
19.86[99, 62, 56, 75, 127, 309, 353, 298]
19.875[94, 55, 54, 78, 130, 311, 346, 292]
19.898[94, 51, 46, 67, 110, 256, 359, 298]
19.92[93, 48, 44, 60, 105, 278, 421, 311]
19.935[106, 45, 39, 57, 92, 229, 421, 410]
19.958[98, 39, 42, 70, 81, 208, 401, 387]
19.981[91, 40, 45, 111, 96, 185, 406, 376]
19.995[91, 48, 69, 230, 135, 187, 374, 358]
20.018[88, 56, 91, 334, 163, 125, 265, 345]
20.041[67, 65, 116, 456, 216, 125, 233, 207]
20.055[66, 65, 121, 498, 228, 119, 184, 187]
20.078[72, 80, 150, 577, 295, 130, 143, 164]
20.1[66, 84, 162, 618, 315, 123, 104, 115]
20.115[62, 85, 161, 594, 332, 115, 85, 81]
20.138[62, 87, 159, 559, 331, 111, 78, 68]
20.16[61, 90, 165, 541, 339, 113, 77, 62]
20.175[54, 83, 154, 500, 331, 97, 60, 57]
20.198[48, 74, 131, 411, 309, 89, 51, 53]
20.221[43, 67, 119, 376, 273, 82, 48, 46]
20.235[36, 54, 100, 307, 237, 72, 36, 35]
20.258[31, 44, 83, 273, 214, 63, 29, 31]
20.282[24, 29, 47, 159, 111, 41, 20, 20]
20.295[23, 26, 42, 131, 68, 30, 17, 16]
20.318[22, 26, 41, 122, 63, 28, 17, 17]
20.348[18, 23, 34, 80, 54, 23, 19, 19]
20.354[19, 23, 26, 83, 43, 20, 20, 19]
20.378[20, 22, 25, 80, 38, 20, 21, 20]
20.4[17, 25, 24, 85, 39, 19, 20, 20]
20.415[18, 24, 24, 84, 37, 20, 21, 22]
20.438[18, 23, 22, 81, 34, 19, 21, 19]
20.46[18, 22, 20, 56, 32, 18, 19, 20]
20.475[16, 24, 20, 48, 28, 18, 20, 20]
20.498[18, 22, 20, 34, 23, 19, 20, 21]
20.52[18, 22, 20, 33, 22, 19, 19, 20]
20.535[17, 21, 20, 28, 22, 19, 21, 20]
20.558[16, 22, 20, 24, 20, 21, 21, 20]
20.58[16, 19, 19, 23, 18, 20, 20, 19]
20.595[18, 19, 19, 22, 19, 19, 19, 19]
20.618[18, 18, 21, 22, 19, 18, 21, 17]
20.64[20, 20, 22, 21, 19, 18, 20, 27]
20.655[21, 19, 22, 22, 21, 16, 24, 33]
20.678[21, 20, 23, 24, 22, 17, 25, 33]
20.7[20, 19, 22, 23, 20, 17, 25, 35]
20.715[21, 20, 23, 23, 19, 19, 24, 37]
20.738[20, 19, 21, 23, 20, 20, 23, 31]
20.76[19, 19, 20, 21, 18, 21, 19, 24]
20.783[19, 19, 21, 19, 18, 20, 19, 24]
20.798[19, 19, 21, 20, 18, 19, 21, 23]
20.821[17, 19, 20, 20, 20, 19, 20, 22]
20.843[16, 19, 19, 20, 18, 18, 21, 23]
20.858[17, 20, 21, 22, 20, 18, 21, 24]
20.881[18, 19, 20, 24, 18, 18, 20, 24]
20.903[18, 19, 19, 22, 19, 19, 17, 23]
20.918[19, 20, 18, 21, 17, 18, 18, 22]
20.94[20, 21, 20, 20, 20, 17, 17, 19]
20.963[20, 20, 17, 20, 21, 18, 17, 20]
20.978[22, 22, 18, 17, 22, 17, 16, 19]
21.0[22, 22, 20, 20, 24, 18, 18, 19]
21.023[22, 22, 21, 20, 24, 18, 16, 20]
21.038[22, 20, 20, 21, 23, 17, 19, 21]
21.06[22, 22, 20, 20, 18, 17, 19, 20]
21.083[19, 20, 22, 21, 17, 17, 19, 20]
21.098[19, 21, 22, 19, 16, 16, 18, 21]
21.121[19, 21, 22, 18, 19, 18, 19, 19]
21.143[18, 21, 22, 21, 20, 19, 17, 18]
21.158[20, 19, 23, 20, 22, 19, 19, 17]
21.188[20, 21, 22, 20, 22, 19, 19, 16]
21.203[18, 22, 21, 19, 22, 19, 20, 16]
21.218[18, 22, 22, 19, 22, 19, 20, 16]
21.24[18, 23, 21, 17, 20, 19, 20, 16]
21.263[20, 23, 21, 18, 20, 19, 18, 16]
21.277[18, 22, 22, 19, 21, 19, 17, 17]
21.3[19, 21, 22, 20, 21, 19, 17, 17]
21.323[18, 21, 22, 19, 21, 18, 17, 18]
21.345[18, 19, 21, 18, 22, 17, 18, 18]
21.36[16, 19, 21, 18, 21, 17, 19, 19]
21.383[16, 19, 20, 17, 21, 18, 21, 18]
21.397[17, 19, 21, 17, 19, 19, 21, 17]
21.42[18, 19, 20, 19, 19, 19, 22, 17]
21.443[20, 21, 20, 21, 19, 19, 21, 16]
21.457[19, 22, 22, 22, 18, 21, 22, 17]
21.48[22, 21, 21, 23, 19, 21, 20, 17]
21.503[22, 21, 20, 22, 22, 20, 19, 21]
21.517[21, 20, 21, 22, 21, 19, 19, 22]
21.54[20, 19, 21, 23, 21, 18, 18, 23]
21.563[21, 19, 20, 21, 22, 16, 17, 22]
21.585[19, 20, 20, 20, 22, 14, 17, 23]
21.601[19, 20, 20, 19, 22, 15, 17, 21]
21.622[19, 19, 21, 18, 23, 16, 18, 23]
21.645[18, 18, 20, 15, 22, 17, 19, 23]
21.661[18, 19, 20, 16, 21, 20, 18, 22]
21.69[19, 20, 20, 19, 21, 21, 19, 22]
21.705[18, 20, 19, 19, 18, 21, 18, 23]
21.721[19, 20, 17, 20, 17, 21, 19, 22]
21.742[19, 21, 18, 23, 17, 21, 18, 21]
21.765[18, 21, 18, 23, 18, 18, 20, 21]
21.781[17, 20, 17, 21, 18, 18, 20, 21]
21.802[17, 20, 19, 21, 18, 22, 20, 20]
21.825[18, 23, 21, 21, 19, 21, 18, 17]
21.841[19, 22, 22, 19, 20, 21, 19, 19]
21.862[20, 21, 22, 18, 20, 27, 17, 19]
21.885[22, 23, 22, 19, 20, 35, 17, 20]
21.901[20, 22, 22, 20, 20, 39, 17, 21]
21.922[20, 20, 21, 19, 21, 40, 21, 23]
21.946[18, 20, 20, 20, 20, 41, 22, 22]
21.961[18, 20, 20, 22, 20, 38, 22, 22]
21.982[15, 18, 20, 22, 21, 30, 22, 19]
22.005[16, 18, 20, 22, 21, 21, 24, 18]
22.021[18, 17, 18, 22, 20, 19, 22, 14]
22.042[17, 18, 18, 20, 20, 17, 21, 16]
22.065[18, 19, 19, 20, 21, 16, 21, 17]
22.081[21, 22, 18, 21, 21, 15, 21, 18]
22.102[21, 23, 19, 21, 23, 13, 19, 19]
22.125[20, 23, 21, 26, 23, 17, 18, 20]
22.141[21, 22, 20, 27, 23, 16, 20, 20]
22.162[22, 23, 21, 26, 22, 17, 19, 18]
22.185[20, 22, 21, 24, 21, 18, 20, 18]
22.201[21, 23, 19, 24, 19, 18, 20, 18]
22.222[22, 25, 20, 18, 18, 15, 21, 16]
22.245[22, 26, 22, 16, 20, 17, 19, 18]
22.261[20, 24, 20, 19, 20, 16, 21, 17]
22.282[20, 24, 21, 20, 19, 17, 20, 18]
22.304[20, 23, 20, 21, 20, 16, 19, 19]
22.321[20, 22, 18, 21, 25, 16, 19, 20]
22.35[26, 21, 17, 21, 28, 15, 19, 20]
22.364[26, 21, 16, 20, 29, 16, 18, 20]
22.381[25, 20, 15, 20, 30, 15, 17, 20]
22.402[24, 18, 17, 19, 30, 17, 19, 19]
22.425[22, 18, 18, 20, 27, 18, 18, 20]
22.441[15, 17, 18, 19, 23, 20, 19, 19]
22.462[15, 19, 21, 19, 20, 19, 17, 18]
22.484[16, 19, 22, 17, 20, 20, 21, 17]
22.501[19, 20, 21, 18, 21, 20, 19, 17]
22.53[22, 20, 21, 20, 20, 20, 21, 16]
22.545[21, 21, 21, 20, 22, 18, 21, 16]
22.561[22, 18, 20, 21, 22, 18, 22, 15]
22.582[22, 19, 20, 23, 22, 19, 19, 17]
22.605[22, 18, 22, 24, 22, 17, 20, 17]
22.62[20, 19, 21, 23, 22, 17, 17, 19]
22.644[20, 19, 22, 24, 19, 19, 18, 19]
22.665[21, 20, 21, 24, 20, 19, 18, 22]
22.687[21, 20, 22, 22, 19, 19, 17, 21]
22.702[21, 22, 21, 20, 18, 20, 17, 23]
22.725[22, 21, 21, 19, 18, 20, 17, 21]
22.747[21, 21, 20, 18, 20, 19, 16, 22]
22.762[21, 21, 21, 18, 21, 20, 17, 18]
22.785[22, 20, 19, 19, 20, 19, 16, 17]
22.807[21, 18, 19, 19, 22, 19, 17, 14]
22.822[20, 20, 21, 18, 22, 20, 18, 15]
22.845[21, 20, 21, 19, 21, 18, 20, 17]
22.867[19, 18, 22, 18, 19, 19, 20, 18]
22.882[17, 19, 21, 17, 20, 20, 22, 18]
22.905[19, 20, 22, 17, 19, 21, 22, 20]
22.927[19, 19, 20, 16, 20, 21, 21, 20]
22.942[23, 19, 22, 19, 19, 22, 19, 19]
22.965[23, 19, 21, 20, 22, 20, 18, 18]
22.987[27, 17, 22, 20, 21, 21, 18, 19]
23.004[29, 19, 20, 20, 20, 20, 18, 19]
23.025[28, 18, 21, 20, 21, 19, 19, 19]
23.047[26, 18, 19, 18, 21, 18, 20, 19]
23.062[26, 23, 20, 18, 22, 19, 20, 19]
23.086[22, 24, 21, 19, 23, 19, 20, 19]
23.107[19, 21, 22, 19, 22, 21, 22, 17]
23.122[18, 22, 21, 21, 22, 21, 22, 18]
23.145[16, 22, 21, 21, 25, 20, 22, 17]
23.167[16, 17, 19, 21, 22, 21, 24, 21]
23.182[17, 18, 18, 20, 22, 19, 23, 20]
23.205[17, 19, 18, 20, 23, 16, 20, 21]
23.227[19, 20, 18, 17, 21, 18, 20, 22]
23.242[19, 21, 17, 17, 20, 20, 22, 21]
23.273[20, 22, 18, 17, 20, 20, 21, 20]
23.287[20, 21, 19, 20, 18, 21, 19, 20]
23.304[20, 22, 19, 20, 18, 20, 20, 20]
23.325[18, 22, 19, 21, 19, 19, 21, 19]
23.347[20, 22, 21, 22, 17, 19, 19, 19]
23.364[19, 21, 22, 22, 19, 18, 19, 18]
23.385[19, 23, 21, 20, 20, 19, 21, 18]
23.407[19, 23, 23, 22, 20, 19, 20, 18]
23.422[21, 23, 24, 21, 20, 20, 19, 18]
23.445[18, 22, 22, 21, 21, 18, 19, 19]
23.467[18, 22, 20, 22, 20, 17, 18, 21]
23.498[20, 23, 20, 23, 21, 17, 18, 21]
23.505[22, 22, 18, 22, 21, 19, 18, 21]
23.527[21, 20, 20, 22, 20, 19, 16, 22]
23.543[22, 20, 20, 22, 20, 19, 15, 22]
23.565[21, 20, 20, 22, 20, 19, 17, 21]
23.587[20, 19, 22, 21, 19, 19, 15, 20]
23.602[19, 18, 23, 20, 23, 18, 16, 20]
23.625[18, 21, 21, 21, 25, 18, 17, 20]
23.647[18, 22, 21, 22, 26, 17, 18, 19]
23.67[19, 22, 20, 21, 26, 18, 18, 18]
23.685[19, 21, 20, 20, 27, 18, 19, 18]
23.707[19, 22, 20, 19, 24, 20, 18, 17]
23.738[18, 19, 19, 21, 23, 17, 18, 18]
23.745[17, 21, 21, 21, 22, 18, 17, 17]
23.767[19, 21, 22, 21, 22, 17, 16, 17]
23.79[19, 21, 21, 22, 19, 18, 17, 17]
23.805[19, 22, 21, 22, 22, 19, 17, 17]
23.827[20, 23, 23, 21, 22, 19, 18, 16]
23.85[20, 21, 20, 21, 24, 20, 18, 17]
23.865[19, 22, 21, 21, 23, 21, 19, 18]
23.887[19, 22, 21, 22, 23, 20, 17, 18]
23.91[19, 21, 20, 21, 19, 19, 17, 18]
23.925[19, 22, 21, 20, 17, 21, 16, 19]
23.947[20, 22, 22, 18, 15, 21, 16, 19]
23.97[20, 22, 21, 21, 16, 19, 17, 18]
23.985[19, 22, 20, 19, 15, 19, 18, 21]
24.007[22, 23, 20, 20, 19, 17, 17, 21]
24.03[22, 20, 19, 20, 19, 17, 18, 21]
24.045[20, 19, 18, 21, 18, 16, 17, 21]
24.067[19, 18, 18, 20, 18, 16, 17, 20]
24.09[18, 18, 19, 20, 19, 17, 17, 18]
24.104[16, 18, 20, 19, 16, 19, 19, 21]
24.127[14, 18, 19, 19, 18, 19, 18, 21]
24.15[14, 18, 21, 19, 20, 20, 21, 21]
24.165[16, 18, 23, 18, 21, 21, 20, 21]
24.187[17, 18, 22, 17, 22, 20, 20, 21]
24.21[17, 18, 22, 18, 22, 20, 21, 18]
24.225[19, 19, 23, 18, 21, 18, 22, 17]
24.247[19, 20, 24, 20, 20, 18, 21, 17]
24.278[19, 21, 22, 21, 19, 16, 21, 16]
24.285[19, 22, 22, 23, 18, 17, 20, 15]
24.307[19, 21, 22, 22, 19, 16, 19, 17]
24.33[18, 20, 23, 21, 18, 17, 18, 17]
24.345[19, 20, 22, 21, 20, 16, 18, 16]
24.367[21, 20, 21, 20, 20, 17, 17, 18]
24.39[22, 19, 24, 18, 19, 17, 19, 21]
24.405[21, 19, 24, 18, 18, 17, 18, 18]
24.427[22, 19, 23, 20, 18, 18, 18, 19]
24.45[22, 19, 22, 19, 16, 18, 19, 20]
24.465[19, 18, 23, 22, 16, 20, 19, 19]
24.487[19, 18, 20, 22, 16, 19, 19, 16]
24.51[20, 19, 20, 22, 16, 19, 20, 17]
24.525[19, 20, 20, 20, 18, 18, 19, 17]
24.547[19, 21, 20, 20, 17, 19, 18, 18]
24.57[20, 22, 18, 18, 17, 18, 19, 18]
24.593[19, 22, 20, 18, 17, 17, 18, 19]
24.607[18, 24, 20, 20, 16, 18, 20, 19]
24.63[18, 25, 18, 20, 15, 19, 20, 19]
24.653[18, 24, 18, 18, 16, 20, 20, 17]
24.667[19, 22, 18, 18, 17, 19, 20, 17]
24.69[19, 22, 20, 19, 18, 19, 20, 15]
24.713[19, 20, 19, 18, 21, 19, 19, 15]
24.727[20, 19, 20, 19, 23, 19, 20, 18]
24.75[20, 19, 20, 20, 23, 18, 20, 18]
24.773[19, 21, 22, 21, 24, 19, 21, 18]
24.787[19, 19, 20, 19, 23, 21, 18, 20]
24.81[19, 21, 21, 20, 21, 22, 17, 19]
24.833[20, 21, 21, 20, 19, 23, 17, 18]
24.847[20, 20, 23, 21, 19, 23, 17, 18]
24.87[20, 20, 23, 18, 19, 23, 17, 18]
24.893[18, 19, 22, 21, 20, 22, 20, 17]
24.907[19, 19, 22, 20, 19, 21, 20, 17]
24.931[18, 18, 21, 20, 20, 20, 21, 18]
24.954[17, 18, 21, 19, 20, 20, 20, 17]
24.967[20, 19, 21, 20, 20, 19, 19, 17]
24.99[20, 21, 22, 19, 19, 19, 17, 17]
25.013[18, 21, 21, 20, 20, 19, 16, 18]
25.027[18, 22, 21, 20, 19, 19, 16, 17]
25.051[18, 21, 19, 21, 17, 19, 17, 17]
25.073[19, 20, 18, 21, 16, 19, 17, 19]
25.087[20, 20, 19, 20, 17, 19, 18, 20]
25.11[21, 20, 20, 20, 20, 19, 19, 19]
25.133[21, 20, 20, 19, 20, 20, 18, 20]
25.147[21, 21, 19, 19, 21, 18, 19, 22]
25.17[21, 21, 20, 20, 21, 18, 20, 21]
25.193[20, 21, 18, 21, 22, 18, 20, 20]
25.207[20, 20, 21, 21, 19, 19, 22, 20]
25.23[21, 20, 20, 20, 19, 17, 21, 17]
25.253[21, 21, 22, 20, 20, 19, 21, 16]
25.267[17, 22, 21, 20, 19, 20, 20, 17]
25.29[16, 22, 23, 20, 19, 20, 19, 18]
25.313[17, 23, 20, 19, 20, 21, 18, 18]
25.327[17, 23, 21, 21, 20, 22, 17, 20]
25.35[16, 23, 21, 20, 21, 21, 17, 20]
25.373[17, 20, 21, 21, 23, 21, 16, 18]
25.387[19, 19, 18, 20, 22, 20, 18, 17]
25.418[18, 19, 21, 19, 21, 19, 19, 18]
25.434[20, 19, 19, 20, 21, 18, 21, 18]
25.448[21, 18, 20, 21, 20, 19, 21, 19]
25.47[20, 21, 21, 18, 19, 20, 22, 20]
25.493[20, 21, 20, 19, 20, 18, 21, 20]
25.516[22, 21, 18, 20, 20, 19, 19, 21]
25.53[20, 21, 18, 18, 22, 20, 19, 22]
25.553[20, 21, 18, 19, 22, 20, 21, 21]
25.576[21, 20, 19, 20, 22, 19, 20, 21]
25.59[21, 21, 19, 19, 22, 20, 19, 21]
25.613[21, 19, 20, 20, 21, 19, 20, 19]
25.635[20, 21, 21, 21, 19, 17, 18, 16]
25.651[21, 20, 19, 20, 21, 18, 17, 16]
25.673[20, 19, 20, 20, 22, 18, 18, 16]
25.695[20, 17, 21, 19, 21, 19, 18, 17]
25.71[18, 19, 21, 21, 22, 20, 18, 16]
25.733[17, 18, 21, 20, 22, 21, 19, 18]
25.755[19, 20, 22, 21, 23, 20, 18, 18]
25.77[18, 21, 22, 21, 22, 20, 18, 18]
25.793[18, 21, 22, 21, 23, 19, 17, 17]
25.815[20, 20, 19, 19, 21, 18, 18, 20]
25.83[19, 20, 20, 20, 21, 18, 19, 20]
25.853[17, 20, 22, 21, 19, 18, 19, 23]
25.875[17, 20, 21, 23, 21, 19, 19, 23]
25.89[18, 20, 20, 24, 20, 20, 19, 22]
25.913[17, 22, 21, 23, 20, 20, 18, 21]
25.935[19, 22, 20, 24, 21, 19, 17, 20]
25.966[19, 20, 19, 24, 19, 21, 17, 18]
25.973[20, 23, 19, 22, 16, 20, 17, 17]
25.995[19, 22, 20, 20, 18, 19, 17, 17]
26.01[18, 20, 22, 21, 20, 19, 17, 17]
26.033[18, 20, 21, 20, 21, 20, 18, 17]
26.055[18, 21, 21, 18, 21, 19, 18, 18]
26.07[17, 19, 21, 20, 21, 19, 17, 19]
26.093[18, 21, 20, 20, 21, 20, 17, 19]
26.116[19, 22, 20, 20, 20, 19, 16, 20]
26.13[19, 21, 21, 18, 18, 18, 18, 20]
26.16[18, 21, 20, 19, 18, 19, 19, 19]
26.175[20, 19, 20, 19, 19, 19, 19, 19]
26.19[22, 18, 18, 19, 18, 20, 20, 20]
26.213[22, 18, 17, 18, 20, 21, 22, 19]
26.235[20, 20, 19, 19, 21, 22, 19, 20]
26.25[22, 19, 20, 18, 21, 21, 19, 21]
26.273[20, 19, 20, 19, 23, 21, 20, 20]
26.295[23, 19, 21, 24, 27, 20, 22, 62]
26.31[32, 21, 24, 30, 46, 25, 36, 102]
26.333[35, 19, 23, 33, 48, 26, 38, 107]
26.355[35, 21, 23, 32, 49, 25, 38, 110]
26.37[36, 24, 23, 32, 49, 26, 37, 111]
26.393[35, 24, 25, 29, 46, 26, 36, 96]
26.415[26, 23, 23, 24, 27, 21, 24, 53]
26.43[24, 24, 22, 22, 24, 18, 21, 46]
26.453[23, 23, 22, 23, 22, 18, 18, 40]
26.475[22, 22, 22, 21, 24, 18, 18, 37]
26.498[20, 21, 21, 22, 25, 20, 18, 32]
26.513[19, 20, 19, 21, 25, 19, 17, 30]
26.535[18, 22, 20, 19, 25, 20, 16, 20]
26.558[18, 21, 22, 19, 27, 20, 17, 20]
26.58[18, 19, 22, 19, 23, 22, 17, 19]
26.595[17, 21, 22, 18, 25, 21, 17, 19]
26.617[17, 23, 23, 17, 26, 21, 19, 20]
26.633[16, 20, 21, 18, 25, 22, 21, 20]
26.655[16, 20, 19, 18, 26, 23, 21, 19]
26.677[15, 20, 18, 17, 27, 19, 21, 20]
26.694[15, 20, 18, 18, 26, 20, 21, 17]
26.715[17, 18, 18, 20, 25, 20, 21, 17]
26.737[17, 19, 18, 20, 25, 19, 19, 16]
26.754[18, 20, 18, 20, 24, 19, 20, 18]
26.776[19, 19, 18, 22, 22, 21, 21, 17]
26.797[18, 18, 19, 20, 22, 22, 22, 18]
26.813[18, 19, 20, 19, 21, 21, 21, 17]
26.835[20, 19, 21, 19, 21, 21, 21, 18]
26.857[19, 19, 21, 20, 20, 22, 20, 18]
26.874[19, 18, 22, 18, 22, 23, 20, 19]
26.895[19, 17, 21, 19, 23, 21, 18, 18]
26.917[19, 17, 18, 19, 22, 21, 18, 19]
26.941[19, 18, 18, 18, 21, 22, 19, 20]
26.954[19, 18, 19, 16, 22, 24, 20, 19]
26.977[18, 20, 20, 21, 21, 21, 19, 23]
26.994[20, 21, 19, 21, 20, 21, 22, 34]
27.014[27, 21, 21, 20, 20, 21, 27, 83]
27.037[25, 19, 20, 21, 22, 21, 45, 87]
27.054[25, 21, 20, 23, 22, 19, 50, 89]
27.075[26, 21, 20, 19, 21, 19, 51, 89]
27.097[28, 21, 20, 19, 21, 19, 51, 86]
27.114[23, 20, 20, 18, 26, 21, 50, 43]
27.135[23, 21, 21, 18, 24, 20, 35, 37]
27.157[22, 21, 22, 19, 23, 19, 27, 33]
27.173[22, 23, 20, 18, 25, 21, 24, 31]
27.195[20, 23, 21, 18, 26, 21, 22, 30]
27.218[18, 22, 21, 18, 21, 19, 19, 27]
27.234[18, 22, 19, 18, 22, 20, 18, 20]
27.255[17, 21, 19, 17, 23, 19, 18, 21]
27.279[18, 19, 20, 18, 24, 19, 19, 21]
27.294[16, 18, 18, 20, 25, 20, 18, 18]
27.315[15, 19, 18, 21, 26, 20, 36, 26]
27.337[17, 19, 17, 22, 25, 21, 41, 29]
27.354[20, 21, 17, 20, 26, 19, 42, 29]
27.375[20, 22, 17, 20, 23, 21, 41, 29]
27.397[21, 23, 18, 22, 23, 20, 43, 32]
27.419[21, 22, 20, 22, 24, 21, 30, 27]
27.435[20, 22, 21, 21, 24, 20, 22, 24]
27.457[17, 19, 21, 23, 23, 21, 23, 24]
27.479[17, 19, 20, 22, 24, 19, 22, 23]
27.495[19, 19, 19, 20, 24, 20, 20, 23]
27.517[18, 20, 19, 20, 23, 20, 18, 21]
27.54[19, 20, 18, 20, 23, 20, 19, 20]
27.555[20, 21, 18, 20, 25, 21, 16, 19]
27.577[22, 21, 20, 21, 25, 20, 17, 20]
27.6[21, 21, 21, 22, 23, 19, 17, 17]
27.615[21, 20, 21, 22, 24, 19, 17, 19]
27.637[22, 21, 22, 22, 25, 18, 18, 20]
27.661[21, 20, 23, 21, 21, 18, 17, 19]
27.675[19, 21, 22, 20, 21, 23, 18, 19]
27.699[20, 20, 20, 18, 21, 24, 21, 21]
27.72[22, 20, 19, 19, 20, 24, 20, 19]
27.735[20, 21, 18, 17, 18, 26, 20, 19]
27.773[19, 22, 16, 18, 19, 27, 20, 19]
27.78[20, 20, 17, 19, 19, 24, 21, 18]
27.795[18, 20, 18, 23, 19, 22, 20, 16]
27.817[17, 20, 18, 24, 20, 23, 20, 16]
27.839[18, 19, 18, 24, 19, 22, 20, 17]
27.854[18, 18, 18, 25, 19, 23, 21, 19]
27.879[19, 20, 18, 25, 20, 25, 23, 19]
27.899[20, 19, 19, 22, 23, 25, 23, 23]
27.915[20, 19, 20, 20, 23, 24, 21, 25]
27.937[19, 19, 20, 20, 26, 23, 21, 25]
27.96[20, 19, 21, 20, 26, 20, 24, 24]
27.975[21, 17, 23, 21, 29, 19, 21, 25]
27.997[21, 17, 23, 20, 26, 19, 22, 20]
28.028[21, 16, 22, 20, 28, 21, 25, 20]
28.035[22, 17, 22, 20, 25, 20, 25, 20]
28.058[22, 17, 21, 18, 25, 20, 22, 20]
28.079[20, 18, 19, 18, 23, 21, 23, 19]
28.094[21, 20, 20, 19, 24, 20, 21, 19]
28.117[22, 22, 22, 19, 21, 18, 18, 18]
28.14[22, 20, 21, 19, 21, 19, 22, 17]
28.154[23, 22, 24, 20, 23, 18, 22, 20]
28.177[23, 21, 24, 22, 20, 18, 22, 21]
28.199[22, 22, 23, 21, 19, 18, 21, 22]
28.222[20, 22, 21, 21, 20, 20, 22, 23]
28.237[19, 23, 22, 21, 21, 18, 18, 23]
28.26[17, 22, 19, 21, 20, 21, 18, 20]
28.282[16, 23, 19, 18, 21, 19, 20, 22]
28.297[18, 22, 20, 19, 21, 20, 21, 21]
28.32[18, 21, 20, 19, 23, 21, 19, 21]
28.335[19, 22, 20, 20, 20, 21, 20, 20]
28.357[19, 20, 21, 21, 21, 19, 22, 19]
28.38[22, 22, 22, 22, 21, 21, 20, 17]
28.402[22, 21, 21, 20, 21, 20, 21, 17]
28.419[22, 20, 22, 20, 23, 19, 21, 18]
28.44[22, 20, 21, 21, 24, 20, 20, 19]
28.462[21, 19, 19, 20, 23, 20, 18, 20]
28.477[19, 17, 18, 21, 24, 19, 19, 20]
28.499[17, 20, 18, 21, 24, 21, 17, 20]
28.522[17, 21, 18, 24, 21, 20, 18, 18]
28.538[17, 19, 18, 22, 24, 21, 18, 19]
28.559[17, 20, 19, 22, 24, 22, 16, 16]
28.582[15, 20, 19, 23, 25, 20, 17, 16]
28.597[14, 19, 20, 22, 24, 20, 18, 18]
28.619[17, 18, 19, 20, 25, 21, 17, 18]
28.642[17, 20, 20, 21, 23, 18, 20, 18]
28.657[17, 20, 23, 21, 24, 17, 20, 20]
28.68[17, 20, 22, 19, 22, 19, 20, 18]
28.702[21, 19, 21, 19, 23, 19, 20, 17]
28.717[18, 21, 21, 19, 22, 18, 20, 18]
28.74[19, 22, 21, 18, 21, 20, 17, 18]
28.762[20, 22, 19, 19, 19, 21, 17, 16]
28.777[21, 22, 19, 20, 18, 19, 15, 18]
28.8[17, 22, 20, 21, 18, 19, 15, 19]
28.822[18, 21, 19, 21, 19, 19, 16, 18]
28.837[18, 20, 18, 22, 22, 18, 17, 19]
28.86[19, 21, 19, 22, 23, 18, 17, 20]
28.882[19, 20, 19, 21, 23, 19, 18, 20]
28.897[20, 19, 18, 22, 24, 20, 21, 21]
28.92[21, 17, 19, 21, 24, 19, 20, 21]
28.95[22, 17, 20, 20, 22, 20, 19, 19]
28.957[20, 18, 18, 18, 22, 19, 20, 19]
28.988[21, 18, 20, 21, 24, 22, 19, 18]
29.002[20, 20, 20, 21, 23, 21, 16, 16]
29.017[19, 20, 20, 21, 22, 22, 17, 16]
29.039[17, 21, 21, 21, 21, 21, 17, 17]
29.062[17, 21, 21, 24, 21, 22, 16, 17]
29.078[18, 22, 19, 22, 21, 19, 18, 17]
29.1[18, 20, 19, 23, 21, 19, 18, 17]
29.123[19, 21, 19, 23, 22, 17, 18, 17]
29.137[20, 22, 20, 23, 24, 18, 17, 18]
29.16[21, 20, 20, 20, 22, 18, 16, 17]
29.182[19, 20, 21, 20, 21, 19, 15, 18]
29.197[20, 21, 20, 18, 21, 19, 15, 19]
29.219[21, 21, 21, 18, 21, 20, 18, 20]
29.242[19, 20, 20, 20, 21, 19, 18, 20]
29.257[19, 19, 19, 20, 21, 19, 18, 20]
29.28[19, 20, 20, 19, 23, 18, 19, 19]
29.302[17, 19, 22, 24, 23, 18, 18, 19]
29.325[17, 20, 22, 25, 24, 19, 16, 19]
29.34[18, 19, 21, 24, 24, 21, 17, 21]
29.362[17, 19, 22, 25, 24, 20, 19, 22]
29.385[19, 20, 23, 26, 22, 21, 18, 23]
29.399[18, 21, 22, 22, 21, 21, 17, 22]
29.422[16, 22, 20, 20, 19, 20, 18, 21]
29.445[15, 22, 20, 21, 19, 19, 18, 17]
29.459[15, 21, 20, 21, 20, 20, 17, 17]
29.482[17, 22, 21, 19, 25, 20, 16, 17]
29.505[18, 21, 20, 19, 25, 20, 18, 19]
29.519[19, 21, 21, 20, 26, 20, 17, 20]
29.542[19, 21, 21, 20, 25, 18, 20, 23]
29.565[19, 22, 19, 20, 24, 20, 20, 22]
29.58[16, 22, 18, 22, 22, 19, 21, 22]
29.602[17, 23, 18, 22, 22, 20, 20, 19]
29.625[17, 22, 17, 22, 23, 20, 21, 19]
29.639[17, 22, 17, 21, 24, 21, 19, 16]
29.662[19, 24, 21, 20, 24, 19, 21, 16]
29.686[19, 22, 21, 19, 23, 20, 21, 15]
29.699[19, 22, 21, 20, 24, 20, 20, 16]
29.722[19, 21, 22, 22, 24, 19, 22, 16]
29.745[18, 22, 22, 21, 22, 20, 21, 19]
29.759[16, 19, 20, 23, 24, 20, 19, 19]
29.782[17, 21, 20, 22, 25, 19, 19, 20]
29.805[17, 22, 21, 21, 24, 18, 19, 20]
29.819[17, 21, 22, 20, 24, 18, 17, 21]
29.842[17, 22, 22, 22, 22, 18, 17, 19]
29.865[19, 22, 21, 20, 22, 18, 17, 20]
29.879[20, 20, 22, 21, 21, 18, 18, 19]
29.902[20, 20, 21, 21, 22, 18, 19, 18]
29.926[20, 20, 19, 21, 23, 18, 20, 19]
29.939[21, 18, 20, 20, 25, 18, 20, 20]
29.963[21, 18, 22, 20, 23, 21, 19, 20]
29.986[20, 19, 22, 18, 24, 22, 20, 20]
29.999[18, 21, 21, 19, 23, 21, 20, 20]
30.023[21, 19, 21, 19, 23, 22, 19, 19]
30.053[20, 20, 21, 18, 23, 21, 18, 17]
30.059[18, 21, 19, 19, 24, 20, 19, 17]
30.083[21, 22, 19, 22, 25, 19, 19, 19]
30.105[20, 22, 22, 22, 26, 19, 18, 19]
30.119[19, 23, 21, 23, 26, 19, 18, 19]
30.143[18, 23, 20, 23, 25, 19, 20, 19]
30.165[20, 23, 22, 22, 26, 17, 19, 20]
30.179[20, 23, 22, 23, 24, 19, 17, 20]
30.203[20, 22, 20, 22, 24, 21, 16, 19]
30.225[20, 21, 20, 21, 23, 23, 16, 21]
30.248[21, 20, 21, 22, 23, 23, 15, 21]
30.263[20, 22, 18, 21, 20, 24, 16, 20]
30.285[20, 21, 19, 21, 22, 23, 17, 19]
30.308[21, 21, 19, 21, 21, 21, 20, 20]
30.323[20, 21, 19, 23, 23, 20, 19, 19]
30.346[21, 21, 18, 24, 22, 19, 20, 20]
30.368[21, 20, 19, 24, 24, 18, 21, 20]
30.383[19, 22, 18, 23, 22, 19, 21, 20]
30.405[19, 20, 17, 23, 23, 18, 19, 20]
30.428[18, 20, 20, 22, 22, 17, 20, 20]
30.443[18, 21, 22, 21, 22, 18, 20, 18]
30.465[17, 19, 21, 21, 21, 19, 18, 18]
30.488[17, 17, 21, 20, 20, 17, 17, 18]
30.503[18, 18, 22, 20, 24, 20, 20, 19]
30.525[17, 18, 22, 19, 25, 21, 20, 19]
30.548[17, 17, 21, 20, 26, 22, 20, 19]
30.563[16, 17, 22, 19, 27, 22, 20, 20]
30.585[18, 18, 22, 21, 26, 22, 20, 20]
30.608[17, 17, 21, 21, 22, 23, 18, 16]
30.623[18, 20, 19, 22, 21, 22, 18, 16]
30.645[20, 19, 19, 21, 23, 22, 19, 17]
30.668[19, 19, 16, 21, 25, 22, 20, 17]
30.683[19, 19, 18, 20, 25, 20, 20, 18]
30.705[19, 19, 18, 18, 25, 18, 19, 18]
30.728[20, 17, 19, 17, 26, 20, 19, 18]
30.743[19, 19, 20, 18, 25, 19, 19, 16]
30.765[19, 21, 22, 20, 24, 21, 21, 17]
30.788[19, 20, 22, 20, 24, 22, 21, 16]
30.802[19, 20, 22, 20, 24, 21, 21, 15]
30.825[20, 22, 21, 23, 28, 24, 21, 16]
30.848[21, 23, 23, 38, 27, 24, 21, 20]
30.862[26, 25, 27, 56, 38, 32, 22, 21]
30.885[28, 26, 29, 76, 42, 34, 23, 23]
30.908[33, 33, 37, 102, 51, 42, 27, 28]
30.922[37, 35, 43, 120, 64, 62, 31, 28]
30.945[38, 34, 46, 124, 72, 69, 41, 30]
30.968[36, 32, 44, 118, 70, 79, 44, 35]
30.982[42, 36, 43, 106, 70, 124, 56, 50]
31.005[46, 35, 40, 93, 74, 149, 65, 63]
31.028[58, 44, 42, 76, 74, 179, 92, 104]
31.042[62, 45, 39, 66, 82, 218, 113, 147]
31.066[79, 56, 45, 69, 94, 230, 129, 168]
31.088[81, 57, 50, 72, 98, 246, 160, 208]
31.102[95, 67, 58, 76, 120, 283, 262, 324]
31.133[94, 68, 66, 93, 133, 308, 310, 341]
31.148[114, 75, 77, 111, 145, 340, 415, 501]
31.162[116, 74, 80, 118, 152, 357, 461, 548]
31.185[129, 80, 88, 145, 205, 465, 542, 589]
31.208[165, 85, 90, 150, 217, 469, 530, 639]
31.23[200, 93, 93, 151, 245, 599, 832, 730]
31.245[199, 97, 90, 147, 249, 591, 821, 685]
31.268[197, 96, 87, 145, 259, 642, 811, 662]
31.29[203, 91, 81, 127, 244, 632, 777, 649]
31.305[177, 85, 79, 124, 251, 705, 828, 578]
31.328[150, 76, 71, 116, 251, 667, 580, 505]
31.358[146, 65, 66, 110, 243, 708, 620, 534]
31.365[158, 66, 65, 111, 240, 680, 631, 573]
31.388[137, 65, 62, 104, 217, 628, 614, 568]
31.41[130, 65, 60, 97, 195, 586, 584, 560]
31.425[116, 64, 58, 92, 171, 514, 573, 537]
31.448[123, 71, 60, 90, 185, 485, 513, 464]
31.47[117, 72, 65, 90, 192, 470, 565, 427]
31.485[154, 78, 69, 96, 203, 497, 648, 525]
31.508[153, 74, 66, 94, 200, 540, 730, 534]
31.53[155, 71, 66, 98, 191, 533, 721, 531]
31.545[149, 68, 64, 98, 184, 508, 715, 508]
31.568[156, 64, 58, 89, 155, 507, 663, 551]
31.59[123, 58, 55, 82, 144, 461, 603, 426]
31.606[121, 58, 52, 81, 147, 327, 460, 392]
31.628[122, 58, 51, 78, 154, 305, 444, 394]
31.651[113, 58, 51, 90, 174, 266, 495, 427]
31.666[88, 60, 53, 92, 176, 227, 499, 350]
31.688[92, 59, 51, 93, 175, 256, 467, 356]
31.71[116, 64, 54, 94, 180, 263, 471, 379]
31.726[111, 63, 57, 101, 183, 327, 453, 377]
31.748[119, 63, 57, 95, 164, 398, 431, 335]
31.77[138, 64, 58, 97, 172, 401, 476, 381]
31.786[135, 65, 60, 98, 182, 398, 514, 368]
31.807[116, 60, 58, 94, 169, 414, 536, 372]
31.83[120, 64, 62, 90, 157, 384, 564, 387]
31.846[113, 64, 62, 86, 166, 346, 553, 384]
31.867[99, 66, 60, 83, 160, 352, 523, 324]
31.889[102, 67, 60, 79, 149, 351, 540, 371]
31.906[109, 70, 61, 79, 148, 377, 523, 359]
31.927[112, 72, 56, 74, 138, 356, 469, 325]
31.95[120, 75, 63, 84, 127, 362, 463, 337]
31.966[111, 70, 67, 90, 141, 394, 449, 343]
31.987[120, 69, 65, 91, 139, 404, 398, 333]
32.01[112, 64, 64, 97, 142, 363, 358, 334]
32.026[101, 61, 63, 96, 142, 383, 379, 330]
32.048[91, 52, 54, 83, 135, 359, 367, 319]
32.07[96, 49, 47, 75, 120, 345, 354, 312]
32.086[80, 51, 48, 72, 119, 349, 333, 278]
32.107[80, 55, 47, 62, 114, 351, 351, 267]
32.13[77, 50, 40, 56, 120, 340, 375, 267]
32.16[80, 53, 41, 58, 113, 342, 338, 253]
32.167[83, 56, 43, 59, 121, 337, 342, 274]
32.189[95, 61, 45, 59, 133, 340, 348, 265]
32.212[104, 62, 47, 61, 138, 333, 436, 300]
32.227[119, 66, 48, 63, 148, 341, 414, 316]
32.265[120, 67, 52, 64, 155, 350, 446, 330]
32.272[116, 63, 50, 67, 155, 331, 448, 323]
32.287[105, 57, 47, 67, 150, 333, 464, 332]
32.31[104, 56, 47, 62, 144, 330, 358, 332]
32.332[95, 56, 47, 59, 128, 308, 374, 304]
32.347[97, 58, 46, 59, 121, 291, 338, 293]
32.37[97, 62, 49, 55, 120, 286, 339, 276]
32.392[113, 73, 56, 62, 125, 253, 366, 288]
32.407[112, 71, 53, 60, 124, 242, 388, 232]
32.429[103, 67, 51, 59, 122, 324, 373, 237]
32.452[101, 65, 47, 56, 121, 354, 406, 247]
32.467[96, 62, 45, 55, 116, 356, 412, 261]
32.489[76, 48, 33, 46, 116, 354, 370, 259]
32.512[68, 50, 37, 56, 117, 359, 363, 256]
32.527[72, 51, 43, 59, 115, 274, 340, 241]
32.55[65, 51, 44, 62, 108, 226, 281, 226]
32.572[71, 52, 45, 60, 104, 218, 261, 228]
32.587[72, 55, 49, 64, 96, 223, 267, 206]
32.61[82, 63, 58, 72, 111, 258, 283, 220]
32.632[80, 65, 57, 72, 127, 278, 319, 212]
32.647[82, 63, 55, 71, 136, 278, 336, 222]
32.67[82, 66, 56, 74, 138, 295, 382, 212]
32.692[91, 64, 56, 74, 133, 276, 375, 246]
32.714[81, 53, 45, 61, 118, 240, 370, 233]
32.73[79, 53, 43, 57, 99, 234, 346, 237]
32.752[78, 55, 45, 59, 88, 249, 366, 227]
32.767[77, 54, 46, 64, 86, 233, 350, 217]
32.79[74, 56, 48, 62, 87, 229, 394, 210]
32.82[82, 58, 47, 62, 91, 236, 407, 233]
32.827[85, 55, 48, 61, 90, 226, 414, 244]
32.85[99, 61, 51, 66, 115, 231, 420, 264]
32.88[104, 62, 53, 65, 117, 233, 424, 264]
32.887[97, 62, 52, 70, 127, 279, 388, 240]
32.91[87, 61, 52, 72, 127, 268, 362, 255]
32.932[86, 64, 54, 77, 135, 285, 376, 263]
32.947[80, 60, 52, 74, 115, 262, 365, 268]
32.97[74, 58, 51, 71, 120, 268, 328, 267]
32.992[74, 57, 51, 67, 113, 224, 344, 255]
33.007[80, 56, 52, 65, 113, 225, 351, 218]
33.029[82, 52, 50, 67, 120, 198, 344, 234]
33.052[82, 47, 48, 66, 122, 222, 329, 239]
33.067[85, 48, 48, 69, 120, 254, 385, 240]
33.09[85, 44, 44, 67, 121, 271, 403, 242]
33.112[83, 45, 43, 66, 121, 322, 402, 248]
33.135[84, 48, 44, 68, 118, 365, 393, 242]
33.149[74, 47, 45, 72, 121, 367, 414, 215]
33.172[78, 53, 47, 73, 123, 337, 402, 227]
33.194[88, 55, 49, 77, 126, 324, 400, 249]
33.21[96, 61, 55, 85, 140, 317, 401, 254]
33.232[97, 64, 60, 87, 136, 290, 398, 273]
33.254[96, 63, 58, 81, 131, 303, 408, 272]
33.27[97, 57, 53, 74, 133, 332, 378, 288]
33.3[92, 54, 53, 72, 127, 343, 340, 282]
33.323[87, 46, 46, 61, 108, 330, 388, 359]
33.329[79, 41, 39, 55, 125, 374, 429, 331]
33.352[86, 44, 38, 61, 130, 362, 435, 333]
33.374[84, 43, 40, 60, 123, 352, 437, 314]
33.39[81, 48, 41, 62, 128, 374, 460, 306]
33.412[95, 54, 45, 67, 139, 354, 407, 293]
33.434[109, 57, 48, 63, 122, 311, 392, 373]
33.45[115, 59, 50, 64, 119, 292, 334, 395]
33.472[112, 58, 48, 63, 117, 281, 348, 392]
33.494[114, 57, 47, 61, 118, 293, 418, 411]
33.509[98, 53, 43, 59, 108, 299, 436, 359]
33.532[92, 53, 39, 59, 111, 298, 444, 297]
33.554[85, 52, 38, 63, 118, 330, 461, 289]
33.57[89, 52, 40, 63, 117, 323, 452, 291]
33.592[86, 53, 42, 73, 141, 302, 354, 272]
33.614[85, 54, 45, 73, 142, 312, 364, 259]
33.631[79, 49, 45, 72, 141, 305, 341, 259]
33.652[71, 50, 46, 67, 129, 285, 373, 226]
33.674[64, 47, 46, 66, 129, 286, 383, 251]
33.69[67, 45, 44, 55, 94, 269, 439, 284]
33.712[67, 43, 38, 53, 90, 295, 450, 282]
33.734[66, 45, 39, 59, 95, 276, 436, 258]
33.749[76, 47, 37, 55, 116, 288, 386, 297]
33.772[76, 49, 36, 58, 129, 290, 363, 273]
33.794[71, 49, 35, 56, 133, 281, 314, 257]
33.818[75, 50, 38, 57, 134, 227, 311, 295]
33.832[78, 51, 35, 51, 130, 235, 301, 315]
33.854[78, 55, 41, 54, 112, 246, 320, 293]
33.869[78, 53, 41, 53, 92, 251, 334, 292]
33.892[79, 53, 42, 62, 98, 247, 340, 273]
33.914[74, 50, 41, 61, 93, 264, 294, 232]
33.93[65, 52, 47, 67, 89, 263, 323, 191]
33.952[55, 44, 43, 66, 92, 221, 341, 168]
33.974[60, 50, 43, 67, 95, 213, 339, 162]
33.99[69, 49, 42, 62, 86, 225, 316, 193]
34.012[72, 50, 44, 63, 89, 202, 319, 188]
34.034[84, 53, 42, 59, 92, 207, 299, 202]
34.058[85, 53, 42, 58, 92, 228, 291, 214]
34.072[80, 49, 42, 59, 93, 239, 334, 217]
34.094[76, 50, 41, 57, 91, 222, 331, 201]
34.118[87, 53, 41, 58, 87, 231, 320, 238]
34.132[82, 49, 39, 55, 94, 239, 363, 234]
34.155[83, 51, 41, 55, 92, 236, 352, 235]
34.185[84, 51, 40, 56, 94, 220, 296, 229]
34.192[92, 57, 46, 58, 91, 234, 292, 225]
34.214[81, 53, 46, 60, 98, 232, 313, 187]
34.238[78, 53, 46, 60, 92, 246, 303, 182]
34.252[78, 53, 45, 64, 93, 237, 302, 182]
34.275[80, 52, 44, 59, 84, 239, 349, 186]
34.298[70, 49, 41, 61, 89, 249, 413, 191]
34.32[71, 49, 39, 59, 88, 272, 435, 198]
34.335[71, 47, 39, 56, 86, 265, 415, 208]
34.358[67, 45, 38, 57, 97, 285, 439, 196]
34.372[65, 48, 42, 61, 101, 280, 404, 196]
34.395[58, 39, 39, 57, 101, 289, 405, 207]
34.418[66, 47, 40, 58, 103, 267, 385, 210]
34.432[65, 56, 43, 63, 116, 265, 405, 198]
34.454[70, 57, 45, 57, 115, 240, 406, 208]
34.478[73, 56, 41, 56, 117, 307, 422, 204]
34.492[73, 57, 43, 57, 123, 283, 416, 164]
34.514[74, 52, 42, 57, 116, 291, 411, 194]
34.538[79, 45, 39, 59, 119, 325, 390, 206]
34.56[75, 40, 37, 60, 115, 358, 396, 199]
34.574[74, 39, 36, 59, 121, 310, 387, 201]
34.598[82, 44, 34, 56, 113, 302, 335, 206]
34.613[74, 42, 34, 56, 119, 379, 315, 172]
34.634[68, 41, 35, 50, 103, 350, 333, 183]
34.658[73, 45, 37, 53, 104, 323, 296, 211]
34.672[71, 45, 38, 50, 92, 329, 311, 213]
34.694[77, 47, 38, 48, 95, 353, 302, 239]
34.718[76, 46, 37, 48, 92, 259, 300, 230]
34.732[77, 49, 37, 47, 93, 235, 332, 225]
34.77[81, 47, 35, 43, 89, 235, 354, 205]
34.778[86, 51, 36, 47, 94, 253, 333, 200]
34.792[77, 47, 40, 52, 93, 240, 348, 174]
34.814[81, 49, 41, 54, 102, 246, 363, 201]
34.838[81, 47, 40, 57, 105, 262, 336, 211]
34.852[86, 48, 41, 56, 104, 262, 314, 222]
34.874[83, 45, 40, 53, 103, 225, 308, 223]
34.898[80, 47, 37, 47, 103, 237, 291, 218]
34.912[84, 48, 39, 47, 93, 241, 305, 209]
34.934[83, 54, 39, 42, 87, 248, 277, 182]
34.958[75, 59, 43, 49, 102, 286, 278, 194]
34.981[77, 59, 42, 53, 101, 298, 300, 205]
34.994[76, 57, 42, 52, 99, 297, 312, 197]
35.017[73, 57, 41, 53, 104, 287, 292, 204]
35.04[80, 54, 41, 53, 101, 271, 280, 216]
35.054[74, 46, 37, 48, 87, 218, 300, 193]
35.078[72, 48, 37, 44, 88, 215, 314, 187]
35.1[71, 47, 39, 48, 94, 230, 347, 210]
35.114[75, 52, 41, 47, 89, 284, 390, 213]
35.138[64, 48, 40, 48, 96, 301, 402, 203]
35.16[68, 50, 39, 46, 94, 311, 402, 209]
35.175[68, 55, 42, 47, 103, 334, 427, 215]
35.198[67, 55, 42, 47, 97, 302, 382, 193]
35.22[58, 48, 38, 44, 99, 261, 335, 186]
35.234[64, 49, 39, 44, 100, 253, 307, 186]
35.258[62, 46, 39, 46, 103, 243, 270, 189]
35.28[62, 37, 36, 47, 100, 212, 220, 184]
35.303[71, 45, 40, 48, 98, 220, 261, 212]
35.318[74, 46, 43, 54, 100, 213, 260, 215]
35.34[84, 51, 43, 53, 93, 209, 287, 227]
35.354[93, 59, 44, 58, 95, 213, 292, 236]
35.378[96, 61, 44, 57, 88, 209, 272, 253]
35.4[91, 54, 39, 55, 97, 232, 283, 254]
35.414[93, 56, 40, 54, 103, 247, 365, 258]
35.438[85, 54, 41, 59, 112, 247, 373, 260]
35.46[76, 48, 41, 54, 107, 259, 379, 239]
35.474[71, 45, 41, 52, 104, 258, 383, 215]
35.498[69, 47, 44, 61, 118, 278, 389, 204]
35.52[68, 50, 45, 59, 109, 275, 360, 183]
35.534[64, 46, 44, 54, 102, 272, 362, 159]
35.558[62, 43, 43, 54, 105, 287, 379, 159]
35.58[69, 51, 45, 55, 114, 292, 373, 177]
35.594[68, 48, 41, 44, 92, 265, 362, 170]
35.618[64, 44, 38, 39, 91, 254, 354, 172]
35.648[83, 58, 41, 44, 91, 266, 364, 188]
35.655[90, 59, 40, 44, 92, 265, 348, 245]
35.678[89, 53, 37, 45, 85, 249, 366, 242]
35.7[90, 55, 40, 57, 89, 241, 352, 240]
35.714[93, 55, 40, 57, 84, 245, 354, 257]
35.738[78, 40, 33, 55, 85, 235, 314, 258]
35.76[75, 48, 38, 60, 87, 215, 304, 220]
35.774[76, 47, 40, 60, 92, 242, 392, 252]
35.798[83, 50, 40, 50, 90, 226, 385, 263]
35.82[78, 48, 38, 53, 91, 225, 358, 243]
35.834[75, 48, 38, 53, 84, 225, 382, 231]
35.858[74, 42, 37, 54, 98, 267, 433, 232]
35.88[71, 43, 36, 55, 103, 269, 334, 191]
35.894[70, 46, 36, 56, 99, 286, 342, 174]
35.918[70, 46, 38, 55, 112, 305, 341, 180]
35.94[78, 48, 40, 58, 123, 326, 351, 226]
35.962[79, 46, 38, 55, 124, 299, 333, 229]
35.977[83, 49, 42, 58, 133, 313, 351, 222]
36.0[84, 49, 45, 63, 141, 323, 342, 234]
36.022[83, 51, 46, 64, 136, 344, 371, 230]
36.037[82, 53, 50, 70, 132, 322, 398, 228]
36.06[80, 54, 50, 69, 121, 312, 367, 228]
36.082[75, 51, 47, 65, 104, 313, 362, 230]
36.098[68, 47, 43, 62, 103, 332, 400, 231]
36.12[72, 46, 42, 60, 99, 300, 359, 241]
36.143[70, 42, 37, 49, 97, 300, 327, 212]
36.158[73, 43, 37, 50, 92, 298, 337, 216]
36.18[72, 44, 36, 48, 89, 287, 321, 222]
36.202[74, 43, 36, 45, 78, 257, 286, 210]
36.218[76, 44, 38, 51, 96, 271, 328, 221]
36.24[76, 43, 41, 53, 94, 281, 327, 223]
36.263[70, 41, 40, 52, 100, 279, 318, 195]
36.278[76, 50, 47, 58, 100, 273, 319, 195]
36.3[75, 49, 46, 57, 103, 252, 311, 224]
36.323[77, 53, 49, 61, 102, 229, 303, 218]
36.339[78, 56, 46, 62, 111, 215, 287, 213]
36.36[72, 56, 47, 62, 124, 252, 291, 222]
36.383[65, 46, 39, 55, 133, 245, 297, 211]
36.398[63, 52, 44, 59, 133, 256, 308, 219]
36.421[58, 48, 42, 54, 121, 260, 313, 212]
36.442[53, 44, 41, 51, 114, 262, 339, 233]
36.457[55, 42, 39, 50, 101, 221, 319, 222]
36.48[63, 51, 46, 57, 90, 215, 360, 232]
36.502[65, 49, 43, 56, 85, 248, 428, 215]
36.517[65, 49, 43, 57, 93, 258, 430, 217]
36.54[76, 51, 42, 58, 96, 268, 442, 207]
36.562[77, 53, 44, 61, 104, 279, 474, 208]
36.577[76, 44, 37, 58, 101, 274, 445, 229]
36.6[79, 46, 38, 58, 106, 243, 379, 216]
36.622[79, 48, 41, 57, 101, 235, 369, 250]
36.645[67, 49, 44, 59, 101, 236, 336, 247]
36.661[70, 50, 46, 57, 85, 253, 326, 245]
36.682[71, 52, 47, 54, 92, 285, 352, 231]
36.704[78, 51, 48, 55, 89, 301, 404, 237]
36.721[74, 48, 43, 49, 88, 294, 394, 185]
36.742[78, 49, 43, 50, 88, 285, 397, 168]
36.765[79, 49, 42, 52, 89, 264, 405, 177]
36.781[76, 49, 40, 55, 93, 259, 381, 180]
36.803[62, 42, 37, 52, 97, 269, 381, 187]
36.824[63, 43, 37, 53, 97, 269, 381, 189]
36.841[63, 49, 45, 58, 93, 282, 382, 188]
36.862[60, 52, 46, 59, 104, 275, 362, 185]
36.884[61, 52, 47, 58, 96, 255, 405, 186]
36.901[72, 59, 53, 67, 106, 244, 355, 180]
36.922[76, 60, 54, 69, 118, 256, 366, 187]
36.944[75, 51, 46, 66, 118, 243, 410, 186]
36.961[76, 47, 46, 62, 107, 269, 470, 210]
36.982[73, 45, 44, 60, 111, 261, 443, 192]
37.005[71, 43, 39, 54, 116, 281, 449, 176]
37.021[69, 43, 39, 53, 102, 265, 430, 164]
37.042[67, 47, 38, 49, 101, 257, 359, 166]
37.064[64, 48, 38, 53, 104, 241, 256, 141]
37.081[69, 47, 40, 57, 108, 272, 300, 185]
37.102[61, 49, 43, 59, 99, 243, 294, 182]
37.125[61, 52, 44, 60, 101, 242, 369, 203]
37.141[62, 51, 45, 60, 99, 240, 420, 227]
37.162[62, 50, 41, 56, 102, 257, 440, 265]
37.184[70, 53, 46, 57, 99, 233, 425, 271]
37.201[76, 53, 45, 56, 96, 244, 422, 275]
37.222[80, 50, 47, 58, 105, 249, 387, 278]
37.244[77, 48, 47, 58, 110, 286, 343, 261]
37.261[82, 50, 48, 60, 112, 269, 320, 227]
37.282[71, 46, 44, 55, 108, 266, 283, 191]
37.304[67, 42, 41, 52, 101, 258, 299, 201]
37.321[64, 41, 38, 49, 98, 268, 326, 190]
37.342[70, 46, 38, 50, 97, 229, 359, 185]
37.364[64, 44, 40, 51, 91, 223, 361, 175]
37.381[69, 45, 40, 52, 98, 258, 392, 190]
37.402[73, 48, 40, 54, 110, 263, 376, 185]
37.426[76, 47, 38, 51, 102, 245, 341, 193]
37.439[75, 45, 39, 55, 103, 252, 312, 200]
37.462[80, 46, 36, 52, 105, 252, 308, 199]
37.484[73, 46, 37, 54, 99, 201, 279, 186]
37.499[80, 45, 35, 49, 88, 201, 331, 238]
37.522[87, 50, 38, 52, 89, 199, 324, 251]
37.546[87, 47, 38, 54, 98, 255, 360, 285]
37.559[88, 46, 38, 55, 94, 252, 365, 295]
37.589[94, 49, 37, 54, 95, 267, 376, 296]
37.604[87, 47, 37, 55, 104, 312, 410, 252]
37.619[75, 41, 37, 59, 115, 334, 412, 233]
37.642[93, 44, 37, 54, 108, 303, 384, 193]
37.664[89, 44, 39, 54, 113, 323, 418, 202]
37.679[90, 38, 39, 54, 114, 343, 414, 232]
37.702[104, 53, 49, 60, 116, 337, 366, 259]
37.724[105, 59, 54, 70, 129, 333, 369, 273]
37.739[88, 63, 56, 72, 128, 329, 359, 276]
37.763[93, 65, 55, 72, 132, 311, 344, 290]
37.784[89, 67, 57, 74, 134, 297, 367, 302]
37.799[75, 61, 53, 74, 132, 245, 347, 313]
37.822[79, 55, 47, 60, 114, 228, 336, 311]
37.844[86, 54, 44, 58, 113, 211, 338, 348]
37.867[83, 54, 45, 56, 103, 260, 357, 322]
37.882[86, 59, 50, 57, 111, 270, 365, 317]
37.904[83, 55, 46, 54, 112, 272, 357, 289]
37.927[86, 58, 48, 58, 119, 274, 357, 290]
37.942[79, 52, 48, 56, 118, 285, 385, 265]
37.964[78, 54, 48, 58, 116, 257, 345, 283]
37.987[83, 48, 41, 51, 107, 242, 299, 295]
38.002[86, 52, 44, 54, 106, 232, 311, 316]
38.025[85, 49, 41, 49, 93, 232, 340, 308]
38.047[82, 48, 40, 52, 108, 243, 340, 308]
38.062[85, 49, 42, 51, 111, 223, 345, 292]
38.084[82, 49, 44, 55, 110, 217, 363, 259]
38.107[79, 50, 44, 55, 109, 246, 343, 246]
38.122[80, 50, 45, 58, 115, 241, 381, 277]
38.144[81, 49, 44, 54, 101, 214, 356, 255]
38.167[77, 44, 40, 55, 104, 249, 395, 290]
38.182[70, 43, 38, 52, 104, 281, 374, 278]
38.206[67, 37, 35, 47, 97, 287, 378, 291]
38.227[60, 41, 40, 55, 109, 291, 298, 259]
38.242[59, 43, 40, 56, 106, 297, 321, 271]
38.265[60, 45, 40, 58, 106, 276, 282, 262]
38.288[59, 44, 41, 59, 102, 246, 315, 263]
38.302[65, 50, 47, 62, 115, 236, 323, 225]
38.324[63, 49, 44, 54, 104, 232, 320, 226]
38.347[63, 48, 46, 55, 109, 271, 293, 216]
38.362[61, 48, 49, 56, 113, 262, 276, 232]
38.384[62, 48, 47, 58, 126, 285, 293, 236]
38.407[60, 45, 39, 59, 144, 292, 303, 279]
38.422[66, 45, 42, 63, 144, 297, 338, 278]
38.444[69, 47, 41, 65, 146, 286, 364, 282]
38.475[71, 48, 39, 60, 139, 283, 357, 255]
38.482[81, 50, 40, 59, 137, 266, 370, 284]
38.504[79, 49, 42, 60, 112, 239, 370, 252]
38.527[76, 45, 37, 53, 109, 241, 360, 256]
38.542[78, 45, 36, 50, 112, 227, 360, 251]
38.565[77, 42, 37, 52, 120, 252, 367, 250]
38.587[69, 42, 42, 58, 120, 233, 356, 216]
38.602[71, 42, 42, 53, 114, 223, 352, 215]
38.624[73, 45, 46, 59, 110, 234, 331, 212]
38.655[69, 44, 47, 60, 100, 222, 310, 202]
38.663[70, 45, 45, 58, 91, 195, 318, 186]
38.685[67, 44, 42, 53, 75, 191, 283, 186]
38.707[69, 44, 40, 51, 78, 212, 274, 199]
38.722[66, 42, 38, 48, 86, 231, 292, 210]
38.745[68, 45, 36, 49, 112, 250, 363, 213]
38.767[69, 46, 39, 52, 121, 288, 360, 231]
38.789[78, 49, 42, 54, 134, 300, 356, 272]
38.805[79, 48, 45, 57, 141, 321, 417, 262]
38.827[78, 51, 45, 56, 143, 320, 416, 253]
38.849[75, 50, 46, 57, 136, 346, 340, 270]
38.864[82, 48, 44, 57, 136, 335, 343, 275]
38.887[82, 53, 44, 56, 134, 328, 345, 224]
38.909[76, 52, 43, 57, 128, 300, 285, 231]
38.925[85, 55, 44, 56, 132, 266, 313, 251]
38.947[85, 55, 46, 58, 126, 237, 345, 226]
38.969[83, 57, 47, 60, 120, 212, 355, 229]
38.984[79, 50, 44, 58, 114, 238, 353, 265]
39.007[83, 49, 45, 60, 116, 244, 339, 254]
39.03[79, 45, 44, 61, 114, 264, 364, 228]
39.045[83, 47, 45, 56, 109, 238, 341, 230]
39.067[88, 49, 47, 55, 116, 241, 312, 237]
39.089[82, 48, 45, 53, 111, 269, 386, 197]
39.112[79, 51, 45, 48, 110, 261, 379, 203]
39.127[72, 50, 45, 47, 99, 285, 314, 199]
39.15[66, 46, 43, 52, 111, 301, 323, 196]
39.164[65, 44, 40, 50, 111, 337, 343, 219]
39.187[71, 47, 43, 52, 115, 322, 286, 219]
39.21[70, 42, 40, 50, 111, 320, 296, 244]
39.224[77, 43, 37, 52, 112, 283, 314, 267]
39.247[81, 42, 37, 52, 129, 300, 325, 269]
39.27[73, 39, 35, 50, 125, 275, 301, 228]
39.284[68, 38, 37, 54, 124, 267, 350, 231]
39.307[75, 40, 40, 60, 126, 265, 384, 237]
39.33[75, 39, 41, 58, 133, 281, 408, 246]
39.344[73, 37, 39, 55, 105, 253, 392, 248]
39.367[70, 38, 39, 57, 99, 251, 400, 243]
39.39[75, 40, 38, 53, 100, 234, 382, 246]
39.404[71, 40, 39, 58, 127, 268, 362, 242]
39.427[68, 43, 41, 57, 116, 255, 329, 215]
39.45[70, 46, 42, 57, 114, 251, 347, 228]
39.464[69, 44, 42, 58, 123, 232, 372, 229]
39.487[67, 43, 42, 58, 122, 226, 409, 264]
39.51[60, 43, 40, 50, 102, 204, 402, 227]
39.524[55, 42, 39, 51, 106, 189, 405, 218]
39.547[50, 41, 39, 49, 105, 193, 396, 202]
39.57[51, 48, 40, 47, 100, 220, 375, 196]
39.585[63, 51, 40, 47, 104, 236, 323, 155]
39.607[81, 52, 40, 49, 93, 245, 358, 207]
39.63[85, 56, 43, 49, 92, 247, 358, 232]
39.645[92, 62, 46, 54, 97, 235, 356, 233]
39.667[93, 57, 43, 52, 96, 286, 380, 238]
39.69[89, 55, 42, 50, 89, 271, 350, 246]
39.704[79, 58, 44, 49, 88, 258, 324, 216]
39.727[75, 54, 42, 46, 87, 277, 309, 196]
39.75[79, 48, 40, 47, 100, 314, 398, 221]
39.773[82, 52, 40, 47, 99, 253, 406, 228]
39.787[88, 51, 41, 49, 96, 266, 421, 218]
39.81[95, 56, 46, 52, 103, 271, 405, 243]
39.832[95, 56, 45, 51, 104, 262, 405, 246]
39.847[94, 56, 44, 45, 90, 232, 311, 242]
39.87[92, 54, 45, 49, 94, 232, 273, 238]
39.892[86, 55, 49, 52, 98, 262, 279, 285]
39.907[88, 48, 42, 50, 100, 274, 366, 283]
39.93[88, 47, 41, 49, 116, 291, 371, 278]
39.952[79, 43, 41, 52, 114, 284, 428, 268]
39.967[84, 45, 44, 54, 112, 276, 419, 274]
39.99[88, 46, 40, 52, 114, 229, 402, 221]
40.013[80, 48, 44, 51, 109, 208, 337, 208]
40.027[81, 48, 47, 56, 98, 180, 348, 209]
40.051[83, 46, 45, 56, 103, 175, 289, 216]
40.072[79, 45, 42, 55, 104, 175, 333, 206]
40.087[79, 45, 39, 53, 104, 208, 346, 228]
40.11[78, 40, 35, 50, 103, 207, 331, 243]
40.133[90, 44, 30, 45, 93, 227, 350, 274]
40.147[91, 45, 31, 44, 89, 233, 357, 272]
40.17[87, 43, 32, 44, 85, 246, 357, 265]
40.193[83, 41, 32, 45, 74, 218, 354, 271]
40.207[75, 39, 33, 43, 70, 216, 365, 244]
40.231[66, 48, 73, 183, 117, 183, 334, 207]
40.253[65, 61, 102, 293, 191, 176, 318, 191]
40.267[70, 79, 138, 382, 251, 162, 263, 185]
40.29[74, 95, 163, 432, 315, 164, 211, 129]
40.312[95, 137, 242, 623, 436, 182, 183, 112]
40.327[98, 148, 256, 666, 439, 181, 165, 100]
40.35[94, 145, 251, 656, 424, 166, 135, 85]
40.373[94, 144, 243, 644, 425, 166, 116, 85]
40.387[86, 134, 229, 622, 384, 151, 99, 72]
40.41[61, 93, 145, 439, 250, 109, 79, 61]
40.433[47, 69, 107, 350, 234, 92, 63, 47]
40.447[46, 67, 100, 298, 215, 92, 59, 47]
40.47[33, 48, 78, 229, 148, 68, 41, 34]
40.492[31, 46, 74, 204, 140, 61, 38, 34]
40.508[29, 40, 70, 198, 117, 42, 30, 31]
40.53[27, 35, 57, 167, 102, 46, 26, 27]
40.553[25, 32, 53, 150, 89, 44, 23, 26]
40.567[23, 29, 41, 122, 65, 40, 23, 23]
40.598[21, 28, 39, 134, 61, 41, 23, 20]
40.613[20, 29, 39, 121, 57, 43, 22, 18]
40.627[19, 26, 34, 115, 50, 36, 22, 20]
40.65[20, 26, 32, 114, 48, 34, 22, 21]
40.673[20, 25, 32, 123, 47, 31, 22, 22]
40.702[21, 24, 30, 103, 41, 27, 21, 22]
40.71[20, 24, 27, 100, 38, 23, 22, 22]
40.732[20, 22, 23, 81, 33, 21, 22, 22]
40.755[19, 19, 23, 75, 31, 21, 20, 20]
40.77[18, 23, 24, 53, 28, 21, 18, 19]
40.793[20, 23, 23, 44, 25, 20, 18, 20]
40.815[20, 22, 24, 38, 22, 21, 17, 20]
40.83[18, 22, 24, 38, 21, 19, 15, 19]
40.852[19, 22, 22, 34, 21, 19, 17, 18]
40.875[21, 18, 22, 33, 19, 19, 18, 22]
40.89[20, 21, 23, 24, 20, 18, 18, 21]
40.912[20, 21, 22, 21, 22, 18, 19, 23]
40.942[22, 21, 22, 18, 22, 19, 19, 27]
40.95[22, 20, 23, 18, 21, 18, 19, 27]
40.973[20, 21, 21, 18, 21, 17, 18, 25]
40.996[20, 19, 21, 21, 21, 19, 19, 26]
41.01[19, 20, 21, 22, 19, 18, 21, 25]
41.032[20, 20, 22, 24, 20, 20, 21, 20]
41.055[19, 20, 20, 23, 21, 21, 22, 21]
41.07[21, 23, 19, 22, 22, 21, 21, 21]
41.093[20, 22, 21, 19, 21, 20, 21, 19]
41.115[22, 20, 21, 19, 23, 20, 19, 18]
41.13[19, 20, 21, 16, 23, 18, 18, 19]
41.153[21, 20, 22, 18, 21, 16, 17, 19]
41.175[19, 17, 22, 19, 20, 15, 18, 21]
41.191[19, 16, 20, 19, 21, 18, 17, 21]
41.213[20, 17, 19, 19, 19, 18, 17, 21]
41.234[20, 18, 19, 20, 18, 17, 17, 21]
41.249[19, 17, 19, 20, 19, 20, 17, 20]
41.272[19, 19, 21, 18, 21, 20, 17, 18]
41.295[20, 18, 21, 19, 19, 19, 17, 19]
41.309[19, 20, 22, 21, 20, 20, 18, 19]
41.332[20, 20, 21, 19, 19, 20, 18, 18]
41.355[19, 21, 21, 20, 19, 17, 19, 18]
41.369[20, 19, 22, 21, 16, 18, 19, 18]
41.393[22, 20, 21, 22, 18, 20, 20, 18]
41.415[20, 22, 19, 22, 18, 20, 19, 17]
41.429[20, 22, 20, 22, 18, 21, 20, 16]
41.452[21, 21, 20, 21, 19, 20, 19, 17]
41.483[20, 22, 19, 20, 21, 23, 18, 17]
41.49[20, 22, 19, 21, 20, 21, 18, 18]
41.512[19, 19, 19, 20, 21, 20, 20, 19]
41.535[20, 18, 19, 22, 22, 22, 19, 19]
41.549[20, 19, 18, 22, 22, 23, 20, 19]
41.572[20, 20, 20, 23, 24, 20, 21, 18]
41.595[18, 18, 21, 23, 24, 20, 20, 19]
41.625[21, 18, 22, 22, 22, 22, 20, 19]
41.633[21, 18, 23, 21, 22, 19, 20, 19]
41.654[22, 18, 23, 22, 23, 19, 19, 20]
41.677[22, 16, 20, 21, 21, 18, 19, 21]
41.693[21, 18, 21, 19, 21, 18, 19, 21]
41.714[19, 17, 19, 20, 22, 17, 18, 21]
41.737[19, 16, 20, 20, 21, 18, 18, 20]
41.753[19, 16, 20, 21, 20, 19, 18, 19]
41.774[19, 15, 21, 21, 19, 21, 19, 19]
41.797[19, 15, 19, 22, 20, 21, 21, 19]
41.813[19, 16, 20, 21, 18, 20, 22, 19]
41.834[18, 18, 19, 22, 17, 20, 22, 19]
41.857[20, 19, 19, 20, 19, 19, 23, 19]
41.873[20, 21, 17, 20, 19, 17, 20, 20]
41.894[20, 20, 17, 19, 19, 17, 20, 20]
41.917[19, 21, 19, 19, 20, 20, 18, 19]
41.933[20, 20, 20, 22, 20, 20, 19, 19]
41.962[16, 18, 20, 25, 18, 21, 19, 20]
41.977[16, 16, 21, 25, 20, 20, 18, 18]
41.993[16, 16, 20, 25, 20, 20, 17, 19]
42.014[16, 16, 19, 25, 20, 17, 19, 21]
42.037[17, 18, 18, 21, 19, 16, 17, 21]
42.054[20, 20, 17, 18, 21, 15, 17, 20]
42.074[19, 21, 20, 19, 19, 16, 17, 21]
42.097[20, 21, 22, 19, 20, 16, 17, 20]
42.114[21, 21, 23, 19, 20, 17, 15, 19]
42.134[20, 20, 23, 18, 20, 17, 15, 20]
42.157[20, 20, 23, 18, 19, 17, 15, 21]
42.173[22, 19, 23, 17, 19, 18, 16, 20]
42.202[23, 20, 20, 19, 18, 19, 17, 20]
42.217[21, 19, 19, 20, 18, 19, 18, 20]
42.233[21, 18, 19, 21, 19, 20, 20, 21]
42.254[19, 18, 19, 22, 19, 21, 20, 20]
42.277[19, 18, 18, 23, 21, 20, 20, 22]
42.294[19, 16, 20, 23, 21, 19, 20, 21]
42.314[20, 17, 19, 23, 20, 18, 20, 20]
42.337[20, 18, 20, 22, 22, 18, 20, 19]
42.353[24, 19, 22, 23, 19, 17, 19, 19]
42.374[22, 19, 22, 21, 19, 16, 21, 19]
42.398[22, 18, 22, 20, 19, 16, 19, 19]
42.414[22, 17, 23, 18, 20, 16, 20, 20]
42.434[22, 16, 23, 19, 16, 15, 19, 21]
42.457[18, 18, 22, 18, 20, 15, 18, 21]
42.473[19, 17, 22, 19, 20, 15, 20, 20]
42.494[17, 20, 22, 20, 19, 17, 19, 20]
42.517[19, 20, 23, 21, 20, 24, 18, 20]
42.533[19, 21, 22, 21, 20, 31, 19, 20]
42.554[20, 21, 21, 23, 20, 35, 18, 20]
42.577[19, 20, 20, 22, 20, 39, 16, 19]
42.6[22, 17, 21, 23, 20, 39, 18, 20]
42.614[21, 20, 19, 22, 20, 35, 19, 18]
42.637[20, 22, 20, 21, 22, 29, 20, 17]
42.659[19, 22, 20, 21, 22, 25, 20, 17]
42.674[20, 23, 21, 21, 22, 19, 21, 19]
42.697[18, 24, 19, 20, 23, 18, 21, 18]
42.719[17, 23, 19, 21, 22, 19, 20, 19]
42.734[19, 20, 20, 21, 20, 17, 22, 19]
42.757[19, 20, 19, 19, 20, 16, 23, 19]
42.779[18, 21, 19, 19, 19, 15, 22, 18]
42.794[18, 22, 19, 19, 20, 16, 21, 19]
42.817[18, 22, 20, 18, 20, 16, 21, 19]
42.848[17, 23, 19, 18, 21, 17, 18, 20]
42.854[18, 22, 20, 19, 20, 18, 17, 19]
42.877[18, 22, 19, 18, 22, 17, 16, 21]
42.899[18, 21, 19, 19, 22, 19, 17, 19]
42.914[18, 20, 19, 19, 22, 18, 19, 19]
42.937[18, 20, 19, 19, 23, 19, 19, 19]
42.959[15, 20, 19, 20, 23, 19, 19, 19]
42.974[19, 18, 20, 22, 23, 19, 21, 20]
42.997[18, 20, 20, 24, 24, 17, 20, 20]
43.019[17, 19, 20, 24, 24, 16, 18, 21]
43.034[18, 19, 19, 23, 22, 17, 20, 21]
43.065[20, 21, 20, 23, 21, 17, 20, 22]
43.079[18, 20, 19, 22, 20, 18, 19, 20]
43.094[20, 18, 19, 19, 17, 18, 21, 20]
43.117[19, 20, 23, 20, 18, 19, 22, 19]
43.139[20, 20, 25, 20, 21, 17, 22, 20]
43.162[20, 19, 24, 19, 22, 17, 20, 18]
43.178[19, 20, 25, 19, 22, 16, 20, 18]
43.207[18, 20, 24, 20, 22, 16, 20, 20]
43.214[19, 19, 20, 19, 22, 17, 21, 20]
43.237[19, 21, 19, 20, 21, 19, 18, 20]
43.259[18, 20, 20, 21, 20, 20, 19, 20]
43.274[19, 21, 20, 21, 20, 21, 20, 19]
43.297[20, 21, 23, 22, 20, 21, 20, 19]
43.319[19, 22, 23, 21, 20, 22, 18, 19]
43.336[18, 20, 23, 20, 20, 20, 19, 18]
43.365[18, 20, 21, 22, 21, 19, 21, 18]
43.379[20, 20, 22, 20, 21, 17, 20, 21]
43.394[22, 22, 20, 20, 20, 17, 19, 20]
43.417[23, 22, 19, 20, 19, 19, 20, 20]
43.44[23, 24, 18, 21, 19, 20, 20, 20]
43.454[23, 23, 18, 20, 19, 19, 18, 20]
43.477[20, 23, 16, 21, 19, 20, 19, 19]
43.499[17, 21, 16, 22, 21, 20, 20, 18]
43.53[17, 20, 16, 21, 21, 18, 18, 17]
43.537[16, 19, 18, 20, 20, 17, 19, 18]
43.559[16, 21, 19, 20, 20, 19, 20, 19]
43.59[16, 20, 21, 20, 23, 18, 19, 19]
43.596[17, 22, 22, 18, 21, 18, 19, 22]
43.619[18, 22, 22, 20, 22, 19, 21, 23]
43.642[18, 21, 22, 19, 22, 21, 18, 22]
43.657[18, 22, 22, 18, 21, 20, 16, 21]
43.679[19, 23, 21, 19, 19, 20, 16, 22]
43.702[18, 21, 21, 19, 20, 20, 17, 19]
43.726[17, 21, 20, 18, 19, 18, 17, 19]
43.739[17, 22, 21, 19, 18, 16, 16, 19]
43.762[17, 19, 20, 20, 16, 19, 18, 20]
43.777[17, 19, 21, 22, 17, 19, 17, 18]
43.799[20, 20, 21, 22, 18, 20, 17, 17]
43.822[20, 19, 21, 22, 20, 20, 17, 19]
43.837[21, 20, 20, 24, 22, 19, 19, 18]
43.859[20, 21, 19, 23, 22, 20, 19, 18]
43.882[19, 21, 19, 22, 22, 20, 21, 19]
43.897[20, 19, 19, 22, 22, 18, 20, 20]
43.919[19, 19, 19, 21, 20, 20, 19, 19]
43.942[19, 19, 18, 19, 18, 21, 19, 20]
43.958[20, 18, 19, 20, 20, 19, 17, 20]
43.979[20, 18, 22, 19, 20, 18, 17, 20]
44.002[17, 19, 21, 19, 22, 20, 18, 18]
44.017[19, 19, 22, 20, 22, 18, 18, 18]
44.039[19, 20, 23, 20, 22, 17, 18, 18]
44.062[17, 19, 21, 18, 22, 18, 17, 18]
44.077[19, 20, 19, 18, 20, 17, 17, 18]
44.099[18, 21, 18, 18, 17, 16, 17, 19]
44.122[19, 21, 18, 19, 18, 18, 16, 19]
44.145[18, 19, 18, 20, 20, 18, 16, 18]
44.159[20, 21, 18, 20, 20, 17, 17, 19]
44.182[22, 21, 20, 19, 20, 18, 17, 19]
44.197[24, 20, 21, 20, 21, 19, 17, 18]
44.219[22, 20, 22, 19, 19, 18, 18, 17]
44.25[25, 20, 22, 18, 20, 19, 20, 17]
44.257[23, 20, 22, 19, 19, 19, 20, 15]
44.279[21, 20, 22, 20, 20, 19, 21, 17]
44.302[19, 21, 21, 19, 18, 20, 21, 16]
44.317[20, 20, 20, 18, 19, 21, 20, 17]
44.339[18, 21, 20, 19, 17, 21, 19, 17]
44.362[19, 20, 19, 19, 19, 21, 20, 18]
44.377[18, 20, 19, 19, 19, 23, 19, 16]
44.399[19, 21, 21, 20, 20, 22, 21, 17]
44.422[19, 21, 19, 21, 21, 22, 23, 19]
44.437[20, 20, 18, 22, 21, 22, 20, 20]
44.459[21, 20, 22, 22, 20, 21, 21, 20]
44.482[21, 19, 21, 23, 19, 20, 22, 20]
44.505[21, 17, 22, 22, 20, 20, 21, 20]
44.519[21, 17, 22, 21, 20, 20, 19, 19]
44.542[21, 17, 23, 18, 20, 19, 19, 19]
44.565[18, 17, 20, 18, 20, 19, 19, 20]
44.579[19, 17, 20, 17, 21, 19, 18, 20]
44.602[20, 18, 18, 19, 21, 18, 21, 20]
44.633[19, 19, 18, 18, 21, 16, 21, 18]
44.639[18, 20, 22, 20, 20, 18, 21, 16]
44.662[18, 21, 22, 20, 20, 19, 21, 17]
44.685[19, 23, 22, 20, 20, 20, 23, 18]
44.699[19, 22, 23, 21, 21, 19, 20, 17]
44.722[20, 22, 25, 21, 21, 20, 20, 17]
44.745[21, 22, 22, 21, 24, 19, 19, 20]
44.759[21, 22, 23, 21, 24, 19, 21, 20]
44.782[20, 20, 23, 22, 23, 18, 20, 19]
44.805[20, 22, 22, 23, 23, 21, 20, 19]
44.828[18, 22, 21, 22, 23, 22, 20, 20]
44.842[17, 21, 21, 21, 20, 21, 21, 19]
44.865[18, 21, 21, 21, 20, 21, 20, 17]
44.879[18, 21, 21, 19, 19, 22, 21, 18]
44.902[18, 20, 21, 17, 19, 19, 23, 18]
44.926[19, 20, 22, 18, 18, 18, 22, 17]
44.939[20, 21, 21, 18, 19, 17, 21, 15]
44.962[21, 21, 22, 18, 20, 17, 20, 17]
44.985[20, 22, 21, 19, 19, 18, 20, 17]
44.999[20, 21, 20, 17, 18, 19, 18, 17]
45.022[19, 20, 18, 18, 19, 19, 19, 18]
45.045[18, 22, 19, 17, 17, 21, 21, 19]
45.059[16, 22, 18, 15, 19, 21, 20, 18]
45.082[16, 21, 20, 15, 21, 19, 19, 17]
45.105[17, 22, 21, 16, 23, 20, 20, 18]
45.119[16, 23, 20, 17, 24, 20, 19, 19]
45.142[17, 19, 19, 17, 24, 19, 19, 19]
45.165[18, 18, 20, 19, 23, 19, 21, 19]
45.179[18, 20, 17, 18, 21, 20, 21, 19]
45.202[17, 18, 19, 19, 22, 18, 21, 18]
45.225[17, 17, 21, 16, 20, 19, 21, 18]
45.239[17, 20, 23, 16, 22, 16, 22, 17]
45.262[17, 21, 23, 16, 25, 17, 21, 18]
45.285[18, 20, 23, 17, 26, 16, 23, 19]
45.315[19, 21, 22, 15, 23, 16, 22, 20]
45.322[19, 22, 19, 16, 25, 18, 23, 19]
45.345[20, 21, 19, 20, 23, 21, 21, 20]
45.359[20, 20, 19, 20, 21, 24, 21, 20]
45.383[19, 22, 19, 20, 20, 23, 18, 19]
45.405[19, 22, 20, 20, 23, 23, 19, 18]
45.427[19, 23, 21, 21, 21, 23, 18, 18]
45.442[19, 23, 20, 18, 22, 23, 19, 18]
45.472[18, 24, 20, 20, 23, 20, 18, 18]
45.495[19, 21, 19, 20, 23, 20, 18, 17]
45.503[19, 22, 19, 20, 22, 22, 18, 19]
45.525[18, 20, 18, 20, 22, 20, 18, 19]
45.547[17, 21, 19, 19, 23, 19, 18, 19]
45.562[18, 20, 19, 18, 21, 20, 19, 19]
45.585[17, 20, 20, 18, 21, 19, 19, 19]
45.608[17, 20, 20, 19, 20, 16, 19, 19]
45.622[18, 20, 20, 19, 21, 18, 18, 19]
45.645[20, 19, 20, 21, 19, 19, 18, 18]
45.667[21, 20, 20, 20, 20, 19, 17, 19]
45.684[21, 21, 20, 21, 21, 19, 17, 19]
45.707[21, 21, 21, 21, 20, 21, 18, 18]
45.727[21, 20, 21, 21, 19, 21, 18, 18]
45.745[20, 20, 19, 19, 20, 21, 19, 19]
45.765[20, 19, 20, 19, 21, 18, 19, 18]
45.788[20, 18, 19, 18, 20, 19, 18, 19]
45.802[20, 18, 18, 19, 20, 18, 16, 18]
45.825[19, 20, 18, 18, 21, 19, 17, 18]
45.847[18, 20, 18, 20, 20, 19, 17, 18]
45.862[18, 21, 18, 20, 18, 21, 18, 18]
45.885[17, 21, 19, 22, 19, 21, 19, 17]
45.908[17, 21, 18, 22, 20, 20, 20, 18]
45.922[17, 20, 18, 24, 19, 19, 21, 17]
45.945[18, 19, 19, 22, 19, 19, 21, 19]
45.967[18, 18, 19, 21, 21, 17, 20, 20]
45.982[18, 17, 18, 20, 20, 20, 19, 20]
46.005[18, 17, 19, 20, 19, 20, 20, 20]
46.027[19, 18, 21, 18, 19, 19, 21, 20]
46.042[17, 18, 21, 19, 19, 19, 19, 18]
46.065[19, 19, 20, 19, 22, 20, 19, 18]
46.087[20, 19, 20, 18, 22, 17, 19, 19]
46.101[19, 20, 22, 17, 23, 18, 19, 18]
46.126[19, 20, 22, 18, 24, 19, 15, 17]
46.147[20, 20, 22, 18, 23, 21, 18, 17]
46.162[20, 21, 22, 18, 21, 21, 18, 17]
46.192[19, 21, 23, 17, 20, 20, 20, 15]
46.207[20, 20, 21, 18, 20, 19, 18, 16]
46.222[19, 19, 21, 20, 20, 19, 18, 19]
46.245[20, 20, 21, 19, 21, 19, 16, 19]
46.268[17, 20, 23, 20, 20, 19, 16, 18]
46.282[18, 19, 23, 21, 22, 18, 16, 18]
46.305[19, 20, 23, 22, 22, 19, 18, 19]
46.327[18, 20, 21, 20, 21, 18, 19, 17]
46.35[18, 21, 20, 19, 21, 18, 21, 19]
46.365[18, 20, 18, 19, 21, 19, 20, 21]
46.387[19, 21, 18, 18, 21, 18, 19, 22]
46.41[19, 21, 19, 18, 19, 17, 19, 21]
46.425[19, 21, 21, 21, 22, 19, 19, 23]
46.455[18, 21, 22, 22, 21, 17, 18, 23]
46.47[18, 20, 23, 22, 23, 18, 20, 23]
46.485[19, 20, 22, 23, 21, 19, 20, 22]
46.507[18, 20, 22, 23, 22, 20, 19, 23]
46.53[19, 22, 22, 21, 22, 18, 19, 21]
46.545[19, 22, 23, 23, 23, 19, 19, 22]
46.568[20, 22, 22, 24, 22, 18, 18, 21]
46.597[19, 23, 22, 22, 22, 19, 18, 21]
46.605[21, 22, 22, 23, 22, 19, 20, 20]
46.627[20, 21, 20, 22, 21, 19, 21, 21]
46.649[20, 20, 17, 20, 20, 18, 20, 20]
46.666[20, 20, 18, 20, 21, 22, 21, 19]
46.687[21, 21, 18, 20, 20, 20, 20, 21]
46.709[18, 21, 18, 18, 18, 22, 22, 22]
46.726[19, 20, 20, 19, 18, 22, 21, 22]
46.747[18, 20, 20, 19, 20, 22, 22, 22]
46.769[17, 23, 20, 18, 19, 22, 24, 22]
46.786[16, 20, 20, 19, 20, 21, 26, 21]
46.807[18, 20, 21, 20, 22, 21, 23, 21]
46.829[16, 19, 21, 20, 20, 22, 24, 19]
46.846[17, 21, 22, 22, 19, 21, 23, 19]
46.867[20, 18, 21, 21, 22, 19, 21, 19]
46.889[19, 20, 22, 19, 23, 21, 20, 18]
46.906[18, 20, 22, 20, 22, 21, 20, 20]
46.927[18, 21, 20, 19, 23, 20, 21, 21]
46.949[19, 20, 20, 17, 24, 21, 22, 21]
46.966[17, 21, 21, 17, 21, 22, 20, 20]
46.987[16, 21, 21, 22, 21, 21, 19, 20]
47.01[16, 21, 23, 21, 23, 20, 19, 20]
47.026[17, 22, 23, 23, 23, 20, 18, 18]
47.047[17, 23, 25, 24, 22, 20, 19, 18]
47.069[17, 22, 24, 24, 22, 21, 18, 18]
47.086[19, 23, 23, 23, 21, 20, 18, 20]
47.107[20, 26, 21, 23, 20, 20, 18, 19]
47.129[21, 23, 20, 21, 18, 21, 17, 19]
47.146[21, 23, 19, 21, 19, 21, 17, 19]
47.167[20, 22, 18, 23, 21, 21, 18, 19]
47.19[19, 20, 20, 22, 20, 21, 18, 17]
47.206[18, 19, 20, 21, 21, 21, 17, 19]
47.227[16, 20, 21, 22, 21, 22, 16, 18]
47.249[16, 20, 21, 23, 22, 21, 18, 17]
47.266[16, 22, 22, 23, 22, 20, 18, 17]
47.287[19, 23, 20, 21, 21, 21, 18, 17]
47.31[19, 22, 18, 21, 23, 21, 19, 16]
47.332[19, 21, 19, 19, 23, 19, 19, 15]
47.347[20, 22, 20, 20, 23, 22, 19, 15]
47.369[19, 22, 18, 19, 22, 21, 19, 18]
47.392[18, 22, 20, 20, 25, 19, 20, 18]
47.407[19, 22, 24, 21, 22, 19, 22, 19]
47.43[21, 24, 24, 22, 24, 19, 21, 19]
47.452[21, 23, 23, 19, 23, 17, 21, 21]
47.467[21, 22, 23, 21, 22, 19, 21, 19]
47.489[19, 21, 24, 20, 19, 19, 20, 20]
47.512[20, 21, 21, 20, 20, 19, 20, 20]
47.527[19, 21, 22, 20, 19, 18, 22, 20]
47.549[21, 22, 23, 21, 20, 18, 21, 20]
47.572[20, 21, 25, 21, 21, 17, 20, 18]
47.587[20, 23, 24, 21, 23, 18, 20, 17]
47.609[18, 24, 24, 19, 23, 19, 20, 17]
47.64[21, 22, 24, 20, 23, 19, 19, 17]
47.654[19, 22, 22, 19, 22, 21, 19, 17]
47.669[20, 22, 21, 18, 22, 22, 19, 19]
47.692[21, 20, 19, 18, 21, 22, 19, 20]
47.707[22, 19, 19, 22, 21, 22, 18, 19]
47.729[18, 20, 19, 21, 20, 22, 18, 20]
47.753[17, 19, 22, 21, 20, 20, 19, 19]
47.767[17, 20, 21, 22, 20, 21, 19, 19]
47.789[16, 20, 20, 23, 19, 20, 18, 19]
47.812[15, 20, 21, 21, 19, 20, 17, 18]
47.827[19, 19, 19, 21, 19, 21, 17, 18]
47.849[21, 20, 18, 21, 21, 21, 17, 19]
47.872[20, 20, 19, 21, 21, 21, 17, 19]
47.887[20, 21, 21, 19, 21, 23, 18, 18]
47.909[22, 19, 20, 19, 22, 23, 20, 20]
47.932[20, 22, 21, 20, 23, 23, 21, 22]
47.946[18, 22, 20, 20, 22, 23, 21, 21]
47.969[19, 23, 19, 20, 21, 22, 22, 21]
47.992[19, 22, 18, 20, 24, 22, 22, 21]
48.007[18, 26, 20, 20, 22, 20, 21, 19]
48.029[18, 24, 19, 18, 22, 19, 20, 19]
48.051[19, 23, 19, 19, 22, 19, 19, 20]
48.066[19, 22, 22, 19, 23, 20, 18, 20]
48.097[21, 22, 22, 19, 21, 19, 20, 21]
48.112[21, 19, 22, 20, 21, 18, 19, 21]
48.134[22, 21, 21, 20, 20, 20, 19, 19]
48.149[21, 21, 21, 20, 19, 20, 20, 18]
48.172[22, 23, 21, 22, 19, 19, 19, 19]
48.187[21, 23, 19, 23, 20, 18, 16, 20]
48.209[20, 23, 21, 22, 20, 20, 18, 19]
48.232[21, 23, 21, 22, 20, 18, 18, 19]
48.254[22, 23, 22, 22, 22, 19, 17, 18]
48.269[21, 22, 20, 20, 22, 18, 17, 18]
48.292[22, 22, 22, 19, 22, 20, 18, 18]
48.314[22, 23, 21, 19, 23, 19, 17, 18]
48.329[21, 22, 22, 20, 23, 18, 17, 18]
48.36[19, 20, 21, 21, 23, 19, 18, 18]
48.374[19, 20, 21, 21, 23, 20, 19, 20]
48.39[18, 21, 19, 23, 21, 21, 20, 21]
48.412[19, 20, 18, 24, 22, 21, 20, 21]
48.434[19, 18, 17, 24, 22, 21, 20, 22]
48.449[19, 21, 18, 25, 23, 20, 19, 22]
48.472[19, 20, 20, 25, 24, 20, 20, 21]
48.494[20, 21, 20, 23, 24, 19, 18, 19]
48.509[18, 21, 21, 22, 24, 21, 19, 18]
48.531[19, 22, 21, 21, 25, 21, 19, 18]
48.554[18, 22, 22, 18, 23, 21, 19, 17]
48.569[18, 22, 19, 17, 22, 22, 19, 14]
48.592[17, 22, 19, 17, 21, 21, 20, 17]
48.614[17, 23, 19, 16, 19, 19, 18, 17]
48.637[17, 22, 18, 17, 21, 17, 19, 18]
48.651[18, 21, 18, 18, 20, 23, 18, 19]
48.674[18, 21, 19, 18, 21, 22, 18, 19]
48.689[18, 21, 22, 17, 21, 24, 17, 20]
48.711[18, 21, 22, 19, 23, 23, 17, 19]
48.734[18, 20, 22, 17, 22, 24, 15, 19]
48.75[19, 20, 21, 17, 22, 20, 15, 19]
48.772[19, 21, 21, 18, 22, 19, 16, 20]
48.794[19, 21, 19, 19, 22, 19, 16, 18]
48.809[19, 20, 19, 19, 20, 18, 19, 19]
48.831[17, 20, 18, 21, 19, 17, 19, 18]
48.854[20, 21, 18, 24, 20, 17, 18, 19]
48.869[20, 20, 16, 22, 20, 15, 17, 18]
48.891[19, 20, 16, 21, 20, 15, 19, 20]
48.914[20, 21, 18, 21, 20, 18, 17, 20]
48.929[21, 22, 18, 21, 21, 19, 18, 20]
48.952[17, 20, 20, 18, 20, 20, 18, 19]
48.974[17, 21, 21, 18, 21, 22, 20, 18]
48.989[17, 21, 21, 17, 21, 22, 18, 17]
49.011[18, 20, 19, 19, 22, 22, 19, 16]
49.034[17, 21, 19, 18, 21, 23, 19, 18]
49.049[17, 21, 18, 17, 22, 21, 19, 17]
49.072[17, 21, 18, 19, 21, 20, 19, 19]
49.102[18, 21, 19, 19, 21, 20, 21, 19]
49.109[16, 23, 20, 18, 20, 18, 20, 21]
49.131[19, 23, 22, 19, 21, 18, 21, 19]
49.154[21, 25, 21, 20, 20, 19, 22, 20]
49.177[21, 24, 22, 20, 23, 21, 21, 19]
49.191[20, 23, 20, 21, 24, 21, 20, 17]
49.214[21, 21, 23, 21, 25, 21, 21, 18]
49.237[18, 21, 21, 21, 23, 22, 20, 17]
49.252[18, 18, 21, 21, 24, 21, 18, 17]
49.274[17, 18, 23, 21, 22, 19, 18, 18]
49.297[18, 20, 23, 21, 22, 22, 18, 19]
49.312[20, 20, 21, 19, 20, 21, 17, 17]
49.334[21, 20, 23, 19, 20, 20, 17, 19]
49.365[20, 20, 22, 18, 19, 20, 18, 18]
49.371[20, 20, 21, 17, 19, 20, 17, 17]
49.394[19, 19, 21, 19, 22, 17, 17, 19]
49.418[19, 19, 20, 19, 22, 17, 18, 22]
49.431[18, 20, 21, 19, 22, 19, 17, 21]
49.454[18, 20, 21, 19, 24, 19, 17, 22]
49.477[18, 19, 21, 19, 22, 20, 17, 21]
49.491[19, 20, 21, 17, 20, 22, 17, 20]
49.514[18, 21, 22, 18, 22, 23, 17, 16]
49.537[18, 20, 20, 20, 23, 22, 18, 16]
49.552[18, 20, 20, 21, 20, 22, 18, 15]
49.574[16, 20, 20, 20, 22, 21, 19, 18]
49.597[18, 20, 21, 23, 22, 19, 20, 17]
49.612[18, 19, 20, 22, 20, 18, 21, 17]
49.634[19, 19, 21, 20, 20, 20, 20, 20]
49.657[19, 17, 19, 18, 22, 20, 21, 20]
49.672[20, 18, 19, 19, 22, 20, 21, 18]
49.694[21, 18, 17, 19, 22, 21, 20, 19]
49.717[21, 17, 16, 18, 22, 21, 22, 20]
49.732[21, 17, 18, 19, 22, 20, 23, 19]
49.754[22, 19, 20, 23, 19, 19, 22, 19]
49.778[21, 18, 19, 24, 18, 19, 22, 19]
49.792[18, 19, 20, 23, 19, 17, 22, 19]
49.822[19, 19, 22, 24, 20, 15, 20, 19]
49.838[20, 18, 20, 24, 19, 13, 19, 17]
49.852[20, 18, 20, 22, 19, 13, 19, 17]
49.874[23, 20, 20, 22, 21, 13, 19, 17]
49.897[22, 20, 20, 22, 19, 15, 18, 18]
49.911[22, 20, 18, 21, 18, 16, 18, 20]
49.934[21, 21, 18, 19, 18, 17, 19, 21]
49.957[21, 21, 17, 19, 18, 17, 19, 21]
49.973[19, 20, 19, 19, 17, 21, 20, 19]
49.994[20, 20, 19, 18, 18, 20, 20, 20]
50.017[20, 19, 20, 20, 19, 20, 20, 18]
50.033[20, 20, 21, 19, 21, 23, 19, 19]
50.054[18, 20, 22, 19, 21, 23, 22, 20]
50.085[18, 21, 24, 20, 21, 19, 20, 22]
50.1[16, 21, 24, 21, 21, 20, 19, 21]
50.114[19, 22, 23, 21, 21, 20, 20, 20]
50.137[19, 21, 23, 21, 20, 18, 19, 20]
50.16[20, 20, 23, 21, 20, 19, 18, 20]
50.174[20, 19, 21, 20, 21, 18, 18, 18]
50.197[22, 20, 22, 20, 20, 19, 20, 17]
50.219[20, 19, 21, 19, 20, 17, 18, 17]
50.235[20, 20, 20, 19, 21, 18, 20, 19]
50.257[19, 19, 22, 21, 21, 19, 21, 17]
50.28[20, 22, 23, 21, 20, 19, 22, 18]
50.295[18, 21, 23, 21, 21, 19, 19, 17]
50.318[18, 21, 25, 21, 21, 20, 20, 18]
50.34[17, 21, 25, 22, 23, 18, 19, 18]
50.355[18, 21, 25, 20, 23, 18, 17, 19]
50.377[17, 21, 24, 20, 24, 18, 18, 20]
50.4[17, 22, 24, 19, 23, 16, 19, 22]
50.415[16, 22, 24, 20, 24, 17, 19, 22]
50.437[17, 23, 25, 20, 22, 16, 18, 20]
50.46[16, 22, 24, 19, 22, 15, 18, 21]
50.475[16, 20, 23, 18, 22, 18, 18, 22]
50.497[17, 21, 23, 20, 22, 20, 20, 21]
50.521[17, 20, 21, 20, 23, 20, 20, 20]
50.535[19, 19, 19, 20, 21, 22, 21, 20]
50.558[20, 20, 19, 22, 22, 22, 21, 18]
50.58[19, 19, 21, 22, 21, 20, 20, 19]
50.595[18, 19, 18, 20, 22, 19, 20, 19]
50.617