[77, 35, 22, 24, 24, 22, 24, 74]
0.96[60, 33, 26, 26, 24, 23, 26, 61]
0.975[57, 34, 26, 27, 25, 23, 26, 62]
0.997[57, 27, 27, 28, 24, 24, 27, 60]
1.02[55, 25, 26, 27, 23, 22, 26, 58]
1.034[61, 26, 26, 27, 20, 21, 23, 42]
1.057[63, 24, 22, 25, 18, 18, 21, 42]
1.081[62, 22, 22, 23, 17, 18, 21, 47]
1.094[64, 21, 20, 21, 17, 17, 26, 50]
1.117[79, 23, 23, 23, 19, 20, 27, 52]
1.14[64, 22, 24, 24, 19, 20, 26, 50]
1.154[61, 24, 23, 22, 20, 21, 25, 50]
1.177[62, 24, 24, 23, 20, 21, 26, 40]
1.2[78, 25, 25, 25, 22, 21, 22, 51]
1.214[64, 23, 23, 25, 22, 18, 22, 48]
1.237[61, 22, 21, 24, 21, 19, 23, 49]
1.26[61, 21, 21, 24, 21, 18, 24, 48]
1.274[61, 21, 20, 22, 22, 19, 30, 64]
1.297[53, 22, 20, 20, 20, 19, 30, 60]
1.32[51, 21, 20, 19, 20, 20, 30, 60]
1.334[53, 21, 21, 23, 23, 20, 33, 60]
1.357[54, 21, 23, 23, 24, 20, 32, 60]
1.38[53, 21, 23, 24, 22, 20, 27, 44]
1.394[64, 22, 22, 25, 23, 20, 25, 39]
1.417[64, 21, 21, 23, 22, 20, 25, 38]
1.44[64, 21, 19, 20, 20, 20, 25, 65]
1.454[64, 21, 20, 21, 20, 20, 25, 64]
1.476[65, 23, 18, 20, 21, 20, 24, 66]
1.5[64, 23, 17, 19, 21, 20, 25, 64]
1.514[66, 26, 19, 21, 22, 21, 24, 65]
1.536[66, 25, 20, 20, 21, 21, 21, 37]
1.56[67, 25, 18, 20, 21, 20, 22, 40]
1.582[66, 24, 20, 21, 20, 21, 22, 44]
1.597[43, 22, 19, 19, 22, 22, 24, 58]
1.62[66, 21, 17, 20, 21, 21, 25, 61]
1.642[66, 22, 17, 20, 22, 20, 24, 62]
1.657[65, 23, 19, 22, 22, 23, 24, 60]
1.679[64, 21, 18, 21, 23, 23, 24, 56]
1.702[62, 23, 19, 23, 23, 21, 21, 46]
1.724[44, 22, 21, 21, 23, 20, 21, 43]
1.739[59, 21, 22, 21, 22, 21, 22, 44]
1.762[60, 21, 19, 20, 20, 21, 23, 44]
1.776[60, 22, 20, 19, 21, 21, 25, 59]
1.799[61, 21, 19, 20, 19, 22, 25, 53]
1.823[56, 20, 17, 22, 18, 22, 22, 59]
1.844[56, 21, 18, 24, 19, 23, 22, 61]
1.859[58, 21, 19, 24, 22, 21, 21, 60]
1.882[59, 21, 18, 23, 22, 21, 17, 45]
1.904[58, 22, 18, 21, 23, 20, 20, 45]
1.927[55, 23, 19, 21, 25, 20, 20, 33]
1.942[77, 22, 18, 19, 24, 18, 21, 52]
1.966[75, 24, 21, 18, 21, 20, 21, 53]
1.979[76, 23, 22, 19, 21, 20, 22, 53]
2.002[77, 23, 22, 20, 21, 21, 21, 53]
2.024[77, 21, 21, 19, 21, 23, 22, 54]
2.038[38, 21, 21, 21, 21, 23, 21, 28]
2.062[64, 20, 19, 20, 22, 22, 20, 35]
2.084[64, 22, 20, 19, 21, 21, 19, 40]
2.107[62, 21, 21, 19, 20, 23, 18, 42]
2.122[65, 22, 22, 19, 18, 19, 20, 41]
2.144[65, 21, 22, 19, 19, 21, 19, 42]
2.167[55, 21, 22, 20, 18, 21, 19, 39]
2.182[54, 18, 21, 21, 19, 23, 21, 33]
2.204[56, 19, 20, 20, 20, 21, 22, 31]
2.234[56, 18, 18, 21, 20, 22, 21, 36]
2.242[61, 18, 19, 21, 18, 21, 20, 38]
2.264[68, 20, 20, 20, 18, 21, 21, 37]
2.288[68, 19, 19, 19, 19, 20, 22, 37]
2.301[67, 19, 21, 19, 18, 20, 22, 38]
2.324[65, 19, 22, 17, 20, 23, 21, 34]
2.346[76, 21, 22, 19, 21, 23, 22, 37]
2.361[57, 20, 21, 17, 22, 22, 24, 42]
2.385[56, 21, 22, 20, 21, 21, 22, 43]
2.407[55, 22, 21, 20, 23, 23, 20, 43]
2.422[72, 23, 22, 21, 21, 20, 22, 48]
2.443[60, 21, 21, 20, 23, 21, 22, 42]
2.466[60, 21, 21, 21, 22, 22, 21, 35]
2.482[60, 22, 20, 21, 23, 21, 21, 34]
2.503[60, 21, 20, 19, 20, 19, 22, 32]
2.525[39, 20, 19, 20, 22, 21, 20, 23]
2.542[30, 21, 21, 19, 21, 21, 20, 25]
2.563[60, 20, 22, 20, 21, 21, 19, 33]
2.585[60, 19, 22, 19, 20, 22, 20, 32]
2.602[61, 18, 23, 21, 21, 21, 20, 33]
2.623[62, 17, 23, 20, 19, 19, 21, 34]
2.647[62, 18, 20, 20, 20, 19, 20, 33]
2.662[60, 18, 19, 20, 18, 17, 21, 35]
2.683[64, 18, 18, 21, 20, 16, 20, 41]
2.705[63, 19, 16, 19, 20, 16, 20, 41]
2.722[63, 18, 18, 18, 21, 17, 20, 43]
2.743[63, 19, 18, 22, 22, 17, 20, 43]
2.765[65, 18, 17, 22, 21, 18, 20, 41]
2.782[61, 16, 19, 21, 23, 18, 20, 35]
2.803[61, 18, 21, 21, 22, 18, 20, 34]
2.825[61, 20, 20, 21, 22, 17, 22, 31]
2.842[61, 18, 21, 17, 21, 16, 21, 31]
2.863[64, 21, 23, 20, 22, 16, 21, 36]
2.885[63, 23, 23, 20, 19, 18, 24, 34]
2.902[63, 22, 22, 20, 22, 19, 22, 34]
2.923[63, 23, 21, 21, 21, 19, 19, 35]
2.946[63, 24, 22, 24, 22, 19, 23, 36]
2.962[28, 25, 22, 22, 23, 19, 24, 21]
2.983[35, 23, 22, 23, 22, 18, 21, 24]
3.005[58, 24, 22, 23, 20, 17, 23, 31]
3.028[59, 23, 22, 23, 20, 18, 24, 33]
3.043[59, 24, 22, 20, 19, 19, 21, 34]
3.065[61, 21, 20, 19, 20, 20, 20, 34]
3.088[56, 22, 20, 20, 22, 19, 19, 31]
3.104[30, 22, 21, 20, 21, 21, 17, 24]
3.125[58, 23, 22, 18, 22, 19, 16, 32]
3.156[60, 21, 22, 22, 21, 20, 20, 32]
3.162[60, 22, 22, 23, 20, 19, 19, 32]
3.185[60, 22, 22, 22, 19, 20, 21, 33]
3.208[61, 23, 21, 23, 19, 21, 21, 34]
3.223[30, 22, 21, 25, 21, 22, 21, 24]
3.245[55, 23, 21, 21, 20, 21, 18, 32]
3.269[58, 22, 19, 21, 21, 24, 18, 32]
3.282[59, 23, 18, 21, 21, 23, 17, 31]
3.305[59, 23, 20, 21, 20, 20, 17, 31]
3.328[65, 23, 19, 19, 18, 21, 16, 36]
3.342[63, 23, 20, 19, 18, 21, 17, 32]
3.365[61, 21, 22, 18, 17, 19, 19, 32]
3.388[61, 23, 23, 17, 18, 18, 20, 34]
3.403[60, 22, 22, 15, 17, 19, 20, 33]
3.425[74, 24, 23, 17, 18, 18, 21, 52]
3.447[60, 24, 22, 18, 19, 20, 21, 51]
3.464[59, 25, 21, 19, 19, 20, 20, 53]
3.485[60, 22, 22, 19, 20, 21, 19, 55]
3.507[61, 24, 22, 21, 20, 22, 17, 55]
3.522[63, 23, 21, 22, 18, 22, 19, 40]
3.545[63, 23, 20, 21, 19, 20, 20, 40]
3.567[64, 23, 22, 22, 20, 21, 20, 37]
3.584[64, 23, 18, 21, 19, 21, 21, 41]
3.605[63, 24, 21, 21, 19, 20, 22, 43]
3.627[56, 24, 22, 20, 20, 19, 19, 40]
3.642[56, 24, 23, 21, 18, 20, 19, 40]
3.665[57, 24, 21, 21, 19, 20, 19, 40]
3.688[58, 25, 22, 22, 20, 18, 19, 33]
3.703[58, 21, 21, 20, 19, 19, 18, 29]
3.725[39, 21, 20, 20, 19, 18, 18, 24]
3.747[36, 20, 20, 19, 21, 18, 18, 23]
3.762[30, 21, 20, 17, 20, 18, 19, 22]
3.784[23, 20, 21, 17, 19, 19, 18, 19]
3.807[22, 20, 21, 18, 21, 20, 19, 20]
3.822[58, 21, 22, 19, 20, 21, 19, 30]
3.844[59, 22, 25, 19, 18, 21, 18, 32]
3.867[60, 21, 25, 20, 17, 21, 17, 34]
3.882[62, 23, 24, 20, 16, 20, 17, 34]
3.904[62, 23, 25, 19, 17, 19, 15, 33]
3.927[32, 21, 24, 19, 21, 17, 17, 25]
3.949[57, 19, 20, 19, 20, 19, 19, 31]
3.972[58, 22, 20, 19, 22, 20, 19, 29]
3.987[58, 19, 20, 19, 23, 20, 19, 31]
4.009[59, 20, 19, 19, 22, 20, 22, 32]
4.025[60, 21, 20, 20, 19, 21, 20, 31]
4.047[34, 23, 21, 20, 20, 18, 18, 26]
4.069[62, 22, 24, 18, 19, 20, 20, 36]
4.085[62, 23, 23, 17, 19, 20, 19, 35]
4.107[62, 24, 24, 19, 17, 19, 19, 34]
4.129[62, 23, 22, 17, 18, 19, 19, 34]
4.144[62, 25, 21, 18, 18, 21, 18, 34]
4.167[63, 25, 21, 19, 19, 19, 18, 33]
4.189[63, 25, 20, 22, 19, 18, 19, 35]
4.204[64, 24, 18, 22, 20, 19, 17, 34]
4.227[63, 24, 20, 23, 20, 20, 18, 34]
4.249[64, 20, 21, 21, 20, 20, 17, 33]
4.264[63, 19, 19, 23, 21, 20, 17, 34]
4.287[63, 19, 20, 20, 20, 19, 17, 32]
4.309[63, 19, 21, 19, 21, 20, 20, 33]
4.324[64, 19, 19, 21, 22, 19, 21, 33]
4.347[63, 23, 19, 22, 21, 17, 22, 33]
4.369[32, 24, 19, 20, 21, 16, 22, 21]
4.384[30, 24, 18, 19, 22, 16, 20, 20]
4.407[25, 23, 21, 18, 22, 16, 19, 18]
4.429[23, 24, 22, 16, 20, 17, 18, 17]
4.444[21, 19, 22, 17, 20, 17, 17, 17]
4.467[19, 19, 22, 17, 20, 17, 18, 17]
4.489[21, 18, 23, 17, 19, 16, 19, 18]
4.505[24, 20, 20, 18, 18, 17, 18, 20]
4.527[23, 18, 20, 18, 21, 16, 18, 20]
4.549[24, 21, 21, 20, 21, 17, 19, 21]
4.564[23, 21, 20, 20, 20, 17, 19, 21]
4.587[22, 20, 20, 19, 20, 19, 20, 21]
4.609[20, 20, 22, 18, 20, 19, 20, 19]
4.624[20, 22, 21, 19, 20, 20, 20, 18]
4.647[20, 22, 20, 19, 19, 20, 21, 19]
4.669[23, 24, 22, 20, 20, 19, 20, 19]
4.692[22, 24, 21, 20, 21, 18, 18, 19]
4.706[20, 24, 21, 21, 20, 18, 18, 20]
4.729[20, 23, 24, 19, 18, 17, 18, 22]
4.744[19, 21, 22, 18, 19, 18, 16, 21]
4.766[18, 19, 21, 17, 20, 19, 16, 20]
4.789[18, 20, 23, 18, 19, 20, 17, 21]
4.804[19, 18, 23, 19, 19, 20, 19, 24]
4.826[20, 19, 22, 19, 20, 19, 19, 24]
4.849[20, 20, 22, 18, 20, 19, 18, 23]
4.864[19, 20, 23, 19, 18, 19, 18, 25]
4.886[20, 19, 23, 19, 19, 20, 17, 25]
4.909[20, 19, 22, 21, 20, 19, 18, 23]
4.932[19, 18, 22, 21, 20, 20, 18, 21]
4.946[18, 18, 23, 21, 20, 19, 17, 21]
4.969[18, 19, 22, 21, 20, 19, 18, 20]
4.992[19, 20, 20, 21, 21, 18, 18, 18]
5.006[19, 19, 21, 20, 21, 18, 16, 18]
5.028[18, 21, 21, 22, 20, 18, 17, 19]
5.052[20, 20, 20, 23, 20, 19, 19, 19]
5.066[21, 19, 20, 22, 22, 19, 20, 19]
5.097[19, 20, 19, 21, 21, 19, 22, 19]
5.112[21, 20, 22, 20, 19, 18, 22, 19]
5.126[22, 20, 22, 19, 21, 18, 21, 19]
5.148[18, 20, 22, 19, 21, 17, 21, 19]
5.172[20, 21, 21, 21, 20, 17, 20, 20]
5.186[19, 20, 23, 21, 20, 15, 19, 20]
5.209[19, 21, 21, 22, 20, 17, 18, 22]
5.232[19, 21, 19, 21, 18, 16, 18, 21]
5.246[21, 20, 19, 20, 20, 17, 19, 20]
5.277[20, 20, 20, 18, 20, 18, 20, 20]
5.292[21, 20, 19, 19, 19, 20, 19, 21]
5.306[21, 20, 19, 17, 21, 19, 20, 18]
5.328[22, 21, 21, 19, 23, 20, 20, 19]
5.352[20, 22, 22, 18, 22, 21, 19, 19]
5.366[20, 22, 20, 21, 22, 21, 16, 19]
5.389[19, 22, 22, 23, 22, 20, 18, 17]
5.412[18, 23, 22, 23, 23, 19, 17, 17]
5.426[18, 21, 20, 21, 21, 19, 16, 19]
5.448[19, 22, 19, 22, 21, 20, 18, 19]
5.471[20, 22, 21, 21, 21, 20, 20, 18]
5.486[20, 21, 18, 19, 22, 20, 19, 19]
5.508[21, 21, 17, 19, 20, 19, 20, 19]
5.531[21, 23, 18, 20, 21, 20, 20, 20]
5.554[20, 21, 19, 21, 20, 17, 21, 20]
5.568[20, 23, 20, 20, 21, 15, 21, 19]
5.591[21, 24, 21, 21, 19, 15, 20, 19]
5.606[19, 24, 21, 21, 20, 16, 20, 19]
5.628[18, 24, 22, 21, 18, 15, 20, 18]
5.651[18, 24, 25, 21, 18, 17, 19, 17]
5.666[18, 23, 24, 22, 16, 19, 19, 16]
5.688[18, 24, 23, 21, 18, 19, 21, 15]
5.711[19, 25, 25, 20, 22, 20, 21, 14]
5.725[19, 25, 22, 20, 21, 19, 20, 15]
5.748[19, 26, 21, 18, 22, 18, 21, 14]
5.771[18, 25, 20, 16, 23, 17, 19, 17]
5.785[22, 24, 20, 18, 24, 18, 19, 18]
5.808[22, 21, 19, 19, 21, 17, 21, 18]
5.831[24, 23, 20, 19, 21, 17, 21, 19]
5.854[24, 23, 23, 19, 23, 20, 21, 20]
5.868[25, 24, 24, 19, 23, 20, 23, 18]
5.899[21, 22, 24, 20, 23, 19, 22, 18]
5.913[21, 24, 23, 19, 22, 21, 20, 20]
5.928[18, 22, 23, 19, 23, 22, 21, 19]
5.951[19, 21, 19, 19, 22, 19, 20, 20]
5.974[17, 21, 17, 21, 21, 18, 19, 20]
5.988[19, 21, 17, 19, 19, 19, 19, 18]
6.011[22, 20, 17, 22, 18, 19, 19, 17]
6.034[22, 18, 19, 21, 17, 19, 18, 19]
6.048[22, 19, 20, 22, 17, 19, 20, 18]
6.071[22, 19, 22, 22, 17, 20, 19, 21]
6.093[22, 20, 22, 21, 19, 19, 20, 22]
6.108[19, 19, 22, 19, 19, 17, 21, 22]
6.131[20, 22, 22, 20, 19, 17, 23, 20]
6.154[20, 23, 19, 19, 18, 17, 22, 20]
6.168[20, 23, 18, 19, 18, 17, 22, 17]
6.191[20, 21, 18, 19, 17, 20, 22, 17]
6.213[20, 20, 21, 20, 19, 21, 21, 17]
6.228[20, 19, 20, 20, 21, 20, 19, 17]
6.251[18, 18, 20, 18, 22, 21, 19, 18]
6.273[20, 18, 22, 19, 22, 21, 20, 18]
6.288[20, 19, 21, 18, 22, 20, 20, 19]
6.311[19, 21, 20, 18, 20, 20, 20, 19]
6.333[19, 20, 20, 18, 21, 21, 20, 20]
6.347[20, 21, 21, 18, 20, 20, 19, 20]
6.371[17, 23, 20, 17, 20, 21, 18, 21]
6.393[19, 24, 22, 17, 21, 19, 18, 19]
6.408[19, 24, 20, 18, 22, 19, 17, 21]
6.431[19, 24, 22, 19, 19, 19, 17, 19]
6.453[18, 25, 21, 20, 22, 19, 18, 20]
6.467[19, 23, 22, 20, 22, 21, 18, 19]
6.491[19, 24, 19, 20, 21, 21, 18, 21]
6.513[18, 22, 19, 19, 20, 21, 18, 20]
6.527[19, 23, 19, 18, 21, 20, 20, 20]
6.551[21, 22, 19, 17, 19, 20, 20, 19]
6.573[23, 22, 19, 19, 18, 19, 20, 19]
6.588[20, 20, 19, 18, 19, 20, 19, 19]
6.61[22, 22, 21, 18, 20, 20, 21, 19]
6.633[21, 22, 20, 20, 19, 22, 20, 21]
6.648[21, 22, 19, 20, 19, 22, 20, 21]
6.671[19, 24, 21, 19, 20, 22, 20, 23]
6.693[20, 24, 20, 20, 20, 22, 19, 23]
6.708[19, 23, 19, 19, 19, 23, 18, 24]
6.73[20, 23, 21, 18, 21, 20, 17, 23]
6.753[19, 23, 21, 17, 20, 22, 19, 21]
6.767[21, 24, 20, 18, 21, 20, 18, 19]
6.79[23, 22, 21, 16, 21, 20, 19, 20]
6.813[21, 24, 20, 17, 22, 19, 19, 18]
6.835[22, 22, 19, 19, 20, 19, 20, 20]
6.851[21, 22, 19, 19, 21, 18, 18, 20]
6.873[18, 19, 19, 19, 19, 19, 19, 20]
6.895[18, 20, 20, 20, 19, 18, 18, 19]
6.91[19, 18, 21, 21, 19, 19, 18, 18]
6.94[16, 18, 20, 19, 19, 21, 19, 18]
6.955[16, 19, 20, 19, 18, 19, 19, 18]
6.97[18, 21, 19, 18, 18, 19, 19, 17]
6.993[19, 22, 16, 19, 18, 19, 20, 18]
7.015[18, 20, 17, 19, 18, 18, 20, 18]
7.03[21, 22, 19, 19, 18, 17, 20, 18]
7.053[21, 20, 20, 19, 19, 18, 20, 18]
7.075[20, 20, 22, 20, 19, 18, 19, 20]
7.09[18, 21, 22, 18, 20, 18, 18, 18]
7.113[19, 21, 21, 18, 19, 20, 18, 20]
7.135[18, 21, 21, 18, 20, 19, 18, 19]
7.15[19, 22, 21, 19, 20, 20, 18, 20]
7.173[20, 21, 20, 17, 21, 21, 18, 20]
7.196[20, 17, 21, 19, 20, 23, 18, 21]
7.21[19, 20, 20, 20, 22, 21, 18, 20]
7.233[19, 19, 19, 19, 20, 21, 18, 20]
7.255[19, 19, 19, 18, 20, 23, 17, 19]
7.27[19, 19, 19, 19, 18, 22, 18, 17]
7.292[19, 20, 20, 18, 20, 18, 19, 16]
7.315[19, 21, 20, 16, 20, 20, 17, 17]
7.329[18, 20, 21, 17, 22, 20, 18, 18]
7.353[18, 21, 22, 18, 22, 19, 19, 18]
7.375[17, 22, 21, 17, 23, 19, 17, 18]
7.397[18, 23, 22, 16, 21, 19, 18, 20]
7.413[19, 22, 21, 19, 19, 18, 18, 21]
7.434[18, 22, 21, 19, 18, 22, 19, 19]
7.457[17, 21, 21, 20, 21, 22, 18, 20]
7.473[18, 21, 22, 19, 22, 21, 19, 21]
7.494[17, 21, 21, 21, 20, 22, 18, 22]
7.517[18, 21, 22, 20, 21, 21, 20, 21]
7.533[20, 21, 22, 20, 24, 17, 19, 20]
7.554[20, 22, 21, 20, 21, 19, 19, 20]
7.577[19, 21, 21, 21, 21, 18, 20, 21]
7.593[21, 22, 21, 20, 22, 20, 22, 21]
7.614[20, 22, 21, 18, 21, 20, 21, 21]
7.636[18, 22, 20, 21, 20, 19, 20, 22]
7.659[19, 22, 24, 20, 21, 18, 19, 22]
7.674[20, 21, 24, 20, 21, 20, 18, 20]
7.69[19, 20, 23, 19, 23, 16, 17, 20]
7.713[19, 19, 23, 21, 23, 18, 17, 19]
7.734[19, 19, 23, 19, 22, 21, 16, 20]
7.756[18, 18, 19, 19, 22, 20, 18, 20]
7.78[19, 19, 20, 20, 21, 19, 18, 20]
7.794[18, 20, 21, 20, 19, 19, 17, 17]
7.816[19, 21, 22, 21, 18, 21, 19, 18]
7.833[19, 22, 23, 20, 20, 18, 19, 20]
7.854[19, 22, 23, 21, 19, 21, 20, 19]
7.876[20, 23, 22, 21, 18, 22, 20, 18]
7.893[19, 24, 21, 23, 18, 23, 20, 19]
7.914[20, 23, 20, 20, 21, 21, 20, 18]
7.936[20, 22, 18, 23, 19, 21, 20, 16]
7.953[20, 23, 19, 24, 21, 18, 20, 17]
7.974[19, 22, 22, 24, 21, 17, 21, 18]
7.996[22, 21, 21, 22, 21, 16, 22, 19]
8.019[20, 21, 23, 22, 20, 16, 20, 20]
8.034[20, 23, 23, 20, 21, 15, 21, 20]
8.057[19, 23, 24, 19, 21, 17, 21, 21]
8.072[19, 23, 25, 19, 20, 16, 20, 20]
8.094[17, 22, 25, 20, 21, 18, 18, 20]
8.117[18, 23, 23, 21, 20, 18, 19, 20]
8.131[19, 20, 24, 21, 20, 20, 17, 19]
8.154[18, 21, 23, 20, 18, 20, 19, 18]
8.176[19, 22, 20, 19, 20, 20, 19, 18]
8.191[19, 22, 21, 18, 20, 21, 19, 17]
8.214[20, 22, 20, 18, 19, 21, 18, 16]
8.236[19, 24, 21, 20, 20, 21, 18, 16]
8.251[21, 23, 22, 22, 21, 20, 15, 17]
8.273[19, 21, 21, 21, 21, 19, 16, 17]
8.297[20, 23, 22, 23, 20, 18, 17, 16]
8.311[20, 22, 23, 23, 21, 17, 18, 17]
8.334[19, 21, 22, 22, 21, 17, 19, 19]
8.356[19, 22, 21, 21, 21, 17, 20, 18]
8.371[19, 22, 20, 22, 21, 18, 19, 19]
8.393[17, 21, 21, 20, 21, 15, 19, 21]
8.416[17, 22, 21, 21, 21, 19, 19, 20]
8.431[20, 20, 21, 21, 20, 21, 21, 20]
8.453[19, 20, 22, 20, 19, 20, 21, 20]
8.476[20, 21, 24, 19, 19, 22, 21, 19]
8.491[19, 23, 23, 21, 20, 23, 20, 19]
8.513[19, 22, 23, 19, 22, 20, 21, 18]
8.536[17, 24, 22, 18, 21, 18, 19, 17]
8.551[17, 24, 22, 19, 23, 18, 18, 19]
8.581[18, 23, 21, 20, 22, 16, 18, 18]
8.596[22, 21, 19, 19, 22, 17, 20, 20]
8.618[21, 20, 19, 20, 21, 19, 19, 20]
8.633[21, 22, 20, 21, 21, 18, 21, 20]
8.656[21, 21, 19, 23, 21, 19, 21, 20]
8.671[20, 20, 21, 23, 22, 19, 21, 20]
8.693[18, 21, 21, 21, 21, 19, 21, 18]
8.716[17, 21, 22, 22, 20, 21, 19, 18]
8.738[17, 18, 22, 21, 22, 20, 17, 17]
8.754[21, 18, 21, 19, 21, 21, 19, 16]
8.785[21, 20, 20, 20, 21, 20, 18, 16]
8.798[21, 19, 21, 20, 20, 19, 17, 16]
8.813[21, 20, 20, 19, 20, 18, 18, 19]
8.836[20, 22, 22, 20, 18, 19, 18, 19]
8.858[19, 22, 21, 20, 19, 17, 16, 19]
8.873[20, 18, 21, 18, 19, 17, 17, 21]
8.896[19, 21, 20, 19, 19, 19, 17, 19]
8.918[20, 19, 20, 18, 21, 17, 17, 18]
8.933[21, 18, 19, 17, 23, 16, 17, 17]
8.956[19, 19, 19, 19, 22, 17, 17, 20]
8.978[19, 22, 23, 20, 22, 17, 16, 19]
8.993[20, 22, 21, 20, 21, 16, 15, 21]
9.016[21, 23, 22, 21, 21, 16, 15, 20]
9.038[20, 23, 22, 21, 18, 17, 17, 23]
9.053[24, 23, 22, 21, 18, 19, 17, 22]
9.075[23, 22, 20, 19, 19, 19, 18, 21]
9.098[22, 22, 20, 21, 19, 19, 22, 22]
9.113[22, 22, 21, 18, 17, 20, 22, 23]
9.136[24, 22, 20, 18, 18, 21, 20, 21]
9.158[20, 23, 22, 18, 20, 20, 25, 20]
9.173[23, 22, 21, 18, 20, 22, 25, 20]
9.195[22, 22, 23, 18, 22, 21, 22, 19]
9.218[21, 22, 21, 17, 23, 21, 22, 18]
9.233[18, 21, 23, 18, 22, 21, 22, 19]
9.255[19, 20, 22, 17, 21, 21, 18, 21]
9.278[16, 19, 22, 19, 19, 21, 17, 21]
9.294[16, 18, 20, 20, 17, 22, 17, 21]
9.315[17, 18, 21, 21, 17, 21, 17, 20]
9.338[18, 19, 20, 20, 17, 21, 16, 17]
9.353[19, 17, 21, 22, 16, 22, 16, 16]
9.375[20, 20, 21, 22, 18, 20, 17, 17]
9.398[20, 20, 22, 22, 18, 18, 17, 16]
9.413[20, 22, 21, 22, 17, 19, 17, 17]
9.435[22, 22, 22, 23, 17, 20, 17, 18]
9.458[22, 23, 21, 23, 19, 19, 17, 16]
9.473[21, 22, 21, 20, 19, 19, 18, 16]
9.495[22, 24, 20, 19, 19, 21, 19, 19]
9.518[22, 21, 19, 19, 21, 20, 19, 22]
9.533[19, 22, 18, 18, 20, 19, 21, 21]
9.555[19, 21, 17, 15, 20, 19, 20, 23]
9.578[20, 20, 19, 15, 21, 20, 20, 22]
9.593[18, 20, 21, 17, 22, 19, 20, 20]
9.615[19, 20, 19, 17, 20, 19, 19, 18]
9.638[20, 21, 20, 21, 21, 17, 18, 20]
9.66[20, 21, 23, 22, 22, 17, 19, 19]
9.675[20, 23, 22, 23, 23, 16, 19, 19]
9.698[19, 21, 22, 22, 22, 18, 19, 20]
9.72[19, 20, 25, 22, 23, 18, 18, 18]
9.735[20, 19, 25, 19, 23, 20, 19, 19]
9.757[18, 20, 23, 19, 22, 22, 21, 18]
9.78[20, 19, 25, 19, 20, 23, 20, 19]
9.795[20, 19, 24, 20, 19, 20, 20, 20]
9.817[20, 20, 21, 19, 19, 20, 22, 20]
9.84[19, 21, 23, 20, 18, 20, 22, 19]
9.855[21, 24, 23, 22, 18, 17, 24, 19]
9.877[21, 22, 21, 21, 19, 17, 24, 19]
9.9[22, 24, 19, 21, 21, 18, 24, 17]
9.915[23, 25, 20, 22, 20, 19, 24, 19]
9.937[23, 24, 18, 22, 22, 19, 23, 19]
9.961[21, 23, 17, 23, 21, 21, 18, 20]
9.975[23, 23, 17, 22, 21, 20, 18, 20]
9.997[22, 24, 18, 23, 19, 19, 18, 19]
10.02[20, 22, 17, 22, 19, 18, 19, 19]
10.035[21, 23, 18, 21, 17, 18, 20, 19]
10.057[21, 21, 19, 21, 16, 17, 20, 18]
10.08[18, 21, 19, 21, 16, 20, 20, 18]
10.095[17, 23, 49, 25, 18, 19, 22, 19]
10.117[24, 28, 92, 56, 22, 20, 23, 19]
10.141[51, 37, 193, 118, 33, 22, 22, 36]
10.155[81, 187, 270, 439, 181, 51, 32, 46]
10.178[95, 309, 298, 773, 396, 115, 51, 58]
10.2[104, 458, 356, 1023, 588, 175, 66, 66]
10.215[127, 510, 371, 1183, 695, 204, 75, 74]
10.237[235, 694, 389, 1304, 750, 212, 101, 138]
10.26[300, 735, 440, 1439, 895, 249, 139, 171]
10.274[351, 825, 609, 1519, 986, 297, 166, 196]
10.297[379, 813, 689, 1501, 944, 295, 172, 200]
10.32[385, 889, 736, 1447, 895, 290, 176, 202]
10.334[375, 859, 772, 1527, 888, 292, 166, 175]
10.357[348, 833, 784, 1404, 744, 267, 145, 152]
10.379[303, 708, 717, 1231, 527, 190, 111, 128]
10.395[268, 654, 655, 1188, 455, 154, 95, 119]
10.417[260, 529, 721, 1158, 429, 140, 84, 112]
10.44[191, 449, 710, 1073, 363, 133, 81, 97]
10.455[176, 477, 706, 1150, 403, 144, 65, 87]
10.477[182, 559, 744, 1230, 435, 166, 70, 74]
10.5[187, 572, 708, 1256, 431, 167, 71, 75]
10.514[176, 586, 647, 1254, 422, 165, 70, 75]
10.537[182, 611, 631, 1161, 419, 161, 66, 70]
10.56[146, 590, 609, 1150, 387, 154, 62, 61]
10.583[118, 530, 510, 1121, 343, 131, 47, 49]
10.597[113, 505, 612, 1111, 321, 120, 41, 42]
10.62[134, 523, 569, 1083, 316, 112, 38, 41]
10.642[138, 435, 562, 1073, 312, 105, 35, 50]
10.657[159, 428, 567, 1076, 291, 99, 36, 58]
10.68[166, 422, 676, 1006, 283, 100, 39, 64]
10.702[189, 432, 628, 882, 272, 98, 39, 66]
10.717[179, 378, 660, 873, 251, 91, 38, 70]
10.74[178, 369, 706, 870, 239, 92, 37, 63]
10.762[158, 385, 731, 734, 186, 72, 32, 57]
10.777[151, 390, 655, 789, 243, 73, 30, 53]
10.8[133, 408, 689, 824, 231, 73, 32, 56]
10.822[143, 443, 730, 868, 259, 84, 38, 53]
10.837[131, 456, 663, 850, 264, 86, 40, 51]
10.86[131, 426, 696, 907, 287, 99, 45, 49]
10.882[132, 404, 747, 848, 237, 89, 44, 46]
10.897[121, 391, 761, 823, 237, 91, 44, 42]
10.92[98, 381, 721, 856, 250, 97, 43, 40]
10.943[100, 330, 785, 916, 266, 97, 41, 40]
10.957[103, 319, 706, 814, 245, 86, 37, 41]
10.98[100, 340, 641, 754, 253, 88, 39, 41]
11.002[96, 330, 597, 791, 252, 87, 38, 41]
11.017[104, 278, 604, 719, 228, 75, 36, 38]
11.04[108, 319, 549, 711, 204, 73, 38, 40]
11.063[148, 339, 570, 770, 216, 73, 36, 39]
11.076[159, 336, 549, 820, 224, 76, 37, 42]
11.1[154, 385, 625, 767, 233, 80, 37, 41]
11.122[160, 405, 600, 909, 294, 113, 42, 46]
11.136[183, 380, 599, 906, 331, 120, 42, 47]
11.16[151, 346, 618, 958, 364, 132, 47, 49]
11.182[167, 373, 714, 981, 373, 139, 48, 49]
11.197[169, 341, 633, 1022, 383, 136, 49, 51]
11.22[160, 348, 654, 961, 355, 116, 47, 46]
11.242[143, 350, 662, 912, 323, 107, 45, 44]
11.256[137, 342, 651, 827, 275, 90, 43, 41]
11.28[108, 357, 631, 778, 265, 82, 41, 40]
11.302[110, 407, 718, 726, 243, 83, 38, 36]
11.316[107, 378, 721, 678, 210, 72, 33, 35]
11.34[116, 393, 704, 745, 249, 91, 42, 45]
11.362[132, 412, 713, 727, 249, 94, 38, 45]
11.377[136, 382, 691, 803, 263, 97, 39, 45]
11.399[136, 318, 711, 969, 281, 104, 42, 49]
11.422[154, 330, 717, 1025, 351, 127, 47, 53]
11.445[136, 361, 746, 1061, 346, 121, 41, 44]
11.46[131, 352, 725, 1152, 424, 143, 46, 44]
11.482[122, 323, 779, 1177, 461, 152, 52, 47]
11.496[125, 333, 701, 1142, 510, 163, 54, 44]
11.519[101, 335, 709, 1146, 480, 152, 55, 44]
11.549[99, 278, 675, 1098, 469, 149, 57, 48]
11.564[97, 254, 672, 1025, 409, 133, 55, 47]
11.58[113, 306, 619, 1062, 373, 127, 52, 45]
11.602[132, 269, 613, 1076, 368, 142, 58, 52]
11.624[135, 254, 550, 1038, 361, 143, 58, 52]
11.64[142, 246, 562, 1091, 360, 143, 54, 49]
11.662[137, 304, 551, 1080, 352, 136, 51, 49]
11.684[129, 266, 624, 1023, 358, 139, 50, 49]
11.699[101, 272, 629, 888, 278, 108, 41, 43]
11.722[101, 289, 657, 904, 268, 101, 37, 38]
11.752[102, 303, 732, 830, 271, 102, 38, 36]
11.76[109, 255, 728, 959, 346, 131, 50, 39]
11.782[103, 239, 606, 1003, 378, 138, 51, 37]
11.804[104, 248, 591, 1074, 379, 134, 48, 37]
11.819[98, 220, 656, 1126, 410, 146, 52, 40]
11.842[89, 204, 607, 1127, 419, 151, 53, 40]
11.864[102, 260, 637, 1043, 365, 128, 43, 39]
11.879[114, 261, 664, 926, 306, 108, 42, 43]
11.902[116, 281, 655, 849, 296, 105, 42, 43]
11.924[121, 300, 562, 720, 243, 87, 37, 38]
11.939[115, 352, 515, 700, 232, 74, 35, 39]
11.961[105, 326, 556, 760, 242, 84, 36, 36]
11.984[95, 352, 643, 932, 295, 102, 39, 34]
11.999[95, 335, 698, 979, 300, 105, 39, 32]
12.022[87, 318, 697, 1011, 307, 105, 39, 31]
12.044[95, 252, 728, 1035, 298, 108, 38, 30]
12.058[112, 243, 689, 1034, 286, 108, 41, 36]
12.082[118, 194, 599, 903, 216, 87, 36, 34]
12.104[123, 177, 511, 868, 217, 90, 38, 34]
12.118[128, 168, 528, 879, 222, 92, 38, 35]
12.142[126, 200, 472, 931, 254, 99, 40, 35]
12.164[107, 242, 505, 906, 266, 97, 39, 33]
12.178[103, 266, 499, 921, 277, 100, 38, 32]
12.201[105, 270, 540, 897, 276, 95, 36, 34]
12.224[111, 282, 534, 836, 255, 87, 34, 35]
12.239[138, 302, 563, 758, 221, 72, 33, 38]
12.262[134, 271, 496, 715, 215, 64, 30, 34]
12.284[157, 262, 478, 711, 203, 53, 29, 35]
12.298[156, 269, 459, 703, 196, 52, 30, 35]
12.321[151, 287, 470, 769, 221, 66, 32, 34]
12.344[127, 250, 554, 716, 236, 79, 35, 35]
12.358[132, 273, 598, 692, 226, 81, 36, 36]
12.381[104, 285, 614, 697, 241, 87, 38, 37]
12.403[95, 287, 583, 721, 246, 90, 37, 38]
12.425[106, 266, 613, 668, 229, 86, 38, 44]
12.442[110, 289, 504, 712, 208, 74, 35, 46]
12.463[130, 254, 478, 745, 213, 73, 34, 48]
12.486[133, 230, 445, 708, 184, 66, 31, 47]
12.502[134, 224, 445, 692, 176, 66, 32, 46]
12.523[122, 221, 358, 656, 166, 63, 32, 43]
12.545[146, 239, 378, 600, 159, 63, 36, 43]
12.568[122, 258, 387, 550, 151, 68, 38, 42]
12.583[116, 265, 434, 563, 144, 66, 39, 41]
12.605[116, 282, 468, 557, 148, 62, 39, 41]
12.622[126, 275, 471, 556, 170, 60, 37, 40]
12.643[90, 250, 485, 705, 198, 71, 35, 40]
12.665[115, 246, 485, 708, 189, 60, 32, 41]
12.682[114, 247, 508, 713, 226, 80, 37, 46]
12.703[118, 230, 483, 730, 221, 83, 37, 46]
12.725[136, 249, 499, 753, 211, 84, 38, 47]
12.742[146, 252, 493, 653, 192, 76, 34, 45]
12.763[128, 243, 497, 633, 193, 81, 35, 39]
12.785[127, 233, 435, 639, 161, 66, 31, 35]
12.802[148, 231, 436, 664, 163, 66, 29, 39]
12.823[127, 236, 491, 648, 164, 61, 26, 36]
12.845[134, 250, 466, 613, 157, 60, 28, 39]
12.862[135, 264, 518, 783, 215, 71, 25, 40]
12.883[137, 277, 526, 755, 223, 75, 27, 42]
12.905[120, 306, 529, 746, 224, 74, 27, 38]
12.922[124, 288, 464, 784, 227, 80, 28, 40]
12.943[101, 268, 511, 810, 234, 82, 29, 38]
12.965[100, 257, 454, 692, 189, 72, 27, 38]
12.982[101, 240, 473, 749, 184, 69, 28, 35]
13.003[88, 199, 478, 701, 177, 67, 28, 39]
13.025[70, 193, 471, 687, 173, 65, 29, 35]
13.042[94, 186, 402, 720, 174, 63, 29, 40]
13.063[93, 189, 411, 664, 156, 56, 31, 39]
13.085[87, 188, 368, 552, 140, 54, 29, 38]
13.102[95, 179, 405, 609, 158, 56, 27, 35]
13.123[101, 189, 410, 575, 155, 52, 28, 39]
13.145[102, 175, 430, 568, 151, 53, 26, 37]
13.161[112, 163, 401, 592, 167, 55, 27, 37]
13.183[119, 231, 418, 604, 163, 52, 26, 37]
13.205[114, 242, 469, 543, 145, 51, 26, 35]
13.221[118, 249, 476, 539, 137, 48, 26, 36]
13.243[108, 254, 499, 484, 145, 52, 33, 36]
13.265[94, 262, 518, 493, 128, 54, 34, 35]
13.288[102, 211, 527, 504, 126, 53, 36, 37]
13.31[109, 190, 431, 516, 133, 53, 35, 37]
13.325[117, 172, 426, 520, 135, 56, 36, 37]
13.341[115, 179, 401, 535, 123, 56, 33, 35]
13.362[121, 204, 366, 551, 145, 57, 31, 37]
13.386[110, 224, 357, 547, 166, 58, 29, 35]
13.401[127, 224, 389, 566, 162, 57, 29, 37]
13.422[117, 245, 373, 541, 157, 58, 27, 33]
13.445[117, 262, 369, 610, 175, 55, 27, 31]
13.467[120, 297, 356, 583, 158, 51, 27, 32]
13.49[116, 283, 336, 651, 150, 54, 31, 34]
13.505[85, 287, 309, 657, 149, 53, 32, 37]
13.527[103, 292, 396, 669, 156, 52, 31, 37]
13.542[99, 288, 377, 650, 148, 54, 30, 38]
13.565[104, 222, 390, 684, 155, 56, 28, 35]
13.587[116, 235, 387, 671, 148, 57, 27, 34]
13.602[130, 258, 404, 634, 156, 59, 25, 31]
13.625[123, 239, 403, 685, 150, 58, 28, 31]
13.647[124, 226, 439, 662, 154, 58, 28, 31]
13.662[113, 231, 529, 711, 160, 61, 29, 31]
13.693[106, 226, 576, 678, 164, 60, 26, 31]
13.707[98, 201, 590, 708, 163, 59, 26, 29]
13.723[92, 203, 532, 682, 170, 63, 26, 34]
13.745[113, 240, 533, 673, 158, 64, 26, 36]
13.768[114, 226, 481, 632, 155, 61, 26, 37]
13.782[121, 233, 433, 633, 155, 59, 28, 39]
13.805[121, 260, 396, 621, 146, 58, 29, 40]
13.827[118, 273, 413, 631, 137, 52, 28, 38]
13.842[103, 236, 408, 632, 138, 49, 28, 39]
13.865[101, 267, 380, 579, 137, 53, 28, 40]
13.887[101, 265, 447, 540, 123, 50, 25, 40]
13.902[110, 258, 460, 575, 132, 50, 26, 39]
13.924[101, 253, 491, 550, 144, 52, 26, 36]
13.947[101, 258, 523, 543, 144, 52, 27, 34]
13.962[114, 281, 542, 542, 132, 45, 26, 33]
13.985[109, 276, 478, 638, 143, 46, 28, 31]
14.008[100, 258, 478, 584, 133, 45, 28, 30]
14.022[119, 273, 449, 556, 115, 42, 27, 35]
14.045[124, 269, 440, 561, 122, 47, 27, 34]
14.067[113, 262, 389, 607, 131, 49, 27, 36]
14.082[112, 253, 447, 596, 143, 51, 25, 36]
14.113[141, 317, 429, 621, 152, 50, 24, 41]
14.127[137, 300, 416, 663, 162, 53, 27, 41]
14.142[128, 295, 380, 676, 170, 52, 26, 42]
14.165[131, 259, 483, 661, 191, 57, 27, 39]
14.187[136, 340, 486, 598, 184, 58, 31, 42]
14.209[104, 307, 488, 638, 197, 66, 35, 41]
14.224[106, 297, 493, 674, 194, 69, 34, 38]
14.247[123, 309, 498, 643, 177, 65, 36, 39]
14.262[124, 308, 413, 658, 155, 63, 36, 41]
14.285[115, 235, 380, 655, 152, 66, 34, 39]
14.307[125, 207, 381, 641, 141, 64, 32, 35]
14.323[123, 233, 393, 596, 139, 59, 31, 38]
14.344[126, 220, 365, 582, 146, 62, 30, 37]
14.367[137, 248, 353, 573, 135, 59, 29, 36]
14.389[140, 285, 402, 618, 147, 53, 31, 37]
14.404[129, 290, 414, 577, 158, 50, 34, 37]
14.427[127, 272, 406, 608, 167, 50, 35, 36]
14.449[122, 270, 417, 717, 191, 51, 35, 35]
14.465[127, 272, 412, 756, 202, 53, 38, 38]
14.487[125, 230, 390, 724, 196, 53, 34, 36]
14.509[134, 226, 437, 703, 174, 51, 30, 36]
14.532[125, 241, 449, 647, 162, 52, 28, 34]
14.546[114, 249, 455, 543, 128, 47, 29, 33]
14.569[102, 218, 456, 530, 112, 46, 26, 32]
14.585[114, 222, 399, 531, 107, 49, 28, 34]
14.615[108, 228, 402, 586, 127, 49, 31, 38]
14.629[122, 206, 388, 676, 184, 62, 34, 41]
14.644[145, 210, 386, 668, 195, 64, 34, 44]
14.667[142, 217, 422, 612, 195, 63, 36, 43]
14.689[138, 199, 459, 636, 201, 63, 37, 41]
14.704[144, 203, 405, 618, 199, 65, 33, 38]
14.726[129, 211, 422, 556, 152, 56, 34, 37]
14.749[104, 230, 425, 546, 138, 56, 33, 34]
14.764[101, 240, 390, 546, 140, 56, 31, 33]
14.786[101, 235, 358, 504, 137, 53, 29, 33]
14.809[94, 217, 404, 532, 131, 49, 28, 30]
14.824[100, 240, 391, 532, 142, 46, 26, 31]
14.846[97, 222, 388, 529, 146, 46, 24, 31]
14.869[94, 209, 398, 559, 177, 54, 27, 30]
14.884[88, 213, 397, 565, 176, 59, 26, 31]
14.906[91, 224, 398, 588, 183, 62, 26, 32]
14.929[85, 231, 372, 571, 182, 63, 24, 30]
14.944[91, 227, 351, 671, 210, 69, 25, 28]
14.966[90, 220, 352, 680, 193, 67, 26, 30]
14.989[109, 232, 407, 725, 188, 62, 27, 30]
15.012[100, 240, 388, 719, 184, 61, 29, 32]
15.026[102, 208, 420, 731, 175, 60, 29, 35]
15.049[102, 249, 459, 701, 145, 55, 31, 36]
15.064[109, 272, 458, 661, 136, 52, 28, 35]
15.086[95, 258, 410, 659, 183, 68, 31, 38]
15.109[111, 240, 377, 609, 179, 66, 30, 38]
15.124[124, 253, 373, 592, 187, 67, 32, 39]
15.146[121, 214, 338, 575, 191, 69, 32, 40]
15.169[142, 194, 330, 586, 189, 68, 33, 43]
15.184[152, 216, 369, 603, 152, 58, 31, 44]
15.206[147, 230, 421, 659, 170, 63, 32, 45]
15.229[145, 238, 415, 682, 169, 63, 30, 44]
15.244[150, 232, 429, 642, 154, 58, 30, 44]
15.266[125, 264, 541, 727, 170, 60, 28, 41]
15.289[111, 282, 588, 788, 211, 69, 29, 37]
15.312[122, 287, 590, 811, 201, 63, 30, 38]
15.326[112, 266, 602, 788, 194, 63, 28, 36]
15.349[109, 309, 608, 814, 199, 61, 26, 38]
15.372[119, 304, 578, 730, 192, 60, 28, 43]
15.386[121, 272, 512, 591, 157, 50, 27, 45]
15.409[123, 255, 477, 605, 169, 56, 26, 41]
15.432[134, 265, 485, 610, 167, 53, 28, 43]
15.455[134, 211, 506, 619, 175, 58, 30, 41]
15.469[130, 178, 456, 647, 182, 58, 29, 36]
15.492[126, 172, 472, 695, 177, 56, 31, 36]
15.506[115, 178, 515, 579, 160, 51, 30, 37]
15.537[113, 169, 486, 626, 163, 54, 28, 34]
15.552[109, 155, 473, 626, 161, 52, 30, 32]
15.566[114, 151, 464, 586, 155, 54, 32, 35]
15.589[111, 177, 439, 623, 156, 52, 32, 33]
15.612[117, 174, 449, 652, 161, 53, 33, 32]
15.626[114, 201, 455, 602, 166, 51, 34, 32]
15.649[124, 232, 410, 560, 159, 50, 30, 30]
15.672[121, 245, 434, 549, 152, 47, 28, 27]
15.686[120, 239, 473, 542, 160, 52, 28, 27]
15.709[122, 252, 403, 552, 164, 51, 28, 28]
15.732[114, 235, 432, 564, 163, 52, 29, 37]
15.746[110, 205, 498, 585, 156, 48, 28, 36]
15.769[109, 196, 474, 621, 172, 52, 29, 39]
15.792[117, 267, 497, 595, 174, 53, 29, 40]
15.806[103, 257, 504, 573, 168, 53, 29, 40]
15.829[104, 249, 461, 597, 179, 60, 30, 37]
15.851[96, 258, 432, 602, 187, 64, 33, 42]
15.866[109, 264, 430, 629, 177, 63, 33, 40]
15.889[127, 178, 433, 689, 184, 64, 29, 39]
15.912[125, 182, 438, 707, 199, 68, 32, 38]
15.926[125, 205, 483, 704, 190, 61, 31, 38]
15.949[139, 224, 468, 676, 184, 59, 29, 35]
15.971[123, 221, 456, 657, 180, 61, 29, 35]
15.985[101, 248, 423, 634, 159, 60, 34, 36]
16.009[103, 268, 442, 658, 146, 59, 34, 36]
16.031[101, 262, 424, 667, 149, 63, 32, 31]
16.045[101, 267, 410, 660, 148, 61, 33, 32]
16.069[112, 300, 433, 636, 146, 60, 35, 34]
16.091[108, 288, 495, 535, 146, 58, 32, 33]
16.105[103, 261, 515, 533, 145, 61, 31, 32]
16.129[112, 252, 480, 529, 145, 62, 32, 34]
16.151[122, 260, 494, 601, 148, 66, 35, 34]
16.166[119, 236, 502, 604, 156, 64, 32, 31]
16.189[120, 253, 488, 660, 152, 61, 32, 33]
16.211[121, 277, 451, 649, 146, 54, 31, 33]
16.225[119, 272, 454, 673, 140, 48, 31, 36]
16.249[131, 240, 463, 655, 163, 56, 28, 37]
16.271[122, 240, 444, 664, 155, 57, 29, 36]
16.294[123, 270, 426, 635, 173, 64, 32, 36]
16.309[126, 248, 442, 615, 176, 66, 33, 38]
16.331[126, 265, 489, 552, 173, 69, 32, 36]
16.354[102, 274, 494, 625, 166, 65, 33, 36]
16.369[110, 276, 499, 616, 164, 65, 32, 38]
16.391[120, 218, 491, 600, 139, 57, 30, 38]
16.414[118, 227, 474, 639, 146, 56, 29, 39]
16.429[113, 207, 463, 651, 155, 57, 29, 37]
16.451[111, 230, 445, 572, 154, 54, 29, 35]
16.474[108, 273, 458, 613, 170, 57, 32, 38]
16.488[93, 292, 414, 627, 178, 59, 30, 36]
16.511[105, 295, 465, 635, 182, 61, 29, 33]
16.534[116, 304, 469, 646, 172, 59, 28, 37]
16.548[104, 281, 482, 633, 180, 76, 29, 37]
16.571[103, 227, 499, 665, 181, 84, 29, 37]
16.593[114, 253, 509, 691, 184, 86, 30, 38]
16.617[107, 257, 512, 629, 168, 85, 31, 42]
16.631[118, 258, 495, 669, 177, 84, 34, 43]
16.653[132, 268, 511, 684, 154, 66, 31, 41]
16.668[135, 266, 569, 610, 145, 53, 30, 41]
16.691[129, 230, 552, 617, 141, 56, 32, 43]
16.713[144, 219, 522, 648, 183, 64, 34, 40]
16.728[126, 225, 509, 616, 180, 71, 35, 35]
16.751[117, 211, 460, 665, 196, 76, 38, 37]
16.773[124, 190, 434, 662, 192, 75, 38, 37]
16.787[134, 172, 424, 612, 194, 72, 37, 36]
16.811[119, 185, 396, 619, 172, 66, 33, 37]
16.833[129, 157, 408, 557, 163, 59, 30, 39]
16.847[131, 169, 451, 488, 170, 61, 33, 39]
16.871[121, 175, 409, 488, 174, 65, 31, 37]
16.893[117, 181, 451, 543, 182, 68, 33, 37]
16.908[111, 183, 451, 524, 169, 66, 34, 38]
16.931[106, 202, 434, 622, 189, 73, 37, 41]
16.953[108, 197, 389, 606, 183, 67, 32, 45]
16.968[142, 200, 331, 702, 202, 67, 31, 49]
16.991[140, 212, 316, 652, 195, 63, 30, 48]
17.013[151, 224, 302, 702, 198, 64, 32, 48]
17.027[154, 219, 305, 659, 185, 57, 29, 46]
17.051[185, 237, 314, 667, 167, 59, 30, 45]
17.073[175, 229, 313, 639, 141, 55, 31, 43]
17.088[177, 219, 300, 677, 135, 55, 30, 45]
17.11[178, 206, 286, 601, 128, 50, 26, 42]
17.133[175, 224, 367, 553, 130, 54, 27, 44]
17.147[141, 216, 401, 509, 138, 50, 26, 40]
17.17[128, 216, 437, 454, 128, 47, 26, 39]
17.193[117, 220, 470, 417, 125, 47, 28, 36]
17.216[103, 236, 489, 456, 156, 56, 28, 37]
17.23[140, 233, 430, 568, 148, 53, 29, 40]
17.253[164, 238, 412, 658, 168, 64, 36, 48]
17.276[197, 250, 456, 642, 175, 67, 36, 49]
17.29[197, 239, 422, 635, 170, 67, 33, 48]
17.313[196, 211, 401, 676, 157, 64, 33, 49]
17.335[180, 209, 425, 626, 174, 65, 37, 49]
17.35[183, 204, 463, 549, 158, 53, 30, 42]
17.373[150, 194, 439, 557, 162, 55, 35, 41]
17.395[161, 209, 453, 555, 173, 58, 36, 42]
17.411[173, 198, 459, 523, 179, 61, 37, 45]
17.432[161, 220, 465, 538, 169, 59, 33, 44]
17.455[139, 222, 443, 525, 173, 60, 39, 45]
17.477[134, 234, 432, 516, 159, 54, 37, 44]
17.492[119, 243, 432, 535, 153, 51, 37, 43]
17.515[97, 271, 450, 500, 129, 43, 34, 40]
17.531[104, 240, 432, 499, 127, 42, 34, 36]
17.552[88, 232, 410, 539, 119, 47, 25, 32]
17.575[88, 278, 359, 587, 145, 53, 22, 32]
17.591[113, 277, 360, 595, 145, 53, 25, 36]
17.612[120, 263, 351, 589, 145, 53, 27, 34]
17.634[112, 257, 334, 545, 147, 54, 28, 32]
17.651[117, 271, 399, 627, 149, 61, 34, 35]
17.672[124, 227, 405, 589, 136, 60, 36, 35]
17.694[110, 229, 374, 611, 138, 63, 34, 36]
17.711[113, 240, 379, 606, 148, 69, 34, 36]
17.732[113, 259, 429, 650, 155, 76, 36, 40]
17.754[105, 250, 381, 591, 157, 70, 30, 38]
17.771[94, 243, 391, 575, 153, 69, 29, 36]
17.792[87, 239, 383, 513, 146, 63, 30, 35]
17.814[91, 231, 386, 553, 149, 54, 32, 33]
17.831[94, 236, 393, 498, 141, 43, 30, 26]
17.852[97, 228, 385, 505, 133, 39, 31, 27]
17.874[111, 216, 393, 572, 143, 41, 32, 30]
17.891[113, 233, 443, 571, 142, 43, 29, 29]
17.912[106, 230, 476, 661, 170, 58, 30, 31]
17.935[105, 226, 458, 669, 165, 58, 29, 32]
17.951[100, 238, 449, 638, 168, 58, 29, 32]
17.972[109, 245, 441, 591, 168, 59, 28, 33]
18.002[113, 222, 434, 604, 178, 61, 29, 35]
18.011[118, 212, 372, 489, 144, 49, 28, 37]
18.032[123, 203, 358, 539, 166, 53, 29, 39]
18.055[129, 208, 403, 544, 166, 56, 28, 41]
18.071[131, 217, 385, 586, 174, 55, 29, 41]
18.092[135, 206, 356, 578, 177, 53, 27, 42]
18.114[146, 202, 429, 635, 198, 66, 31, 45]
18.131[140, 200, 425, 629, 182, 63, 32, 45]
18.152[139, 213, 377, 615, 177, 61, 35, 44]
18.174[128, 198, 407, 571, 166, 60, 35, 43]
18.197[116, 220, 395, 611, 173, 65, 37, 43]
18.212[91, 226, 359, 551, 145, 52, 33, 38]
18.234[99, 234, 420, 590, 156, 57, 30, 36]
18.257[94, 260, 438, 619, 164, 57, 29, 36]
18.279[89, 271, 594, 604, 158, 57, 30, 35]
18.302[91, 260, 605, 569, 152, 53, 31, 34]
18.316[102, 256, 590, 593, 159, 56, 33, 38]
18.332[91, 250, 636, 534, 161, 55, 32, 37]
18.354[109, 238, 637, 494, 155, 54, 33, 37]
18.378[107, 240, 472, 550, 160, 54, 30, 36]
18.392[121, 278, 575, 535, 158, 57, 30, 39]
18.414[118, 280, 571, 520, 175, 66, 29, 34]
18.437[130, 300, 501, 581, 182, 63, 30, 36]
18.452[126, 300, 525, 601, 187, 65, 30, 37]
18.474[122, 285, 532, 624, 203, 69, 32, 36]
18.505[108, 242, 430, 726, 224, 76, 35, 35]
18.512[124, 243, 536, 729, 209, 68, 36, 39]
18.534[111, 287, 558, 706, 208, 69, 36, 37]
18.557[102, 243, 532, 735, 203, 66, 33, 37]
18.572[100, 267, 548, 680, 180, 63, 32, 38]
18.594[105, 270, 532, 581, 143, 48, 28, 35]
18.616[101, 276, 435, 583, 150, 48, 25, 30]
18.632[125, 185, 430, 572, 132, 49, 27, 40]
18.654[128, 180, 450, 534, 134, 48, 28, 40]
18.677[134, 162, 449, 526, 143, 48, 30, 41]
18.692[149, 192, 489, 578, 142, 47, 30, 43]
18.714[173, 183, 492, 548, 133, 49, 31, 49]
18.736[172, 193, 431, 509, 129, 47, 30, 48]
18.752[180, 216, 431, 614, 144, 56, 30, 49]
18.774[191, 215, 443, 632, 155, 59, 29, 51]
18.796[182, 211, 389, 573, 152, 59, 27, 49]
18.812[153, 214, 377, 563, 152, 57, 26, 45]
18.835[139, 218, 368, 597, 157, 57, 26, 38]
18.856[125, 200, 326, 450, 141, 55, 28, 36]
18.871[110, 194, 310, 477, 127, 55, 29, 32]
18.894[129, 189, 319, 469, 126, 54, 30, 40]
18.917[144, 180, 305, 530, 138, 59, 33, 41]
18.931[145, 163, 320, 472, 135, 57, 34, 41]
18.954[147, 167, 299, 523, 139, 53, 30, 40]
18.976[140, 223, 274, 507, 145, 57, 31, 40]
18.991[128, 238, 249, 606, 155, 58, 32, 35]
19.014[113, 243, 240, 551, 140, 54, 29, 33]
19.036[117, 256, 237, 591, 145, 57, 27, 34]
19.051[148, 276, 291, 582, 145, 53, 29, 38]
19.074[148, 266, 309, 554, 134, 45, 27, 37]
19.096[140, 240, 328, 482, 157, 54, 28, 35]
19.119[148, 249, 382, 479, 161, 52, 26, 32]
19.134[147, 266, 387, 479, 165, 57, 28, 32]
19.156[119, 254, 361, 526, 170, 61, 29, 33]
19.178[116, 221, 371, 632, 190, 67, 33, 35]
19.193[120, 224, 395, 610, 161, 58, 31, 34]
19.217[103, 232, 363, 639, 165, 65, 32, 36]
19.239[92, 227, 382, 696, 171, 62, 31, 36]
19.253[95, 233, 375, 640, 166, 59, 33, 36]
19.276[106, 230, 396, 571, 162, 55, 31, 34]
19.298[102, 228, 408, 592, 173, 62, 33, 35]
19.322[118, 249, 409, 617, 184, 59, 36, 36]
19.336[119, 247, 383, 543, 171, 60, 35, 34]
19.358[110, 228, 381, 540, 165, 59, 33, 30]
19.373[103, 221, 327, 541, 161, 61, 32, 34]
19.396[141, 277, 292, 551, 150, 54, 31, 37]
19.419[126, 243, 288, 518, 131, 49, 30, 37]
19.433[127, 237, 296, 522, 151, 49, 30, 40]
19.456[138, 248, 344, 627, 165, 53, 31, 41]
19.478[147, 271, 340, 591, 154, 48, 30, 40]
19.493[119, 220, 373, 578, 158, 48, 28, 37]
19.516[122, 225, 375, 605, 151, 46, 27, 35]
19.546[125, 222, 402, 609, 141, 49, 25, 34]
19.554[122, 222, 434, 584, 127, 46, 23, 33]
19.576[108, 246, 430, 650, 127, 49, 26, 35]
19.598[105, 241, 412, 638, 128, 51, 28, 37]
19.613[145, 240, 455, 597, 138, 55, 27, 46]
19.636[144, 225, 428, 614, 138, 53, 30, 45]
19.658[134, 218, 362, 580, 143, 56, 30, 44]
19.673[134, 163, 387, 492, 148, 60, 31, 42]
19.696[124, 161, 380, 490, 142, 61, 31, 42]
19.718[62, 146, 335, 467, 132, 58, 30, 30]
19.733[47, 143, 328, 404, 119, 53, 28, 28]
19.756[45, 119, 313, 340, 104, 50, 26, 27]
19.778[39, 103, 264, 381, 103, 45, 23, 26]
19.793[39, 115, 211, 350, 100, 39, 22, 26]
19.816[47, 112, 155, 337, 95, 37, 23, 46]
19.838[69, 113, 122, 282, 81, 34, 23, 51]
19.854[129, 114, 110, 223, 74, 28, 27, 80]
19.876[131, 113, 88, 103, 35, 21, 37, 174]
19.898[139, 71, 70, 88, 32, 22, 41, 214]
19.913[153, 57, 67, 80, 30, 21, 41, 216]
19.936[148, 57, 86, 63, 29, 21, 42, 221]
19.958[121, 59, 84, 45, 29, 23, 41, 222]
19.973[130, 62, 80, 34, 26, 21, 35, 194]
19.996[142, 61, 91, 40, 25, 19, 33, 171]
20.018[148, 61, 142, 49, 27, 21, 41, 226]
20.041[163, 56, 165, 83, 33, 20, 47, 227]
20.056[153, 44, 168, 88, 31, 19, 50, 223]
20.078[151, 38, 170, 88, 32, 20, 49, 206]
20.101[148, 39, 164, 87, 32, 29, 61, 252]
20.116[185, 43, 126, 82, 30, 28, 60, 252]
20.138[200, 43, 82, 47, 27, 33, 65, 403]
20.161[198, 42, 76, 38, 26, 33, 62, 408]
20.176[198, 43, 72, 38, 26, 33, 62, 411]
20.198[188, 40, 67, 32, 24, 28, 51, 398]
20.221[201, 38, 61, 33, 26, 32, 53, 379]
20.236[173, 31, 42, 32, 24, 30, 41, 217]
20.258[179, 33, 33, 31, 24, 30, 40, 208]
20.281[174, 29, 29, 30, 25, 31, 39, 195]
20.296[175, 31, 28, 30, 25, 30, 37, 143]
20.318[85, 26, 25, 26, 24, 28, 23, 107]
20.341[106, 29, 23, 24, 22, 27, 27, 99]
20.355[95, 28, 24, 23, 22, 27, 27, 84]
20.378[95, 29, 22, 22, 19, 26, 26, 77]
20.401[89, 30, 22, 21, 21, 26, 25, 73]
20.416[85, 32, 23, 22, 21, 23, 24, 70]
20.438[49, 31, 24, 21, 20, 21, 17, 43]
20.461[47, 30, 24, 25, 23, 21, 17, 36]
20.475[69, 30, 25, 24, 25, 21, 18, 40]
20.498[68, 29, 23, 25, 22, 21, 19, 37]
20.521[71, 29, 24, 27, 23, 21, 22, 42]
20.535[86, 28, 22, 26, 24, 21, 22, 47]
20.566[91, 27, 24, 24, 23, 20, 23, 47]
20.581[72, 27, 22, 25, 23, 22, 21, 42]
20.596[71, 25, 22, 26, 23, 19, 20, 43]
20.618[70, 23, 22, 23, 22, 19, 17, 35]
20.641[48, 23, 24, 24, 24, 18, 19, 27]
20.656[59, 24, 23, 24, 23, 18, 18, 30]
20.678[57, 24, 24, 22, 22, 17, 20, 29]
20.701[56, 23, 23, 24, 22, 18, 19, 29]
20.715[54, 24, 24, 24, 23, 19, 20, 28]
20.737[55, 23, 23, 28, 20, 18, 18, 29]
20.761[34, 24, 23, 27, 21, 20, 19, 24]
20.775[33, 28, 23, 30, 21, 20, 19, 24]
20.797[32, 29, 23, 27, 23, 20, 20, 24]
20.821[32, 31, 23, 27, 22, 20, 20, 24]
20.835[29, 31, 22, 26, 22, 21, 22, 24]
20.857[24, 29, 22, 26, 23, 20, 22, 21]
20.881[23, 25, 21, 23, 23, 19, 21, 22]
20.895[25, 25, 21, 23, 22, 18, 21, 22]
20.918[23, 24, 22, 23, 22, 18, 22, 21]
20.941[25, 27, 22, 21, 22, 18, 21, 21]
20.955[25, 29, 24, 24, 23, 17, 20, 22]
20.978[26, 29, 24, 25, 22, 17, 20, 24]
21.0[25, 29, 24, 24, 22, 18, 20, 24]
21.023[25, 27, 22, 24, 23, 19, 19, 24]
21.038[22, 23, 23, 22, 22, 19, 19, 23]
21.061[25, 23, 22, 21, 21, 20, 21, 24]
21.083[25, 20, 23, 22, 24, 20, 21, 22]
21.098[24, 20, 25, 22, 24, 19, 20, 21]
21.12[26, 19, 26, 23, 23, 18, 20, 21]
21.143[28, 21, 25, 23, 23, 18, 21, 20]
21.158[26, 19, 25, 22, 22, 18, 19, 20]
21.18[25, 22, 24, 24, 22, 20, 20, 20]
21.203[27, 23, 24, 27, 22, 19, 20, 20]
21.218[25, 22, 23, 27, 21, 20, 31, 21]
21.241[22, 23, 23, 28, 20, 20, 38, 20]
21.263[24, 23, 23, 28, 20, 19, 38, 21]
21.278[28, 23, 23, 29, 22, 17, 40, 19]
21.301[28, 23, 22, 29, 23, 20, 39, 20]
21.323[28, 25, 22, 29, 24, 19, 33, 20]
21.338[30, 23, 21, 28, 24, 20, 24, 22]
21.361[27, 24, 20, 27, 24, 19, 24, 21]
21.383[24, 23, 21, 22, 20, 20, 22, 24]
21.398[24, 23, 22, 22, 21, 19, 23, 25]
21.421[25, 24, 22, 22, 21, 18, 20, 25]
21.443[24, 24, 22, 20, 22, 16, 19, 24]
21.458[25, 24, 23, 20, 21, 19, 19, 24]
21.481[25, 24, 23, 23, 23, 18, 22, 22]
21.503[21, 22, 22, 22, 23, 19, 20, 20]
21.517[21, 19, 21, 21, 23, 21, 20, 20]
21.541[22, 19, 21, 22, 23, 20, 21, 20]
21.564[20, 21, 20, 22, 22, 19, 22, 22]
21.577[20, 21, 21, 20, 22, 19, 20, 21]
21.601[23, 22, 22, 21, 21, 18, 21, 22]
21.623[24, 23, 23, 23, 21, 18, 23, 21]
21.637[23, 22, 25, 22, 22, 19, 23, 22]
21.661[24, 19, 25, 23, 24, 20, 23, 22]
21.683[24, 20, 23, 23, 22, 20, 22, 22]
21.697[22, 20, 22, 24, 26, 20, 21, 21]
21.72[24, 22, 22, 22, 25, 20, 21, 23]
21.743[24, 24, 22, 24, 25, 21, 20, 24]
21.757[22, 24, 21, 25, 26, 21, 19, 22]
21.78[22, 25, 22, 25, 27, 22, 19, 23]
21.802[22, 26, 22, 23, 24, 23, 18, 23]
21.817[19, 24, 23, 23, 24, 22, 18, 21]
21.84[23, 22, 23, 21, 24, 21, 19, 21]
21.863[23, 23, 23, 21, 21, 19, 18, 21]
21.877[22, 21, 23, 21, 20, 19, 19, 21]
21.9[21, 19, 24, 22, 20, 18, 18, 21]
21.922[21, 22, 23, 21, 20, 19, 18, 21]
21.945[20, 23, 21, 23, 20, 18, 18, 23]
21.96[20, 21, 20, 21, 22, 19, 18, 22]
21.982[26, 21, 22, 22, 23, 18, 18, 23]
22.005[27, 24, 20, 24, 24, 19, 20, 23]
22.02[27, 23, 21, 25, 23, 22, 17, 22]
22.043[28, 23, 22, 25, 25, 21, 18, 19]
22.065[27, 24, 24, 26, 25, 23, 20, 20]
22.08[23, 24, 23, 24, 23, 23, 19, 19]
22.11[24, 23, 24, 23, 22, 23, 19, 17]
22.125[27, 23, 26, 26, 25, 21, 19, 19]
22.14[27, 25, 25, 27, 23, 22, 21, 20]
22.162[29, 24, 26, 27, 23, 25, 20, 18]
22.185[27, 23, 27, 30, 26, 25, 19, 19]
22.2[27, 23, 25, 28, 25, 23, 19, 19]
22.222[26, 23, 23, 27, 24, 23, 22, 18]
22.245[27, 23, 22, 27, 25, 23, 21, 19]
22.26[29, 24, 22, 26, 25, 17, 21, 22]
22.29[30, 24, 22, 25, 23, 16, 21, 22]
22.305[29, 23, 23, 28, 24, 17, 20, 23]
22.32[30, 23, 22, 25, 23, 16, 18, 24]
22.342[28, 22, 22, 23, 23, 18, 17, 23]
22.365[25, 24, 21, 23, 22, 19, 18, 21]
22.38[24, 23, 19, 23, 21, 19, 19, 21]
22.402[23, 26, 19, 19, 18, 19, 18, 20]
22.424[20, 24, 19, 20, 20, 19, 19, 20]
22.44[19, 25, 19, 20, 21, 18, 20, 19]
22.47[19, 22, 20, 22, 20, 20, 17, 19]
22.484[23, 21, 21, 23, 21, 20, 19, 19]
22.5[21, 19, 22, 23, 23, 22, 20, 20]
22.523[22, 19, 24, 23, 21, 21, 19, 21]
22.544[24, 16, 24, 25, 21, 21, 20, 22]
22.56[26, 19, 22, 23, 21, 20, 23, 23]
22.583[23, 20, 22, 22, 21, 20, 21, 22]
22.604[26, 19, 24, 26, 22, 19, 21, 24]
22.621[25, 21, 23, 26, 24, 20, 21, 22]
22.643[24, 22, 25, 26, 24, 19, 18, 21]
22.664[23, 20, 24, 27, 23, 18, 16, 22]
22.68[23, 20, 24, 27, 22, 18, 16, 22]
22.703[22, 21, 23, 24, 21, 17, 17, 20]
22.724[23, 22, 21, 24, 20, 18, 17, 21]
22.74[22, 21, 19, 22, 21, 18, 19, 21]
22.761[20, 22, 20, 22, 20, 20, 21, 19]
22.785[20, 22, 20, 21, 22, 18, 22, 21]
22.8[17, 19, 20, 22, 21, 19, 22, 19]
22.823[20, 21, 21, 23, 21, 18, 23, 19]
22.844[23, 22, 23, 24, 21, 19, 21, 20]
22.86[24, 21, 23, 23, 22, 19, 20, 21]
22.881[24, 22, 23, 23, 21, 20, 19, 21]
22.906[25, 26, 23, 23, 22, 20, 20, 22]
22.926[24, 24, 23, 23, 22, 20, 19, 23]
22.941[23, 27, 24, 23, 22, 19, 20, 23]
22.964[24, 29, 23, 24, 21, 18, 21, 22]
22.986[25, 30, 21, 23, 23, 19, 22, 20]
23.001[25, 27, 20, 25, 22, 19, 22, 20]
23.024[23, 27, 19, 22, 23, 21, 22, 18]
23.046[23, 24, 19, 23, 23, 20, 23, 19]
23.061[20, 20, 20, 22, 23, 21, 22, 20]
23.084[23, 21, 19, 21, 21, 21, 22, 21]
23.106[23, 21, 25, 20, 23, 21, 21, 21]
23.121[25, 21, 24, 20, 23, 22, 21, 21]
23.144[24, 23, 23, 19, 22, 23, 21, 19]
23.166[26, 26, 24, 20, 22, 24, 21, 18]
23.181[23, 25, 25, 21, 21, 22, 21, 18]
23.211[26, 25, 22, 21, 21, 20, 22, 19]
23.226[25, 26, 21, 22, 19, 19, 23, 18]
23.241[25, 26, 20, 23, 19, 20, 22, 17]
23.263[24, 22, 20, 23, 21, 17, 22, 18]
23.286[24, 24, 21, 23, 22, 19, 23, 17]
23.302[20, 24, 22, 23, 21, 21, 21, 16]
23.323[20, 23, 23, 24, 22, 20, 20, 17]
23.346[19, 23, 22, 22, 21, 19, 21, 21]
23.361[19, 23, 23, 22, 19, 19, 20, 20]
23.384[20, 21, 23, 21, 19, 18, 20, 20]
23.406[23, 23, 22, 21, 17, 17, 20, 21]
23.421[22, 23, 22, 22, 17, 18, 19, 21]
23.444[21, 24, 22, 22, 21, 19, 19, 19]
23.466[24, 24, 23, 21, 22, 18, 19, 21]
23.481[21, 22, 21, 23, 21, 19, 20, 22]
23.503[20, 21, 22, 23, 22, 20, 20, 22]
23.526[22, 21, 21, 21, 24, 19, 19, 22]
23.541[24, 20, 22, 21, 23, 20, 18, 21]
23.564[26, 20, 21, 21, 22, 20, 17, 20]
23.586[29, 23, 21, 21, 23, 19, 17, 21]
23.601[30, 22, 20, 21, 23, 19, 19, 21]
23.624[29, 22, 21, 21, 23, 19, 21, 20]
23.646[27, 22, 20, 22, 21, 19, 22, 20]
23.661[25, 25, 18, 21, 21, 20, 23, 18]
23.683[22, 22, 19, 19, 22, 22, 24, 17]
23.706[19, 22, 21, 18, 20, 22, 22, 19]
23.721[22, 23, 20, 16, 17, 22, 21, 20]
23.744[21, 24, 20, 20, 19, 22, 21, 20]
23.766[21, 21, 22, 21, 22, 22, 20, 21]
23.781[22, 23, 22, 21, 22, 19, 18, 20]
23.804[24, 23, 21, 21, 23, 20, 20, 17]
23.826[22, 22, 21, 23, 24, 19, 21, 17]
23.849[23, 21, 20, 21, 24, 19, 21, 17]
23.863[22, 24, 20, 22, 23, 17, 21, 17]
23.886[22, 24, 21, 23, 22, 17, 22, 18]
23.908[19, 24, 22, 25, 22, 16, 23, 19]
23.923[20, 24, 22, 24, 22, 17, 21, 19]
23.946[19, 27, 22, 24, 23, 17, 20, 18]
23.968[19, 26, 21, 24, 21, 18, 19, 18]
23.983[21, 26, 20, 23, 20, 19, 18, 18]
24.006[22, 26, 19, 23, 21, 19, 18, 17]
24.028[25, 26, 20, 24, 23, 19, 20, 20]
24.043[24, 23, 20, 25, 23, 20, 19, 21]
24.065[24, 22, 20, 23, 25, 18, 22, 21]
24.088[22, 23, 20, 23, 26, 21, 22, 21]
24.105[23, 21, 21, 22, 24, 22, 22, 20]
24.125[20, 21, 19, 19, 22, 22, 21, 20]
24.148[20, 21, 20, 18, 24, 22, 22, 20]
24.163[21, 22, 22, 21, 21, 23, 19, 20]
24.185[21, 21, 24, 21, 21, 21, 20, 19]
24.208[18, 23, 23, 25, 23, 21, 19, 18]
24.223[20, 24, 26, 26, 23, 20, 19, 16]
24.245[23, 27, 25, 27, 21, 20, 18, 19]
24.268[21, 24, 24, 26, 22, 21, 20, 19]
24.283[23, 24, 21, 26, 20, 19, 18, 20]
24.305[24, 23, 22, 22, 19, 20, 18, 21]
24.328[22, 22, 20, 22, 21, 21, 18, 21]
24.343[21, 19, 21, 20, 20, 22, 18, 19]
24.365[23, 20, 19, 20, 19, 22, 15, 18]
24.388[21, 23, 21, 20, 21, 25, 18, 21]
24.403[21, 23, 20, 22, 19, 24, 17, 22]
24.425[21, 23, 20, 23, 17, 24, 18, 22]
24.448[20, 22, 21, 22, 17, 22, 19, 22]
24.463[19, 24, 22, 21, 20, 23, 20, 23]
24.485[19, 23, 21, 23, 21, 21, 20, 21]
24.508[20, 22, 21, 23, 21, 23, 19, 22]
24.523[19, 23, 19, 23, 23, 21, 18, 22]
24.545[20, 24, 19, 23, 23, 22, 20, 21]
24.568[19, 23, 21, 23, 21, 19, 20, 21]
24.583[19, 22, 21, 21, 20, 19, 19, 20]
24.605[21, 24, 22, 18, 21, 15, 20, 18]
24.628[21, 24, 24, 19, 20, 16, 21, 19]
24.644[22, 24, 23, 20, 23, 17, 19, 20]
24.665[23, 24, 22, 21, 22, 17, 21, 21]
24.688[22, 22, 24, 20, 22, 18, 20, 22]
24.703[22, 23, 23, 22, 23, 19, 20, 22]
24.725[20, 21, 22, 22, 24, 21, 20, 20]
24.756[19, 22, 22, 22, 21, 20, 20, 20]
24.763[21, 22, 21, 24, 21, 22, 19, 21]
24.785[22, 22, 20, 24, 20, 21, 20, 19]
24.808[22, 22, 19, 22, 18, 20, 21, 18]
24.831[23, 24, 20, 21, 18, 20, 21, 20]
24.845[23, 22, 20, 21, 20, 21, 21, 19]
24.868[23, 25, 22, 20, 21, 20, 20, 20]
24.89[23, 26, 22, 20, 22, 20, 19, 19]
24.905[23, 25, 23, 22, 23, 21, 19, 19]
24.928[24, 24, 24, 22, 22, 19, 18, 21]
24.951[23, 24, 24, 21, 21, 20, 18, 21]
24.965[20, 24, 24, 20, 22, 19, 19, 19]
24.988[20, 23, 24, 21, 21, 19, 18, 19]
25.011[17, 24, 24, 21, 22, 21, 18, 20]
25.025[18, 24, 22, 21, 22, 21, 19, 17]
25.048[17, 24, 22, 22, 22, 20, 20, 17]
25.071[20, 23, 22, 22, 20, 20, 20, 18]
25.085[19, 23, 22, 21, 20, 20, 23, 19]
25.107[23, 22, 23, 19, 19, 18, 23, 19]
25.131[22, 22, 22, 20, 19, 21, 22, 21]
25.145[22, 24, 21, 20, 20, 22, 21, 22]
25.167[21, 24, 22, 20, 21, 23, 22, 21]
25.191[22, 22, 20, 19, 23, 24, 18, 20]
25.205[18, 24, 19, 20, 23, 23, 19, 20]
25.228[17, 22, 21, 20, 25, 20, 21, 18]
25.25[18, 18, 19, 19, 23, 19, 20, 19]
25.265[18, 19, 19, 20, 24, 17, 19, 17]
25.287[18, 19, 23, 21, 23, 16, 20, 18]
25.311[20, 18, 22, 21, 23, 16, 20, 18]
25.325[21, 18, 21, 22, 22, 17, 18, 18]
25.347[24, 22, 21, 21, 21, 19, 19, 18]
25.37[25, 21, 24, 22, 19, 18, 19, 20]
25.385[25, 23, 23, 21, 20, 19, 20, 18]
25.407[25, 23, 23, 22, 20, 20, 21, 18]
25.43[23, 22, 24, 21, 21, 19, 21, 17]
25.445[21, 21, 25, 21, 25, 19, 20, 16]
25.468[20, 20, 23, 20, 24, 19, 20, 16]
25.49[20, 18, 21, 19, 26, 19, 18, 16]
25.505[18, 19, 21, 20, 26, 19, 19, 17]
25.527[20, 17, 22, 19, 25, 18, 20, 20]
25.55[19, 20, 22, 21, 21, 16, 21, 20]
25.565[19, 23, 21, 21, 22, 17, 22, 19]
25.588[18, 22, 21, 22, 19, 19, 22, 20]
25.61[17, 23, 21, 22, 18, 19, 20, 20]
25.625[17, 24, 22, 23, 20, 19, 19, 19]
25.647[17, 21, 20, 24, 23, 19, 18, 19]
25.67[20, 21, 21, 23, 23, 20, 18, 21]
25.685[21, 23, 23, 22, 25, 20, 18, 21]
25.707[24, 20, 23, 21, 25, 20, 20, 24]
25.731[23, 21, 20, 20, 25, 20, 20, 24]
25.753[23, 21, 24, 18, 23, 21, 20, 24]
25.767[21, 20, 24, 19, 25, 20, 18, 23]
25.79[21, 18, 22, 19, 23, 18, 21, 22]
25.813[18, 19, 23, 19, 26, 18, 20, 20]
25.827[18, 20, 24, 18, 24, 19, 21, 23]
25.85[19, 21, 21, 19, 22, 20, 20, 23]
25.873[19, 19, 19, 20, 21, 19, 20, 23]
25.887[19, 20, 22, 19, 22, 20, 18, 24]
25.91[20, 21, 20, 19, 18, 21, 19, 22]
25.933[19, 22, 21, 20, 17, 20, 17, 19]
25.947[17, 21, 22, 20, 20, 20, 19, 18]
25.971[19, 22, 21, 19, 20, 21, 19, 20]
25.993[18, 22, 20, 21, 21, 22, 19, 19]
26.007[21, 21, 22, 22, 23, 21, 17, 19]
26.03[23, 21, 22, 21, 23, 22, 20, 21]
26.053[23, 21, 20, 23, 21, 21, 20, 21]
26.067[22, 21, 21, 23, 22, 19, 20, 21]
26.09[24, 23, 18, 23, 21, 18, 22, 21]
26.113[21, 23, 20, 23, 18, 17, 21, 21]
26.127[22, 21, 19, 24, 18, 17, 21, 19]
26.15[21, 23, 20, 22, 18, 19, 21, 19]
26.173[22, 22, 21, 22, 17, 21, 21, 19]
26.187[22, 19, 21, 21, 19, 21, 21, 19]
26.21[22, 17, 21, 22, 19, 22, 21, 21]
26.233[19, 21, 20, 20, 20, 22, 20, 21]
26.247[21, 21, 19, 21, 20, 21, 19, 20]
26.27[20, 22, 19, 21, 19, 19, 19, 19]
26.293[20, 22, 20, 20, 18, 22, 18, 18]
26.307[22, 24, 19, 18, 19, 20, 21, 17]
26.33[23, 21, 20, 20, 20, 20, 18, 17]
26.352[21, 19, 20, 19, 21, 20, 19, 17]
26.367[21, 20, 22, 20, 21, 22, 20, 17]
26.39[21, 19, 20, 20, 22, 20, 19, 18]
26.413[19, 20, 23, 22, 23, 20, 17, 18]
26.427[19, 19, 23, 22, 24, 20, 19, 19]
26.45[21, 21, 23, 21, 23, 19, 20, 20]
26.473[21, 21, 22, 21, 23, 19, 20, 20]
26.487[21, 21, 21, 22, 23, 20, 20, 19]
26.51[21, 19, 19, 21, 21, 20, 20, 18]
26.532[21, 20, 18, 20, 20, 19, 20, 17]
26.547[20, 20, 20, 21, 21, 19, 19, 17]
26.57[21, 20, 20, 20, 22, 18, 19, 16]
26.593[21, 21, 20, 20, 21, 18, 18, 17]
26.607[21, 23, 21, 19, 22, 17, 22, 18]
26.63[21, 23, 22, 21, 22, 17, 20, 18]
26.652[21, 23, 19, 21, 20, 18, 21, 18]
26.675[19, 22, 19, 21, 19, 20, 20, 18]
26.69[21, 21, 19, 19, 18, 19, 21, 18]
26.713[19, 20, 19, 21, 19, 20, 20, 18]
26.735[20, 19, 18, 22, 18, 22, 19, 19]
26.75[19, 19, 20, 22, 19, 20, 18, 20]
26.773[21, 18, 20, 23, 23, 18, 20, 21]
26.796[20, 18, 21, 24, 24, 20, 20, 20]
26.81[20, 18, 19, 22, 23, 20, 18, 21]
26.832[19, 21, 19, 21, 23, 20, 20, 19]
26.854[18, 19, 18, 22, 23, 21, 20, 21]
26.87[21, 21, 19, 22, 21, 21, 19, 21]
26.892[19, 21, 19, 21, 21, 21, 18, 22]
26.915[19, 20, 21, 21, 21, 19, 20, 23]
26.93[21, 21, 21, 20, 20, 17, 19, 24]
26.952[21, 22, 22, 19, 21, 18, 20, 22]
26.974[17, 22, 21, 18, 21, 17, 20, 22]
26.99[20, 23, 22, 20, 21, 16, 21, 23]
27.013[21, 22, 22, 20, 19, 19, 20, 20]
27.035[19, 22, 22, 20, 20, 20, 21, 19]
27.049[21, 22, 21, 19, 21, 20, 20, 19]
27.072[20, 23, 22, 19, 20, 21, 20, 21]
27.094[18, 23, 22, 17, 21, 21, 19, 19]
27.109[18, 25, 21, 18, 22, 20, 21, 21]
27.132[19, 24, 21, 17, 22, 20, 20, 20]
27.155[18, 23, 21, 18, 21, 19, 20, 21]
27.169[20, 21, 20, 18, 20, 18, 19, 19]
27.192[20, 22, 23, 19, 19, 20, 21, 20]
27.222[20, 20, 23, 19, 18, 19, 20, 18]
27.229[21, 19, 24, 20, 18, 18, 19, 20]
27.252[21, 20, 23, 19, 17, 19, 18, 19]
27.274[19, 20, 22, 19, 19, 20, 19, 18]
27.289[21, 17, 21, 20, 20, 19, 18, 18]
27.312[21, 18, 22, 17, 21, 19, 19, 19]
27.335[20, 20, 21, 18, 21, 22, 21, 19]
27.349[20, 19, 24, 18, 23, 20, 22, 19]
27.372[22, 20, 24, 18, 21, 19, 21, 19]
27.395[21, 20, 22, 19, 22, 20, 19, 18]
27.409[20, 20, 21, 20, 20, 21, 19, 18]
27.433[21, 19, 21, 19, 20, 18, 19, 18]
27.454[22, 21, 19, 22, 19, 19, 19, 18]
27.477[20, 19, 17, 23, 21, 20, 18, 20]
27.493[19, 20, 19, 21, 19, 19, 19, 20]
27.514[18, 21, 19, 22, 22, 20, 19, 22]
27.536[18, 21, 21, 23, 22, 21, 19, 23]
27.552[17, 21, 22, 20, 21, 21, 18, 22]
27.573[16, 23, 22, 19, 20, 21, 18, 21]
27.596[17, 22, 19, 19, 22, 20, 17, 24]
27.614[19, 23, 23, 20, 21, 19, 17, 22]
27.633[21, 23, 23, 18, 21, 18, 17, 22]
27.656[23, 23, 22, 20, 22, 17, 20, 23]
27.679[23, 22, 25, 21, 21, 15, 20, 22]
27.693[24, 22, 26, 23, 21, 16, 20, 18]
27.716[22, 23, 23, 22, 21, 17, 20, 17]
27.732[22, 22, 21, 28, 21, 19, 24, 17]
27.753[19, 20, 21, 28, 21, 19, 22, 20]
27.776[19, 20, 20, 27, 21, 18, 22, 20]
27.792[20, 20, 19, 26, 20, 18, 23, 20]
27.813[21, 21, 19, 27, 20, 19, 23, 21]
27.837[19, 22, 20, 21, 20, 18, 20, 23]
27.852[19, 23, 20, 21, 21, 20, 21, 19]
27.873[21, 24, 18, 22, 22, 22, 21, 21]
27.896[20, 25, 24, 22, 22, 26, 22, 20]
27.912[19, 22, 30, 21, 23, 24, 21, 20]
27.933[19, 21, 30, 22, 23, 25, 22, 19]
27.956[21, 22, 34, 22, 22, 24, 24, 21]
27.972[18, 21, 34, 21, 23, 23, 23, 22]
27.994[19, 21, 32, 19, 21, 18, 22, 22]
28.016[19, 26, 26, 18, 20, 18, 22, 20]
28.032[20, 27, 25, 18, 22, 19, 18, 20]
28.053[19, 27, 22, 18, 24, 19, 18, 19]
28.076[19, 28, 19, 18, 21, 21, 16, 16]
28.092[19, 28, 18, 21, 23, 23, 17, 19]
28.113[20, 24, 22, 22, 24, 23, 19, 20]
28.144[19, 24, 22, 23, 22, 22, 21, 19]
28.152[20, 24, 24, 22, 18, 23, 19, 22]
28.173[19, 21, 24, 23, 20, 22, 21, 22]
28.203[19, 21, 23, 22, 19, 22, 22, 20]
28.212[20, 20, 22, 21, 20, 22, 20, 19]
28.233[21, 19, 25, 20, 20, 22, 20, 20]
28.256[19, 20, 22, 20, 22, 21, 21, 18]
28.272[19, 22, 25, 20, 22, 21, 20, 17]
28.293[19, 21, 28, 19, 23, 25, 19, 18]
28.315[18, 21, 26, 19, 22, 29, 19, 19]
28.332[21, 24, 29, 165, 50, 35, 19, 21]
28.353[22, 26, 34, 256, 109, 39, 22, 23]
28.376[23, 27, 55, 306, 129, 42, 23, 24]
28.392[22, 30, 58, 312, 131, 40, 81, 31]
28.413[24, 33, 65, 315, 133, 40, 128, 38]
28.435[22, 33, 157, 270, 125, 36, 134, 38]
28.452[21, 32, 189, 192, 90, 33, 139, 39]
28.481[22, 29, 188, 98, 62, 30, 140, 39]
28.496[22, 27, 191, 84, 58, 27, 119, 35]
28.512[19, 27, 191, 74, 55, 24, 68, 29]
28.533[19, 34, 128, 70, 54, 21, 56, 27]
28.555[24, 43, 78, 60, 32, 19, 41, 34]
28.578[23, 46, 70, 55, 27, 19, 35, 35]
28.593[23, 46, 57, 46, 27, 21, 28, 32]
28.615[24, 45, 51, 46, 26, 23, 24, 31]
28.638[24, 39, 48, 42, 27, 23, 22, 30]
28.653[22, 28, 31, 31, 24, 23, 20, 22]
28.675[21, 23, 30, 23, 20, 23, 21, 20]
28.698[21, 23, 29, 25, 17, 23, 20, 21]
28.713[22, 23, 28, 26, 19, 21, 18, 20]
28.735[21, 23, 26, 26, 16, 22, 21, 20]
28.758[20, 24, 24, 24, 16, 20, 21, 19]
28.773[22, 23, 26, 25, 19, 19, 21, 19]
28.795[21, 24, 23, 23, 19, 18, 21, 17]
28.818[20, 24, 20, 18, 19, 20, 23, 19]
28.833[20, 23, 20, 17, 19, 19, 21, 19]
28.855[21, 25, 20, 17, 21, 20, 22, 19]
28.878[20, 25, 18, 17, 17, 20, 23, 21]
28.893[20, 23, 19, 17, 18, 20, 22, 21]
28.915[22, 23, 20, 17, 20, 20, 20, 20]
28.938[22, 25, 19, 22, 22, 19, 22, 20]
28.953[21, 23, 22, 22, 21, 19, 21, 21]
28.976[20, 24, 23, 22, 22, 19, 20, 20]
28.998[20, 25, 23, 24, 22, 17, 20, 19]
29.013[19, 24, 23, 24, 19, 21, 22, 19]
29.035[20, 23, 24, 21, 17, 21, 20, 19]
29.058[19, 24, 23, 21, 19, 21, 19, 20]
29.073[20, 25, 20, 21, 20, 23, 22, 22]
29.095[24, 23, 20, 21, 21, 23, 23, 21]
29.118[22, 22, 20, 21, 22, 19, 22, 21]
29.133[23, 23, 19, 22, 22, 21, 21, 21]
29.155[25, 24, 18, 23, 21, 21, 22, 19]
29.178[24, 24, 21, 22, 20, 17, 22, 16]
29.193[21, 25, 21, 22, 18, 18, 22, 20]
29.215[21, 24, 21, 21, 20, 19, 22, 20]
29.238[22, 25, 23, 19, 20, 18, 21, 19]
29.253[20, 22, 24, 19, 19, 20, 22, 20]
29.275[20, 25, 23, 22, 18, 23, 19, 19]
29.297[19, 24, 23, 21, 19, 22, 18, 16]
29.313[21, 25, 23, 23, 17, 22, 19, 15]
29.344[20, 23, 23, 25, 18, 21, 19, 16]
29.357[21, 22, 23, 24, 22, 21, 16, 16]
29.373[22, 20, 22, 23, 21, 18, 19, 18]
29.395[25, 21, 22, 22, 21, 21, 19, 19]
29.417[24, 20, 23, 19, 21, 20, 18, 21]
29.433[24, 21, 22, 20, 21, 21, 18, 21]
29.457[24, 20, 23, 20, 18, 19, 19, 22]
29.477[23, 22, 23, 19, 19, 20, 17, 22]
29.492[18, 22, 23, 19, 19, 18, 18, 20]
29.515[19, 22, 22, 20, 17, 18, 19, 18]
29.537[19, 22, 22, 19, 17, 19, 21, 17]
29.56[19, 22, 20, 19, 19, 20, 21, 17]
29.575[19, 19, 19, 19, 19, 20, 22, 16]
29.597[20, 22, 20, 21, 18, 20, 22, 17]
29.621[20, 21, 20, 20, 21, 21, 22, 17]
29.635[19, 20, 21, 21, 20, 19, 22, 18]
29.658[19, 23, 23, 21, 18, 20, 21, 19]
29.68[21, 23, 24, 23, 21, 19, 20, 19]
29.695[20, 22, 23, 22, 23, 20, 20, 19]
29.717[19, 24, 24, 23, 23, 20, 19, 20]
29.74[20, 25, 24, 23, 24, 23, 17, 19]
29.755[21, 25, 31, 24, 25, 23, 18, 18]
29.777[19, 25, 34, 23, 23, 23, 17, 18]
29.8[19, 24, 35, 24, 22, 23, 19, 17]
29.815[19, 22, 36, 23, 22, 22, 18, 17]
29.838[18, 22, 35, 23, 22, 18, 17, 17]
29.869[20, 24, 30, 26, 21, 18, 18, 21]
29.883[20, 23, 25, 25, 19, 19, 19, 20]
29.897[20, 24, 24, 24, 20, 19, 17, 22]
29.928[19, 24, 33, 26, 18, 20, 19, 21]
29.935[20, 23, 34, 25, 17, 22, 20, 22]
29.965[17, 21, 33, 22, 17, 23, 19, 19]
29.98[19, 23, 35, 24, 18, 22, 18, 19]
29.995[21, 21, 44, 62, 30, 24, 19, 18]
30.017[27, 25, 54, 71, 34, 24, 20, 21]
30.04[33, 116, 198, 163, 88, 32, 23, 20]
30.055[35, 137, 228, 379, 195, 49, 29, 25]
30.077[49, 248, 263, 518, 300, 81, 40, 35]
30.1[93, 310, 330, 617, 375, 106, 53, 65]
30.115[104, 371, 513, 747, 484, 133, 64, 73]
30.137[117, 412, 554, 941, 557, 148, 67, 75]
30.16[123, 500, 592, 1127, 708, 197, 79, 78]
30.177[268, 600, 604, 1212, 837, 247, 101, 112]
30.197[284, 666, 646, 1249, 854, 260, 123, 121]
30.22[294, 694, 631, 1290, 858, 270, 132, 133]
30.234[301, 738, 702, 1231, 853, 287, 136, 136]
30.257[348, 726, 734, 1097, 750, 269, 135, 142]
30.28[297, 660, 749, 1202, 624, 237, 120, 116]
30.303[300, 587, 708, 1217, 582, 220, 95, 102]
30.317[297, 528, 678, 1186, 508, 195, 77, 79]
30.339[294, 479, 669, 1237, 501, 179, 75, 84]
30.354[240, 508, 667, 1219, 474, 166, 73, 75]
30.377[216, 462, 645, 1032, 409, 138, 70, 88]
30.4[189, 508, 694, 1019, 411, 143, 69, 82]
30.423[185, 546, 675, 1046, 413, 155, 72, 83]
30.437[176, 530, 698, 1026, 359, 136, 64, 73]
30.459[175, 461, 681, 1013, 332, 128, 57, 70]
30.483[164, 505, 744, 1048, 337, 136, 60, 62]
30.497[150, 461, 708, 1081, 329, 130, 60, 61]
30.52[142, 422, 706, 1008, 328, 118, 58, 59]
30.543[141, 450, 673, 977, 312, 110, 58, 62]
30.557[159, 510, 676, 968, 309, 109, 57, 67]
30.58[151, 506, 626, 981, 282, 97, 52, 60]
30.603[205, 551, 686, 918, 267, 85, 50, 57]
30.617[205, 581, 730, 919, 239, 81, 46, 57]
30.64[204, 554, 655, 879, 227, 84, 49, 57]
30.662[207, 503, 655, 891, 245, 85, 48, 49]
30.677[207, 520, 664, 822, 251, 81, 47, 49]
30.7[152, 483, 598, 767, 223, 75, 48, 48]
30.722[153, 452, 534, 781, 245, 77, 49, 52]
30.737[155, 449, 522, 814, 252, 86, 46, 50]
30.76[139, 439, 464, 888, 263, 94, 49, 45]
30.782[133, 444, 497, 930, 297, 106, 52, 49]
30.797[146, 455, 479, 1000, 322, 113, 52, 51]
30.82[150, 454, 550, 1016, 311, 116, 55, 50]
30.842[158, 472, 538, 935, 295, 107, 55, 54]
30.857[161, 468, 578, 862, 305, 103, 56, 55]
30.88[152, 427, 585, 824, 273, 91, 52, 48]
30.903[139, 403, 632, 789, 271, 85, 49, 47]
30.917[135, 391, 578, 777, 258, 78, 44, 47]
30.94[141, 363, 630, 868, 314, 92, 47, 46]
30.963[125, 353, 629, 906, 293, 93, 43, 48]
30.977[124, 322, 568, 957, 306, 99, 45, 54]
31.007[128, 333, 511, 960, 299, 103, 47, 53]
31.022[127, 353, 485, 928, 313, 109, 47, 50]
31.037[119, 344, 450, 871, 257, 96, 39, 47]
31.06[146, 362, 414, 823, 247, 94, 42, 48]
31.082[153, 358, 475, 836, 261, 106, 44, 44]
31.097[149, 386, 527, 853, 292, 116, 43, 46]
31.12[149, 369, 519, 918, 302, 120, 41, 53]
31.142[140, 346, 510, 991, 327, 128, 47, 55]
31.157[108, 318, 552, 1091, 400, 141, 47, 50]
31.18[93, 314, 518, 1031, 384, 128, 44, 47]
31.202[102, 247, 487, 1055, 369, 118, 44, 46]
31.217[108, 238, 539, 1064, 392, 122, 43, 39]
31.24[105, 277, 549, 1033, 394, 115, 39, 35]
31.262[112, 295, 542, 912, 315, 98, 32, 34]
31.277[119, 309, 514, 858, 301, 97, 36, 46]
31.3[116, 333, 493, 746, 270, 94, 35, 46]
31.323[127, 338, 542, 759, 239, 83, 37, 45]
31.336[135, 325, 626, 715, 209, 81, 37, 49]
31.36[130, 315, 627, 686, 202, 76, 39, 54]
31.382[123, 288, 630, 712, 196, 74, 34, 42]
31.412[135, 278, 630, 714, 196, 65, 33, 44]
31.42[114, 301, 680, 634, 179, 71, 40, 44]
31.442[105, 289, 644, 664, 171, 71, 38, 40]
31.465[137, 294, 596, 726, 206, 83, 38, 46]
31.48[141, 325, 610, 859, 224, 94, 40, 48]
31.502[127, 311, 608, 849, 225, 96, 42, 48]
31.525[156, 279, 439, 802, 213, 87, 35, 49]
31.54[163, 269, 367, 771, 214, 89, 37, 49]
31.562[136, 267, 439, 763, 196, 81, 37, 40]
31.585[151, 300, 461, 632, 179, 70, 37, 42]
31.6[164, 283, 493, 687, 192, 75, 37, 42]
31.622[141, 279, 539, 746, 193, 78, 40, 39]
31.644[142, 293, 518, 733, 202, 78, 40, 39]
31.66[142, 282, 477, 765, 202, 83, 42, 42]
31.682[116, 205, 448, 739, 208, 88, 40, 36]
31.705[99, 292, 489, 742, 215, 92, 40, 38]
31.72[93, 309, 455, 666, 209, 86, 39, 41]
31.742[92, 310, 446, 678, 200, 84, 38, 43]
31.764[146, 311, 445, 607, 179, 77, 36, 40]
31.78[147, 321, 482, 646, 179, 78, 42, 44]
31.802[145, 243, 418, 629, 171, 72, 41, 42]
31.825[151, 222, 425, 652, 169, 72, 38, 41]
31.84[146, 222, 443, 620, 166, 74, 37, 39]
31.869[112, 229, 436, 600, 172, 77, 41, 46]
31.884[122, 214, 373, 610, 153, 70, 37, 44]
31.899[129, 217, 363, 604, 161, 71, 39, 44]
31.921[128, 249, 453, 593, 168, 71, 38, 46]
31.944[126, 281, 442, 667, 181, 72, 39, 45]
31.959[120, 277, 461, 673, 189, 71, 36, 38]
31.982[111, 287, 491, 684, 192, 69, 35, 36]
32.012[108, 338, 511, 669, 182, 67, 32, 36]
32.019[109, 316, 418, 674, 175, 65, 34, 35]
32.042[111, 275, 430, 639, 156, 59, 30, 37]
32.064[97, 283, 403, 649, 142, 51, 29, 38]
32.079[95, 282, 388, 679, 178, 60, 31, 38]
32.102[97, 234, 428, 627, 164, 55, 30, 39]
32.124[97, 264, 422, 674, 171, 57, 34, 38]
32.139[92, 270, 464, 625, 183, 61, 35, 33]
32.162[135, 257, 475, 653, 189, 66, 35, 35]
32.184[139, 237, 487, 606, 170, 64, 34, 35]
32.198[136, 218, 481, 679, 176, 67, 34, 31]
32.222[138, 204, 476, 618, 166, 64, 28, 33]
32.244[151, 198, 452, 640, 164, 63, 29, 39]
32.258[117, 195, 435, 599, 167, 60, 25, 35]
32.282[123, 214, 444, 552, 151, 52, 26, 36]
32.304[121, 234, 449, 477, 155, 51, 26, 37]
32.318[126, 199, 507, 482, 159, 54, 27, 38]
32.342[118, 193, 499, 467, 150, 54, 30, 37]
32.364[116, 198, 509, 447, 139, 56, 30, 37]
32.387[108, 198, 496, 513, 160, 59, 31, 39]
32.402[128, 188, 453, 561, 149, 62, 34, 44]
32.424[121, 201, 382, 585, 139, 59, 35, 41]
32.446[121, 233, 364, 611, 145, 55, 30, 37]
32.462[144, 263, 416, 671, 136, 50, 33, 41]
32.484[154, 258, 404, 650, 122, 56, 31, 44]
32.506[136, 239, 369, 619, 124, 53, 30, 40]
32.522[127, 235, 384, 604, 131, 54, 29, 37]
32.544[128, 235, 418, 605, 123, 55, 30, 38]
32.566[94, 193, 362, 534, 126, 60, 30, 33]
32.582[77, 213, 407, 540, 114, 50, 31, 27]
32.603[90, 208, 436, 526, 111, 51, 29, 29]
32.626[94, 209, 428, 513, 115, 54, 29, 32]
32.642[81, 165, 416, 569, 178, 68, 33, 32]
32.663[84, 177, 409, 578, 177, 64, 30, 31]
32.686[95, 189, 404, 510, 184, 69, 29, 38]
32.702[81, 223, 404, 518, 184, 68, 28, 36]
32.723[78, 237, 394, 501, 182, 66, 32, 34]
32.747[102, 271, 420, 461, 125, 51, 28, 36]
32.762[121, 282, 479, 473, 135, 53, 29, 40]
32.783[113, 292, 450, 486, 123, 51, 30, 34]
32.806[113, 268, 469, 616, 150, 56, 33, 34]
32.829[133, 261, 474, 622, 146, 54, 30, 34]
32.843[137, 234, 424, 552, 136, 53, 30, 35]
32.866[122, 238, 438, 553, 127, 51, 31, 33]
32.882[123, 195, 469, 552, 131, 51, 31, 35]
32.903[121, 223, 461, 465, 116, 49, 31, 34]
32.926[101, 214, 548, 499, 132, 51, 32, 34]
32.942[72, 215, 559, 549, 166, 57, 34, 33]
32.963[86, 233, 537, 611, 182, 62, 36, 35]
32.986[92, 251, 512, 603, 181, 59, 36, 38]
33.002[101, 237, 479, 645, 173, 58, 36, 41]
33.023[101, 255, 405, 665, 168, 60, 36, 40]
33.046[112, 251, 397, 676, 141, 56, 34, 39]
33.062[105, 220, 438, 637, 135, 57, 32, 36]
33.083[107, 201, 454, 647, 147, 57, 31, 35]
33.106[122, 197, 463, 649, 159, 57, 32, 37]
33.122[122, 173, 499, 668, 172, 58, 32, 37]
33.144[114, 164, 490, 609, 169, 56, 33, 40]
33.165[115, 153, 397, 596, 166, 51, 35, 43]
33.182[108, 151, 532, 645, 161, 54, 35, 41]
33.203[95, 164, 547, 561, 148, 50, 32, 42]
33.225[94, 191, 486, 533, 147, 47, 33, 43]
33.242[95, 214, 523, 547, 148, 47, 33, 42]
33.263[89, 215, 520, 540, 140, 45, 30, 38]
33.285[85, 226, 347, 536, 139, 44, 29, 35]
33.308[81, 218, 373, 574, 153, 54, 30, 29]
33.323[83, 225, 373, 571, 144, 56, 30, 31]
33.345[82, 237, 412, 599, 157, 66, 30, 35]
33.368[95, 249, 418, 598, 163, 72, 29, 36]
33.383[97, 251, 409, 537, 158, 72, 29, 37]
33.405[93, 247, 387, 511, 162, 69, 27, 37]
33.428[99, 217, 396, 482, 154, 65, 29, 36]
33.443[97, 204, 322, 458, 148, 57, 27, 33]
33.465[102, 249, 383, 418, 151, 58, 30, 37]
33.488[105, 238, 395, 425, 151, 55, 29, 37]
33.503[108, 243, 395, 458, 149, 54, 29, 37]
33.525[103, 256, 405, 444, 162, 60, 28, 37]
33.548[112, 297, 429, 407, 155, 58, 28, 36]
33.563[108, 255, 473, 547, 160, 53, 28, 32]
33.585[110, 273, 468, 578, 177, 60, 32, 35]
33.608[114, 311, 490, 565, 167, 62, 34, 37]
33.623[116, 324, 496, 579, 158, 58, 33, 35]
33.647[113, 318, 522, 646, 165, 64, 33, 35]
33.668[108, 318, 508, 572, 156, 64, 33, 38]
33.683[140, 322, 501, 526, 139, 57, 30, 40]
33.705[141, 296, 481, 574, 148, 59, 31, 40]
33.728[140, 285, 474, 550, 144, 60, 32, 40]
33.743[134, 264, 462, 512, 138, 56, 32, 40]
33.773[153, 264, 453, 593, 162, 57, 31, 38]
33.788[120, 257, 528, 608, 157, 58, 32, 32]
33.803[114, 285, 508, 573, 157, 50, 29, 29]
33.825[124, 273, 537, 692, 187, 57, 30, 30]
33.848[123, 250, 541, 685, 189, 59, 31, 29]
33.863[96, 246, 496, 639, 171, 60, 31, 31]
33.886[151, 232, 517, 668, 172, 61, 30, 35]
33.908[155, 167, 538, 666, 175, 63, 31, 35]
33.923[148, 182, 517, 585, 147, 58, 29, 35]
33.945[150, 190, 542, 572, 142, 57, 27, 35]
33.968[146, 189, 532, 540, 181, 63, 30, 34]
33.983[99, 227, 463, 591, 186, 63, 30, 30]
34.005[89, 244, 471, 562, 176, 64, 30, 29]
34.028[92, 244, 473, 532, 176, 61, 29, 30]
34.043[88, 245, 404, 586, 178, 62, 30, 30]
34.065[101, 254, 468, 561, 128, 50, 27, 27]
34.088[90, 262, 444, 498, 134, 54, 26, 27]
34.103[99, 264, 454, 484, 125, 46, 24, 29]
34.125[95, 262, 466, 505, 131, 53, 25, 28]
34.148[109, 279, 491, 555, 153, 61, 29, 32]
34.162[96, 269, 425, 562, 163, 65, 29, 32]
34.185[111, 244, 442, 549, 179, 68, 29, 37]
34.208[103, 226, 390, 548, 183, 70, 30, 37]
34.23[112, 262, 474, 647, 195, 73, 31, 40]
34.245[104, 247, 445, 579, 186, 67, 29, 37]
34.268[139, 261, 461, 599, 192, 67, 29, 42]
34.29[140, 241, 452, 581, 165, 61, 31, 39]
34.305[145, 249, 543, 591, 160, 61, 30, 37]
34.328[137, 214, 473, 522, 141, 49, 26, 34]
34.35[136, 218, 513, 537, 135, 48, 25, 39]
34.365[106, 224, 527, 523, 127, 44, 24, 33]
34.387[101, 220, 528, 561, 142, 45, 19, 31]
34.41[107, 223, 465, 539, 141, 44, 23, 37]
34.425[124, 213, 430, 487, 135, 48, 24, 38]
34.447[125, 197, 408, 467, 141, 55, 27, 36]
34.47[127, 180, 401, 448, 132, 53, 27, 36]
34.485[134, 188, 389, 421, 123, 53, 28, 37]
34.508[124, 209, 354, 471, 138, 53, 27, 32]
34.53[111, 224, 397, 437, 149, 52, 28, 35]
34.545[130, 246, 376, 432, 145, 42, 25, 37]
34.567[126, 250, 376, 484, 152, 43, 28, 39]
34.59[107, 249, 383, 485, 145, 43, 29, 38]
34.605[107, 234, 404, 476, 133, 46, 29, 39]
34.627[109, 240, 364, 528, 118, 44, 28, 33]
34.65[96, 208, 346, 531, 109, 43, 31, 33]
34.665[96, 210, 337, 509, 122, 51, 33, 31]
34.688[111, 251, 395, 545, 127, 49, 33, 34]
34.71[114, 254, 375, 544, 141, 48, 34, 33]
34.725[107, 248, 384, 518, 143, 48, 32, 35]
34.747[117, 260, 439, 499, 142, 52, 32, 35]
34.77[135, 252, 445, 528, 135, 45, 30, 36]
34.785[131, 205, 401, 467, 132, 47, 28, 35]
34.807[139, 208, 434, 535, 138, 45, 27, 35]
34.83[140, 187, 428, 545, 133, 46, 26, 34]
34.845[119, 190, 398, 628, 156, 45, 24, 30]
34.867[104, 196, 408, 592, 148, 45, 27, 30]
34.89[120, 193, 466, 676, 153, 44, 26, 35]
34.905[113, 232, 440, 614, 144, 48, 25, 35]
34.927[109, 256, 484, 608, 148, 48, 27, 36]
34.95[111, 245, 459, 515, 132, 47, 26, 36]
34.965[113, 236, 447, 521, 133, 47, 24, 37]
34.987[101, 244, 431, 413, 119, 48, 25, 33]
35.01[98, 200, 429, 438, 124, 48, 26, 33]
35.025[110, 165, 427, 457, 126, 51, 27, 31]
35.047[117, 182, 475, 524, 118, 51, 27, 32]
35.07[113, 191, 481, 532, 116, 52, 26, 29]
35.084[117, 221, 469, 608, 121, 53, 28, 32]
35.107[122, 209, 481, 621, 119, 50, 28, 35]
35.13[120, 239, 430, 595, 114, 46, 26, 38]
35.144[111, 231, 383, 548, 131, 55, 31, 39]
35.167[104, 242, 397, 561, 134, 57, 32, 40]
35.189[85, 218, 397, 555, 145, 58, 30, 35]
35.213[84, 224, 413, 499, 138, 56, 32, 34]
35.227[96, 225, 436, 544, 143, 59, 35, 32]
35.249[110, 244, 489, 598, 138, 53, 33, 32]
35.273[110, 266, 481, 587, 149, 55, 32, 30]
35.287[110, 263, 479, 543, 148, 54, 31, 30]
35.309[104, 260, 459, 543, 145, 58, 29, 29]
35.333[113, 257, 472, 497, 150, 60, 29, 33]
35.347[103, 239, 412, 550, 139, 56, 29, 31]
35.369[113, 202, 481, 542, 156, 61, 31, 34]
35.393[113, 204, 460, 575, 161, 62, 33, 36]
35.407[127, 244, 518, 601, 166, 60, 30, 41]
35.429[112, 232, 544, 638, 158, 57, 29, 38]
35.452[108, 243, 569, 596, 161, 58, 28, 38]
35.467[106, 256, 484, 634, 133, 48, 26, 35]
35.489[117, 259, 511, 595, 120, 43, 25, 32]
35.512[103, 231, 456, 577, 111, 40, 28, 30]
35.527[90, 219, 433, 530, 111, 42, 27, 28]
35.549[104, 199, 417, 499, 113, 45, 34, 32]
35.572[98, 175, 471, 482, 129, 52, 34, 33]
35.587[88, 183, 435, 449, 127, 55, 36, 33]
35.609[83, 165, 427, 467, 125, 56, 33, 26]
35.632[105, 180, 461, 521, 136, 55, 31, 30]
35.647[96, 179, 454, 491, 132, 54, 26, 27]
35.669[98, 182, 412, 453, 116, 48, 26, 29]
35.692[119, 180, 520, 512, 117, 48, 29, 33]
35.707[140, 189, 532, 502, 116, 46, 31, 39]
35.73[127, 168, 472, 493, 131, 47, 32, 38]
35.752[125, 198, 513, 586, 143, 46, 32, 37]
35.767[129, 190, 537, 585, 142, 45, 32, 37]
35.79[112, 170, 435, 534, 142, 46, 27, 35]
35.82[95, 203, 428, 603, 147, 48, 26, 29]
35.827[99, 228, 446, 560, 119, 46, 26, 28]
35.85[107, 226, 375, 466, 111, 48, 23, 29]
35.872[102, 228, 378, 483, 116, 51, 24, 27]
35.887[116, 240, 385, 487, 114, 47, 27, 30]
35.91[121, 230, 374, 402, 120, 48, 30, 34]
35.933[119, 223, 388, 434, 124, 47, 30, 35]
35.947[119, 211, 408, 403, 114, 41, 31, 38]
35.97[119, 209, 357, 387, 108, 39, 29, 37]
35.993[137, 205, 374, 468, 103, 40, 29, 37]
36.006[130, 191, 396, 477, 117, 38, 24, 32]
36.03[129, 172, 388, 448, 109, 39, 26, 32]
36.052[138, 173, 444, 447, 120, 48, 27, 31]
36.067[133, 177, 441, 428, 118, 47, 26, 31]
36.09[103, 192, 436, 425, 164, 57, 26, 28]
36.112[101, 210, 522, 419, 160, 60, 29, 29]
36.127[110, 222, 504, 446, 168, 59, 28, 27]
36.15[107, 236, 444, 498, 171, 55, 27, 26]
36.173[112, 242, 472, 568, 184, 57, 28, 30]
36.195[112, 214, 485, 526, 154, 53, 28, 32]
36.21[120, 224, 388, 526, 146, 50, 25, 34]
36.232[111, 222, 388, 510, 142, 48, 25, 36]
36.255[114, 240, 439, 537, 140, 47, 26, 36]
36.27[110, 236, 466, 494, 134, 48, 25, 35]
36.293[124, 254, 427, 479, 127, 44, 26, 34]
36.315[131, 219, 422, 494, 146, 50, 27, 34]
36.33[136, 247, 443, 576, 173, 56, 28, 33]
36.353[123, 215, 431, 506, 169, 56, 26, 34]
36.375[128, 239, 367, 482, 161, 53, 27, 35]
36.391[112, 221, 382, 505, 167, 50, 25, 34]
36.412[91, 218, 390, 478, 155, 47, 24, 34]
36.435[93, 178, 423, 419, 134, 45, 24, 36]
36.45[121, 192, 410, 459, 137, 49, 26, 37]
36.472[128, 179, 445, 456, 137, 50, 23, 34]
36.495[126, 199, 459, 412, 134, 53, 27, 35]
36.51[131, 209, 462, 492, 145, 56, 30, 37]
36.533[130, 203, 417, 475, 143, 56, 31, 36]
36.554[102, 194, 393, 443, 135, 50, 31, 34]
36.569[103, 182, 379, 454, 140, 51, 33, 33]
36.593[105, 177, 345, 447, 138, 49, 32, 35]
36.615[106, 169, 351, 346, 117, 47, 31, 36]
36.629[114, 169, 327, 323, 120, 48, 30, 36]
36.652[118, 173, 326, 365, 127, 52, 29, 35]
36.675[105, 167, 294, 392, 125, 53, 30, 36]
36.689[122, 180, 329, 418, 129, 54, 30, 36]
36.712[117, 195, 312, 421, 136, 52, 27, 33]
36.734[103, 209, 380, 413, 128, 49, 29, 35]
36.749[105, 212, 408, 437, 128, 46, 30, 37]
36.772[133, 208, 426, 414, 126, 48, 29, 38]
36.794[120, 217, 422, 407, 120, 49, 29, 35]
36.809[117, 207, 434, 543, 123, 48, 30, 35]
36.832[124, 272, 390, 555, 126, 54, 29, 32]
36.854[122, 267, 375, 525, 119, 52, 29, 28]
36.869[88, 269, 363, 521, 123, 51, 30, 31]
36.892[95, 240, 336, 538, 118, 49, 32, 35]
36.914[108, 260, 298, 419, 115, 51, 32, 34]
36.929[101, 213, 324, 456, 123, 50, 31, 35]
36.952[97, 213, 311, 470, 128, 51, 31, 38]
36.974[101, 226, 338, 483, 129, 50, 28, 35]
36.989[112, 234, 344, 477, 131, 50, 26, 32]
37.012[102, 205, 349, 499, 132, 46, 24, 33]
37.034[94, 183, 363, 489, 116, 38, 24, 32]
37.048[105, 189, 407, 471, 120, 42, 25, 32]
37.072[119, 178, 407, 546, 149, 46, 26, 34]
37.094[102, 195, 419, 586, 156, 45, 26, 34]
37.117[100, 198, 445, 599, 154, 47, 28, 33]
37.132[123, 197, 433, 574, 155, 47, 30, 35]
37.154[121, 201, 436, 577, 155, 41, 28, 36]
37.177[108, 222, 463, 481, 129, 35, 29, 34]
37.192[109, 213, 468, 419, 119, 35, 30, 36]
37.214[125, 212, 441, 394, 127, 38, 29, 39]
37.237[107, 206, 433, 447, 146, 40, 27, 37]
37.252[101, 198, 392, 482, 139, 43, 27, 34]
37.274[107, 173, 382, 499, 132, 43, 27, 36]
37.296[100, 163, 403, 512, 135, 44, 27, 34]
37.312[85, 181, 404, 465, 121, 43, 27, 30]
37.334[88, 190, 420, 423, 111, 54, 28, 31]
37.357[115, 183, 419, 394, 118, 57, 27, 35]
37.372[110, 179, 385, 375, 130, 62, 26, 32]
37.394[112, 190, 383, 431, 140, 64, 24, 34]
37.417[129, 199, 385, 501, 147, 62, 23, 34]
37.432[129, 200, 393, 499, 145, 52, 21, 32]
37.455[110, 203, 398, 516, 156, 55, 25, 28]
37.476[107, 201, 437, 560, 161, 54, 27, 32]
37.492[122, 201, 475, 549, 160, 52, 27, 34]
37.515[114, 187, 499, 512, 164, 54, 30, 36]
37.536[112, 168, 493, 532, 163, 55, 30, 38]
37.552[117, 155, 527, 528, 169, 60, 30, 37]
37.573[123, 153, 488, 515, 161, 59, 32, 38]
37.596[107, 168, 441, 450, 146, 60, 31, 33]
37.612[92, 219, 437, 471, 136, 58, 29, 32]
37.633[120, 231, 422, 535, 153, 60, 28, 34]
37.656[109, 236, 409, 560, 148, 53, 29, 35]
37.672[103, 231, 398, 555, 154, 50, 24, 32]
37.693[101, 205, 383, 568, 166, 50, 28, 36]
37.716[113, 158, 365, 571, 173, 54, 29, 36]
37.732[88, 163, 348, 484, 161, 55, 31, 37]
37.753[86, 165, 319, 405, 140, 51, 29, 38]
37.776[91, 179, 343, 387, 130, 54, 31, 38]
37.792[92, 190, 337, 482, 142, 56, 30, 34]
37.813[83, 173, 366, 446, 136, 53, 28, 33]
37.836[74, 186, 394, 464, 136, 49, 27, 28]
37.852[83, 192, 407, 534, 153, 55, 26, 27]
37.873[78, 183, 391, 531, 160, 54, 28, 30]
37.896[79, 171, 383, 508, 162, 57, 24, 28]
37.912[75, 192, 408, 494, 158, 58, 24, 31]
37.933[84, 226, 400, 483, 156, 58, 26, 33]
37.956[88, 232, 384, 514, 159, 56, 28, 34]
37.972[86, 241, 515, 587, 158, 55, 24, 34]
37.993[90, 253, 533, 543, 133, 49, 26, 37]
38.016[103, 235, 484, 580, 143, 50, 28, 33]
38.038[96, 192, 490, 599, 148, 52, 26, 32]
38.053[95, 200, 507, 562, 129, 48, 23, 33]
38.076[111, 239, 387, 519, 128, 48, 27, 35]
38.099[112, 236, 372, 543, 135, 45, 25, 33]
38.113[102, 237, 361, 512, 122, 42, 24, 35]
38.136[110, 222, 334, 492, 104, 37, 23, 34]
38.158[123, 215, 331, 452, 113, 41, 23, 36]
38.173[122, 192, 344, 403, 104, 38, 20, 35]
38.196[127, 226, 362, 381, 99, 43, 23, 38]
38.22[126, 228, 373, 423, 109, 47, 24, 37]
38.233[123, 227, 387, 394, 107, 49, 25, 37]
38.255[104, 208, 371, 385, 96, 45, 26, 37]
38.278[88, 194, 356, 431, 107, 48, 26, 33]
38.293[100, 195, 412, 421, 125, 51, 26, 31]
38.315[103, 210, 430, 395, 125, 47, 26, 31]
38.338[99, 213, 408, 399, 126, 46, 27, 31]
38.353[109, 212, 435, 426, 133, 49, 27, 30]
38.376[112, 225, 464, 400, 125, 45, 29, 34]
38.398[90, 208, 412, 419, 111, 40, 27, 33]
38.413[81, 190, 431, 420, 105, 42, 28, 32]
38.435[100, 188, 434, 445, 116, 41, 28, 36]
38.458[93, 200, 380, 522, 135, 45, 27, 33]
38.473[95, 166, 336, 556, 149, 50, 24, 30]
38.497[125, 154, 351, 576, 156, 50, 24, 29]
38.518[139, 160, 343, 577, 161, 54, 25, 34]
38.533[126, 221, 333, 570, 166, 56, 28, 29]
38.556[126, 247, 391, 522, 155, 54, 27, 30]
38.579[129, 254, 384, 485, 143, 51, 30, 32]
38.593[100, 242, 378, 459, 127, 49, 29, 32]
38.616[85, 247, 352, 548, 139, 51, 30, 33]
38.638[108, 205, 360, 551, 125, 49, 30, 35]
38.653[112, 165, 355, 529, 129, 50, 32, 34]
38.675[109, 151, 369, 588, 135, 50, 30, 33]
38.698[110, 153, 350, 630, 175, 60, 34, 34]
38.713[111, 179, 352, 545, 159, 54, 31, 33]
38.735[98, 194, 341, 531, 158, 55, 29, 30]
38.758[92, 205, 341, 636, 160, 55, 27, 31]
38.773[85, 210, 366, 621, 162, 57, 27, 30]
38.796[86, 209, 400, 567, 123, 48, 22, 29]
38.818[83, 202, 451, 577, 131, 48, 25, 34]
38.833[73, 196, 460, 593, 146, 53, 28, 39]
38.855[69, 180, 459, 488, 132, 49, 31, 38]
38.878[74, 183, 483, 475, 120, 44, 32, 39]
38.893[74, 201, 501, 519, 122, 42, 32, 40]
38.915[73, 212, 442, 521, 120, 46, 35, 33]
38.938[92, 193, 479, 547, 110, 41, 34, 34]
38.953[103, 193, 461, 562, 138, 50, 33, 39]
38.975[101, 202, 422, 541, 149, 52, 32, 38]
38.998[107, 204, 365, 499, 152, 56, 32, 38]
39.02[106, 178, 380, 525, 166, 56, 27, 39]
39.035[93, 191, 332, 540, 162, 56, 24, 33]
39.058[88, 199, 307, 565, 150, 52, 25, 29]
39.081[86, 201, 309, 561, 149, 55, 28, 29]
39.095[76, 194, 323, 626, 160, 54, 153, 45]
39.118[75, 188, 295, 691, 173, 62, 236, 61]
39.14[80, 194, 311, 735, 180, 62, 251, 67]
39.155[69, 188, 334, 764, 186, 66, 253, 68]
39.179[80, 184, 377, 800, 198, 71, 255, 68]
39.2[85, 217, 375, 748, 195, 71, 209, 59]
39.215[100, 215, 395, 709, 174, 63, 108, 42]
39.237[116, 223, 424, 657, 169, 62, 70, 39]
39.26[116, 227, 452, 591, 175, 65, 62, 39]
39.275[112, 224, 413, 509, 153, 59, 54, 39]
39.298[109, 182, 386, 572, 149, 59, 39, 36]
39.32[92, 172, 363, 505, 140, 59, 35, 36]
39.335[58, 128, 297, 443, 135, 57, 33, 28]
39.358[64, 109, 179, 377, 100, 47, 114, 33]
39.38[57, 81, 118, 380, 94, 47, 282, 71]
39.395[54, 55, 100, 243, 73, 55, 349, 87]
39.417[64, 48, 86, 195, 64, 59, 393, 95]
39.44[84, 39, 65, 166, 57, 64, 407, 100]
39.455[97, 39, 60, 130, 47, 80, 425, 111]
39.486[128, 46, 53, 106, 38, 94, 391, 128]
39.5[189, 52, 45, 68, 45, 192, 598, 271]
39.515[206, 56, 67, 73, 50, 223, 619, 300]
39.537[210, 58, 76, 66, 50, 241, 616, 303]
39.56[244, 61, 77, 66, 55, 313, 611, 315]
39.576[244, 58, 76, 62, 56, 325, 588, 321]
39.597[205, 48, 74, 59, 49, 284, 326, 215]
39.62[185, 41, 55, 43, 44, 261, 226, 171]
39.635[175, 40, 40, 41, 42, 245, 212, 166]
39.657[109, 29, 35, 38, 33, 135, 154, 133]
39.68[72, 24, 30, 31, 27, 88, 115, 82]
39.695[55, 24, 26, 22, 22, 62, 75, 61]
39.717[48, 25, 22, 22, 21, 60, 66, 56]
39.74[40, 23, 21, 24, 22, 55, 61, 43]
39.755[33, 24, 23, 24, 23, 52, 60, 38]
39.777[25, 23, 23, 23, 24, 55, 61, 26]
39.8[24, 22, 23, 25, 23, 49, 55, 24]
39.815[24, 21, 23, 26, 21, 36, 46, 25]
39.837[24, 21, 24, 22, 22, 34, 44, 25]
39.86[26, 21, 22, 21, 22, 34, 43, 26]
39.875[24, 18, 23, 20, 22, 29, 33, 25]
39.897[22, 20, 22, 20, 22, 27, 29, 24]
39.92[20, 21, 22, 16, 22, 26, 29, 24]
39.943[21, 23, 22, 18, 20, 26, 29, 20]
39.957[19, 22, 22, 19, 21, 28, 28, 20]
39.98[19, 24, 21, 20, 20, 24, 26, 19]
40.003[21, 23, 22, 20, 20, 21, 21, 19]
40.017[21, 24, 21, 20, 21, 22, 18, 20]
40.04[20, 21, 22, 20, 21, 20, 19, 20]
40.063[20, 21, 20, 19, 21, 19, 20, 18]
40.077[20, 22, 22, 20, 21, 20, 19, 18]
40.1[18, 22, 21, 21, 21, 20, 22, 17]
40.123[17, 23, 22, 20, 21, 20, 22, 16]
40.137[19, 23, 22, 22, 21, 21, 22, 18]
40.16[19, 25, 21, 22, 20, 20, 22, 20]
40.183[21, 23, 20, 21, 19, 19, 23, 21]
40.197[22, 22, 22, 22, 19, 21, 21, 22]
40.22[24, 21, 23, 23, 20, 23, 22, 21]
40.243[22, 21, 22, 22, 20, 23, 21, 24]
40.257[23, 20, 24, 21, 20, 22, 20, 21]
40.28[20, 21, 24, 22, 21, 22, 21, 22]
40.303[22, 21, 25, 19, 22, 21, 19, 21]
40.317[21, 21, 23, 19, 19, 18, 18, 23]
40.34[20, 23, 24, 17, 21, 18, 18, 19]
40.363[20, 22, 21, 19, 21, 18, 18, 20]
40.377[24, 21, 22, 18, 20, 19, 18, 21]
40.4[22, 25, 20, 18, 20, 17, 18, 21]
40.423[21, 23, 21, 16, 20, 19, 19, 19]
40.437[23, 23, 20, 16, 19, 21, 20, 20]
40.459[22, 24, 22, 16, 21, 21, 19, 20]
40.483[19, 25, 21, 17, 21, 20, 18, 19]
40.497[19, 23, 21, 19, 21, 19, 19, 19]
40.52[21, 24, 22, 21, 22, 19, 18, 20]
40.543[19, 24, 22, 21, 22, 19, 17, 20]
40.557[20, 22, 21, 20, 21, 22, 62, 29]
40.579[20, 23, 21, 20, 20, 26, 150, 38]
40.603[19, 21, 20, 18, 22, 30, 162, 41]
40.625[19, 21, 18, 16, 21, 30, 166, 41]
40.639[20, 20, 17, 18, 21, 30, 167, 41]
40.662[18, 21, 17, 18, 20, 27, 159, 37]
40.685[19, 19, 18, 18, 21, 24, 84, 28]
40.699[20, 20, 19, 19, 18, 22, 61, 23]
40.722[18, 20, 19, 20, 20, 23, 50, 22]
40.745[17, 20, 19, 19, 20, 23, 46, 22]
40.76[17, 22, 19, 19, 21, 24, 39, 19]
40.783[18, 21, 18, 21, 20, 24, 33, 19]
40.797[17, 23, 16, 21, 22, 21, 31, 20]
40.82[18, 23, 18, 22, 19, 22, 31, 20]
40.843[18, 22, 18, 22, 20, 21, 27, 19]
40.857[19, 21, 19, 22, 19, 19, 21, 20]
40.879[18, 23, 21, 21, 23, 19, 21, 21]
40.902[22, 20, 24, 21, 22, 20, 18, 20]
40.925[22, 21, 22, 19, 22, 19, 20, 19]
40.939[21, 21, 23, 19, 22, 19, 21, 22]
40.963[22, 20, 22, 20, 22, 21, 21, 23]
40.985[21, 19, 20, 19, 20, 21, 22, 21]
40.999[18, 19, 18, 19, 21, 21, 22, 23]
41.022[18, 17, 18, 20, 23, 22, 21, 24]
41.045[19, 19, 17, 22, 23, 21, 20, 21]
41.06[19, 19, 18, 22, 23, 18, 21, 21]
41.082[20, 20, 20, 22, 20, 19, 20, 22]
41.105[19, 21, 19, 23, 20, 20, 22, 20]
41.119[19, 22, 20, 23, 19, 19, 21, 21]
41.142[18, 21, 20, 22, 20, 19, 21, 20]
41.165[18, 20, 20, 22, 19, 21, 20, 19]
41.188[19, 20, 20, 23, 20, 19, 20, 18]
41.202[21, 21, 19, 21, 21, 20, 18, 20]
41.225[22, 20, 20, 22, 20, 21, 18, 18]
41.239[23, 20, 20, 21, 20, 21, 18, 21]
41.262[23, 22, 19, 20, 20, 21, 19, 20]
41.285[22, 21, 20, 18, 21, 22, 19, 20]
41.3[20, 19, 19, 18, 20, 20, 18, 19]
41.322[19, 21, 18, 17, 19, 20, 20, 19]
41.345[19, 23, 18, 17, 19, 22, 19, 16]
41.36[19, 21, 18, 17, 20, 21, 18, 17]
41.382[20, 22, 16, 17, 21, 23, 18, 17]
41.405[20, 22, 17, 16, 22, 23, 18, 18]
41.427[20, 20, 19, 17, 23, 23, 13, 19]
41.443[19, 18, 20, 18, 22, 21, 14, 21]
41.465[20, 20, 19, 19, 23, 22, 16, 21]
41.479[20, 20, 20, 20, 23, 21, 16, 21]
41.502[19, 21, 20, 20, 22, 19, 20, 22]
41.525[21, 21, 20, 21, 24, 21, 20, 21]
41.539[22, 22, 20, 20, 25, 21, 21, 18]
41.562[21, 23, 20, 19, 23, 20, 20, 19]
41.585[20, 23, 20, 19, 23, 18, 21, 19]
41.599[21, 24, 19, 19, 22, 21, 18, 17]
41.622[19, 24, 17, 18, 22, 19, 22, 18]
41.645[19, 23, 18, 18, 21, 20, 21, 20]
41.659[18, 21, 18, 19, 21, 19, 21, 20]
41.682[19, 24, 20, 18, 22, 20, 21, 19]
41.705[18, 22, 20, 20, 23, 18, 22, 20]
41.719[19, 21, 21, 20, 22, 19, 19, 20]
41.742[19, 22, 22, 20, 23, 18, 20, 20]
41.765[22, 21, 21, 20, 22, 20, 20, 20]
41.779[20, 20, 21, 20, 21, 20, 20, 20]
41.802[20, 20, 22, 16, 20, 22, 19, 19]
41.824[20, 21, 22, 19, 19, 22, 19, 20]
41.847[18, 21, 20, 20, 18, 22, 18, 22]
41.862[17, 22, 23, 20, 20, 21, 17, 22]
41.884[19, 23, 22, 19, 21, 21, 17, 22]
41.907[18, 21, 23, 20, 22, 21, 20, 26]
41.922[18, 20, 23, 20, 22, 18, 20, 25]
41.944[19, 20, 22, 21, 21, 19, 21, 24]
41.967[19, 18, 21, 21, 20, 20, 23, 23]
41.982[20, 16, 24, 22, 20, 20, 22, 24]
42.004[21, 17, 22, 23, 18, 18, 20, 21]
42.028[22, 17, 24, 22, 19, 20, 21, 22]
42.042[23, 17, 25, 20, 19, 19, 19, 22]
42.065[23, 18, 23, 22, 19, 19, 18, 21]
42.087[22, 20, 22, 22, 19, 20, 20, 22]
42.102[22, 21, 22, 22, 20, 21, 19, 21]
42.125[21, 21, 21, 22, 20, 20, 19, 20]
42.147[21, 22, 21, 22, 18, 20, 20, 20]
42.162[21, 21, 21, 20, 18, 20, 21, 22]
42.184[22, 19, 21, 19, 18, 20, 19, 20]
42.207[22, 20, 22, 21, 19, 22, 18, 22]
42.222[21, 20, 21, 18, 18, 21, 19, 21]
42.244[22, 20, 21, 19, 19, 21, 20, 20]
42.267[20, 21, 22, 19, 18, 22, 19, 19]
42.282[20, 21, 21, 21, 19, 22, 21, 20]
42.305[19, 19, 23, 20, 17, 19, 22, 19]
42.327[19, 20, 22, 22, 17, 21, 22, 18]
42.341[16, 19, 21, 23, 17, 21, 20, 19]
42.364[17, 19, 22, 23, 16, 21, 20, 20]
42.387[16, 21, 23, 22, 19, 22, 19, 18]
42.401[18, 22, 21, 22, 18, 22, 18, 19]
42.424[21, 20, 23, 21, 21, 22, 20, 20]
42.447[21, 20, 23, 19, 21, 21, 20, 18]
42.468[23, 19, 21, 18, 23, 20, 20, 18]
42.485[23, 17, 19, 17, 20, 17, 20, 18]
42.506[22, 17, 20, 17, 20, 18, 22, 19]
42.528[19, 18, 18, 17, 19, 16, 21, 18]
42.545[20, 18, 19, 17, 20, 17, 20, 19]
42.566[16, 19, 21, 17, 19, 19, 20, 19]
42.588[16, 18, 21, 17, 21, 20, 21, 19]
42.605[16, 18, 20, 17, 21, 20, 20, 19]
42.626[17, 18, 21, 18, 19, 21, 19, 20]
42.648[17, 20, 21, 19, 20, 21, 19, 22]
42.665[17, 20, 21, 19, 19, 19, 19, 22]
42.686[17, 21, 21, 20, 18, 19, 23, 22]
42.708[18, 22, 22, 20, 19, 17, 23, 20]
42.725[17, 21, 22, 19, 22, 19, 23, 20]
42.746[17, 19, 22, 18, 22, 18, 25, 18]
42.769[17, 20, 21, 17, 23, 19, 25, 17]
42.785[17, 19, 21, 16, 22, 19, 26, 17]
42.806[15, 16, 21, 17, 22, 19, 27, 18]
42.828[16, 17, 21, 18, 21, 19, 26, 19]
42.845[18, 19, 22, 19, 19, 20, 25, 20]
42.866[18, 18, 22, 21, 20, 20, 26, 20]
42.889[17, 21, 22, 21, 21, 19, 21, 22]
42.905[20, 23, 22, 23, 20, 18, 22, 21]
42.926[19, 23, 22, 22, 17, 16, 22, 21]
42.949[18, 22, 21, 23, 19, 17, 22, 19]
42.965[18, 24, 21, 23, 21, 17, 21, 19]
42.986[18, 20, 23, 23, 20, 16, 20, 16]
43.008[17, 19, 23, 20, 22, 16, 19, 17]
43.025[18, 22, 22, 19, 24, 19, 20, 19]
43.046[19, 22, 22, 18, 23, 17, 21, 20]
43.068[21, 20, 21, 18, 21, 17, 21, 20]
43.083[21, 23, 19, 20, 21, 18, 23, 21]
43.106[22, 23, 19, 21, 21, 20, 23, 19]
43.128[22, 20, 20, 21, 20, 20, 22, 20]
43.143[22, 19, 21, 20, 19, 21, 21, 18]
43.166[21, 21, 24, 18, 20, 22, 22, 18]
43.188[22, 20, 28, 16, 20, 21, 20, 20]
43.211[21, 21, 33, 18, 19, 21, 20, 21]
43.226[21, 23, 33, 18, 20, 19, 20, 19]
43.248[23, 24, 32, 20, 20, 19, 20, 20]
43.263[21, 23, 31, 19, 20, 19, 19, 21]
43.286[21, 23, 27, 18, 22, 21, 20, 22]
43.308[20, 22, 21, 16, 24, 20, 20, 22]
43.323[19, 19, 20, 16, 24, 23, 21, 23]
43.346[17, 21, 19, 18, 25, 24, 22, 23]
43.368[16, 20, 19, 21, 26, 22, 23, 23]
43.383[17, 19, 17, 22, 25, 22, 24, 20]
43.406[18, 20, 19, 23, 24, 21, 22, 19]
43.428[19, 23, 21, 23, 23, 19, 22, 20]
43.443[19, 22, 23, 21, 22, 18, 18, 20]
43.466[19, 22, 23, 20, 23, 19, 19, 21]
43.488[19, 23, 24, 19, 23, 18, 17, 22]
43.503[20, 23, 24, 20, 22, 19, 18, 24]
43.525[20, 21, 23, 19, 22, 21, 20, 22]
43.548[20, 21, 24, 20, 22, 21, 20, 23]
43.563[20, 22, 22, 21, 20, 21, 20, 23]
43.585[21, 23, 22, 22, 19, 22, 20, 22]
43.608[20, 23, 21, 21, 18, 21, 21, 20]
43.623[20, 22, 21, 21, 18, 19, 21, 22]
43.646[18, 24, 19, 21, 20, 19, 22, 21]
43.668[21, 24, 21, 18, 23, 18, 20, 21]
43.683[21, 23, 23, 19, 24, 19, 19, 21]
43.705[20, 23, 22, 19, 24, 22, 18, 22]
43.728[21, 23, 23, 19, 24, 22, 19, 21]
43.751[20, 20, 22, 21, 24, 24, 20, 20]
43.766[19, 21, 21, 21, 22, 24, 21, 19]
43.788[18, 21, 20, 19, 22, 23, 21, 20]
43.811[20, 21, 22, 57, 29, 23, 21, 18]
43.825[19, 22, 21, 67, 32, 23, 22, 19]
43.848[19, 23, 22, 68, 32, 21, 20, 20]
43.87[20, 22, 23, 69, 33, 21, 21, 20]
43.885[19, 23, 23, 69, 32, 21, 20, 19]
43.908[18, 23, 20, 44, 26, 21, 22, 19]
43.93[17, 22, 20, 29, 22, 20, 22, 19]
43.945[19, 23, 20, 25, 21, 19, 21, 19]
43.968[20, 22, 19, 25, 19, 22, 20, 18]
43.99[20, 20, 19, 24, 20, 22, 20, 18]
44.005[21, 21, 20, 23, 22, 19, 20, 18]
44.028[23, 21, 21, 21, 22, 21, 20, 19]
44.05[22, 19, 21, 21, 21, 21, 22, 18]
44.065[22, 20, 22, 20, 22, 19, 21, 18]
44.088[22, 19, 22, 21, 23, 20, 22, 17]
44.11[23, 18, 23, 21, 21, 20, 21, 18]
44.125[21, 16, 21, 20, 21, 19, 19, 16]
44.148[23, 19, 23, 21, 24, 19, 18, 16]
44.17[20, 18, 24, 21, 23, 19, 20, 17]
44.185[22, 19, 23, 21, 22, 18, 18, 19]
44.208[23, 18, 24, 20, 22, 18, 18, 20]
44.23[24, 20, 25, 21, 21, 17, 19, 19]
44.245[26, 21, 24, 19, 18, 19, 21, 19]
44.268[25, 21, 22, 18, 20, 21, 18, 19]
44.29[23, 23, 22, 17, 20, 22, 18, 19]
44.305[21, 23, 20, 18, 22, 22, 17, 18]
44.328[21, 22, 20, 19, 22, 22, 18, 18]
44.35[17, 19, 19, 19, 22, 21, 18, 20]
44.365[17, 20, 21, 20, 20, 20, 19, 20]
44.388[15, 21, 21, 19, 21, 21, 20, 23]
44.41[16, 21, 21, 21, 19, 20, 19, 23]
44.425[15, 24, 22, 20, 20, 20, 19, 22]
44.448[15, 24, 22, 21, 18, 19, 18, 21]
44.47[14, 25, 20, 21, 19, 20, 18, 20]
44.485[15, 23, 19, 22, 19, 18, 18, 16]
44.508[15, 24, 18, 21, 19, 19, 18, 16]
44.53[15, 20, 17, 22, 18, 19, 20, 19]
44.545[15, 21, 16, 23, 19, 20, 21, 20]
44.568[15, 20, 18, 21, 19, 18, 20, 20]
44.59[18, 20, 20, 21, 21, 18, 20, 20]
44.605[20, 20, 22, 21, 21, 20, 21, 20]
44.628[19, 20, 22, 19, 21, 20, 19, 18]
44.65[20, 20, 23, 19, 21, 20, 17, 19]
44.672[22, 19, 23, 20, 21, 20, 18, 19]
44.688[21, 21, 24, 20, 19, 21, 17, 19]
44.71[20, 22, 21, 21, 20, 19, 18, 19]
44.733[22, 24, 23, 20, 20, 21, 18, 19]
44.748[23, 26, 25, 19, 20, 21, 18, 17]
44.77[22, 28, 24, 17, 20, 21, 20, 18]
44.793[21, 26, 21, 18, 22, 20, 19, 18]
44.807[22, 26, 24, 18, 21, 21, 19, 19]
44.83[20, 23, 22, 18, 22, 19, 20, 19]
44.853[17, 23, 21, 18, 22, 19, 21, 18]
44.868[21, 23, 19, 20, 21, 19, 18, 20]
44.89[20, 23, 20, 19, 20, 18, 18, 20]
44.913[21, 25, 18, 17, 21, 17, 19, 18]
44.928[23, 25, 18, 17, 20, 18, 17, 19]
44.95[25, 24, 18, 17, 21, 19, 19, 19]
44.973[22, 23, 19, 16, 22, 18, 21, 18]
44.987[22, 24, 19, 16, 20, 20, 21, 20]
45.01[23, 22, 18, 16, 20, 19, 20, 20]
45.033[21, 23, 18, 18, 21, 19, 21, 20]
45.056[19, 21, 18, 19, 19, 18, 20, 19]
45.07[18, 19, 20, 20, 21, 19, 19, 18]
45.093[19, 18, 20, 21, 21, 19, 19, 15]
45.108[17, 19, 21, 21, 20, 19, 19, 17]
45.13[19, 19, 22, 19, 19, 19, 19, 17]
45.153[19, 19, 20, 21, 21, 20, 17, 18]
45.167[19, 22, 20, 21, 19, 18, 17, 19]
45.19[19, 23, 19, 21, 20, 16, 17, 19]
45.213[19, 24, 20, 23, 20, 17, 16, 20]
45.227[17, 23, 21, 24, 21, 17, 17, 21]
45.25[20, 24, 22, 20, 19, 17, 17, 20]
45.273[21, 24, 23, 21, 20, 19, 17, 19]
45.287[23, 23, 23, 21, 20, 21, 18, 20]
45.31[23, 21, 23, 18, 20, 20, 19, 17]
45.333[24, 23, 22, 18, 20, 21, 21, 18]
45.347[25, 23, 22, 19, 20, 20, 21, 18]
45.37[24, 19, 22, 19, 18, 21, 21, 17]
45.394[22, 22, 23, 19, 20, 21, 22, 17]
45.407[21, 21, 23, 19, 20, 21, 21, 19]
45.43[24, 20, 22, 20, 20, 21, 20, 18]
45.453[19, 19, 22, 22, 20, 21, 21, 18]
45.467[18, 20, 21, 23, 23, 17, 18, 20]
45.49[19, 19, 22, 22, 21, 16, 18, 20]
45.513[21, 19, 21, 22, 23, 17, 18, 20]
45.527[18, 18, 22, 21, 23, 17, 18, 20]
45.55[19, 20, 21, 19, 24, 17, 18, 21]
45.573[21, 21, 22, 19, 22, 18, 20, 19]
45.587[19, 20, 21, 19, 23, 17, 24, 19]
45.61[17, 22, 21, 19, 21, 18, 25, 18]
45.633[17, 23, 23, 18, 22, 19, 23, 19]
45.656[18, 23, 23, 18, 23, 20, 24, 18]
45.67[18, 24, 21, 19, 24, 19, 23, 20]
45.693[19, 26, 23, 18, 23, 21, 18, 19]
45.715[20, 26, 23, 21, 23, 20, 19, 21]
45.73[18, 24, 21, 20, 22, 19, 20, 19]
45.753[19, 23, 21, 20, 21, 19, 20, 21]
45.776[17, 22, 22, 22, 20, 21, 22, 19]
45.79[17, 19, 21, 24, 20, 19, 21, 21]
45.813[17, 20, 20, 23, 20, 20, 21, 20]
45.835[19, 22, 21, 23, 20, 19, 21, 20]
45.849[19, 23, 21, 25, 18, 20, 21, 19]
45.873[19, 21, 22, 23, 18, 17, 19, 18]
45.895[19, 20, 24, 21, 18, 18, 20, 17]
45.91[20, 20, 24, 22, 19, 17, 19, 16]
45.933[18, 18, 21, 23, 19, 18, 19, 18]
45.955[20, 20, 22, 21, 20, 21, 18, 18]
45.969[19, 22, 22, 21, 20, 21, 19, 17]
45.993[20, 23, 21, 23, 21, 20, 19, 17]
46.016[20, 22, 23, 21, 20, 19, 19, 18]
46.029[21, 23, 24, 20, 22, 19, 19, 16]
46.053[20, 20, 24, 21, 19, 20, 19, 17]
46.075[20, 19, 22, 21, 20, 21, 17, 19]
46.089[19, 22, 23, 19, 20, 22, 16, 18]
46.113[20, 21, 21, 21, 21, 23, 17, 17]
46.135[21, 20, 24, 22, 19, 24, 17, 17]
46.149[21, 20, 22, 21, 19, 22, 17, 21]
46.173[20, 21, 23, 20, 18, 21, 17, 20]
46.195[21, 20, 23, 21, 17, 22, 18, 22]
46.209[21, 22, 22, 20, 16, 22, 20, 21]
46.233[18, 23, 21, 19, 20, 22, 22, 21]
46.256[18, 23, 22, 20, 20, 19, 21, 20]
46.269[19, 22, 22, 20, 22, 21, 22, 20]
46.292[18, 22, 20, 20, 23, 19, 21, 18]
46.315[18, 22, 21, 19, 23, 19, 20, 19]
46.329[19, 20, 18, 20, 21, 20, 18, 21]
46.353[21, 21, 19, 19, 20, 21, 19, 20]
46.375[22, 22, 20, 18, 20, 21, 19, 19]
46.389[22, 20, 21, 19, 20, 20, 21, 20]
46.413[22, 19, 22, 19, 21, 21, 21, 20]
46.435[22, 21, 22, 19, 19, 21, 21, 20]
46.449[20, 21, 23, 20, 19, 21, 21, 20]
46.473[21, 20, 21, 21, 18, 21, 20, 20]
46.495[21, 21, 21, 20, 17, 23, 17, 21]
46.509[18, 22, 20, 19, 18, 23, 19, 22]
46.533[20, 20, 21, 19, 18, 22, 18, 20]
46.555[20, 21, 18, 18, 20, 23, 21, 22]
46.577[19, 21, 20, 19, 19, 23, 21, 22]
46.593[21, 21, 20, 21, 21, 22, 23, 21]
46.615[22, 20, 20, 23, 20, 21, 21, 19]
46.637[22, 18, 20, 23, 21, 20, 22, 18]
46.653[23, 18, 21, 24, 21, 21, 21, 17]
46.675[22, 17, 21, 23, 21, 20, 21, 18]
46.697[20, 18, 22, 21, 20, 19, 20, 20]
46.713[20, 20, 22, 23, 19, 19, 21, 20]
46.735[18, 19, 24, 21, 20, 18, 21, 20]
46.757[17, 21, 23, 20, 20, 17, 20, 20]
46.772[20, 20, 23, 20, 21, 16, 20, 19]
46.795[21, 21, 21, 20, 22, 18, 19, 18]
46.817[22, 21, 22, 17, 22, 18, 19, 17]
46.833[23, 22, 20, 21, 21, 21, 20, 19]
46.855[23, 20, 20, 23, 20, 19, 20, 21]
46.877[21, 22, 22, 23, 20, 20, 19, 20]
46.893[21, 22, 21, 23, 18, 19, 19, 20]
46.915[19, 22, 20, 22, 19, 21, 18, 22]
46.937[21, 22, 21, 19, 17, 19, 18, 20]
46.952[23, 23, 20, 18, 18, 20, 18, 20]
46.975[23, 21, 21, 19, 18, 19, 19, 20]
46.997[22, 23, 22, 18, 19, 21, 18, 22]
47.012[22, 21, 23, 20, 19, 20, 18, 21]
47.035[20, 22, 22, 21, 21, 21, 17, 21]
47.057[17, 21, 21, 20, 23, 22, 16, 19]
47.072[19, 20, 21, 18, 24, 23, 16, 19]
47.095[18, 18, 22, 18, 26, 21, 18, 19]
47.117[19, 21, 21, 18, 26, 20, 19, 20]
47.132[19, 21, 22, 19, 26, 19, 18, 21]
47.155[19, 20, 21, 19, 24, 20, 21, 23]
47.177[19, 21, 24, 19, 21, 20, 21, 23]
47.192[18, 21, 22, 20, 21, 18, 21, 23]
47.215[17, 20, 24, 18, 20, 17, 23, 21]
47.237[17, 20, 24, 17, 18, 19, 23, 21]
47.251[18, 21, 23, 17, 17, 16, 21, 19]
47.275[17, 20, 22, 19, 19, 16, 22, 19]
47.297[19, 21, 23, 19, 19, 18, 20, 18]
47.311[20, 19, 21, 21, 20, 19, 20, 18]
47.335[20, 20, 22, 25, 20, 19, 19, 18]
47.357[20, 21, 23, 26, 22, 19, 19, 19]
47.372[20, 21, 22, 25, 21, 21, 18, 19]
47.395[19, 20, 22, 25, 20, 22, 20, 19]
47.417[19, 21, 24, 23, 19, 23, 19, 20]
47.431[19, 21, 24, 20, 21, 22, 19, 20]
47.455[20, 20, 23, 19, 20, 22, 20, 24]
47.477[19, 20, 22, 20, 21, 20, 19, 23]
47.499[19, 20, 22, 19, 20, 18, 20, 24]
47.516[18, 20, 19, 19, 20, 16, 22, 22]
47.536[18, 19, 21, 19, 19, 17, 22, 24]
47.559[17, 20, 20, 18, 18, 18, 23, 20]
47.575[17, 20, 21, 16, 18, 18, 25, 20]
47.596[19, 24, 20, 19, 20, 18, 22, 19]
47.619[20, 23, 21, 19, 19, 19, 21, 21]
47.635[19, 23, 19, 18, 20, 19, 21, 18]
47.657[19, 23, 21, 19, 20, 20, 19, 18]
47.68[22, 23, 21, 21, 19, 21, 18, 19]
47.695[20, 19, 23, 20, 18, 20, 22, 19]
47.716[20, 20, 23, 20, 19, 20, 22, 19]
47.739[19, 19, 23, 21, 18, 19, 22, 20]
47.755[20, 19, 23, 20, 18, 18, 22, 22]
47.776[19, 19, 23, 19, 20, 18, 23, 21]
47.799[18, 19, 20, 18, 20, 18, 22, 21]
47.816[19, 21, 19, 20, 20, 20, 21, 21]
47.836[20, 22, 20, 22, 20, 21, 21, 23]
47.859[18, 22, 18, 23, 21, 22, 22, 21]
47.875[18, 21, 17, 22, 22, 21, 19, 20]
47.897[20, 22, 19, 22, 21, 23, 17, 21]
47.919[19, 20, 20, 21, 21, 20, 16, 20]
47.935[19, 19, 19, 22, 21, 21, 19, 18]
47.957[20, 20, 20, 21, 22, 21, 18, 20]
47.979[21, 20, 19, 22, 21, 21, 18, 20]
47.995[22, 19, 19, 23, 21, 20, 20, 22]
48.017[21, 21, 19, 22, 21, 20, 21, 23]
48.039[21, 22, 18, 20, 20, 19, 19, 22]
48.055[21, 21, 18, 20, 19, 18, 19, 24]
48.076[21, 23, 18, 17, 19, 17, 20, 26]
48.099[21, 23, 19, 21, 21, 17, 19, 22]
48.115[22, 21, 22, 20, 22, 18, 16, 21]
48.136[24, 20, 24, 21, 23, 17, 17, 23]
48.159[23, 21, 23, 20, 23, 17, 17, 20]
48.175[23, 19, 24, 21, 25, 18, 17, 19]
48.196[20, 19, 22, 18, 24, 19, 18, 20]
48.219[20, 21, 22, 18, 24, 19, 19, 22]
48.235[21, 21, 20, 16, 22, 21, 21, 21]
48.256[21, 19, 20, 18, 23, 21, 21, 21]
48.279[24, 21, 21, 18, 21, 21, 22, 20]
48.295[24, 20, 24, 18, 19, 21, 22, 18]
48.316[24, 21, 22, 21, 22, 20, 21, 19]
48.338[22, 22, 22, 25, 23, 19, 18, 17]
48.355[21, 22, 24, 24, 23, 19, 18, 18]
48.376[17, 21, 23, 24, 23, 20, 16, 20]
48.399[17, 23, 19, 25, 24, 20, 17, 19]
48.415[16, 21, 20, 23, 21, 21, 17, 20]
48.436[15, 20, 22, 19, 22, 21, 17, 21]
48.458[17, 21, 22, 19, 21, 20, 17, 20]
48.481[17, 22, 21, 18, 21, 19, 19, 20]
48.496[17, 19, 25, 17, 20, 20, 20, 21]
48.519[17, 20, 24, 19, 21, 21, 20, 19]
48.541[18, 21, 23, 20, 19, 21, 21, 17]
48.556[17, 21, 22, 22, 19, 20, 21, 19]
48.579[18, 20, 21, 22, 19, 21, 21, 19]
48.601[19, 20, 19, 22, 18, 20, 21, 18]
48.616[20, 20, 20, 22, 17, 19, 21, 18]
48.638[20, 19, 19, 22, 18, 20, 20, 20]
48.661[20, 20, 20, 19, 19, 21, 20, 19]
48.676[21, 20, 21, 20, 19, 19, 20, 19]
48.698[21, 21, 21, 21, 21, 17, 19, 19]
48.721[20, 21, 20, 20, 22, 17, 21, 18]
48.736[21, 22, 20, 19, 23, 17, 21, 17]
48.758[22, 22, 22, 21, 23, 16, 21, 15]
48.781[21, 22, 21, 21, 21, 17, 21, 15]
48.796[20, 22, 22, 20, 21, 19, 21, 15]
48.818[21, 22, 21, 20, 20, 17, 19, 16]
48.841[21, 22, 24, 25, 21, 20, 19, 17]
48.857[19, 21, 22, 25, 20, 22, 20, 18]
48.878[18, 20, 21, 24, 22, 21, 21, 19]
48.901[18, 20, 19, 24, 21, 20, 21, 20]
48.916[18, 23, 21, 24, 21, 22, 20, 21]
48.938[17, 23, 18, 20, 20, 17, 20, 20]
48.961[15, 23, 17, 19, 20, 18, 20, 21]
48.976[18, 25, 19, 17, 20, 21, 17, 19]
48.998[19, 25, 19, 18, 19, 21, 19, 18]
49.021[18, 22, 18, 19, 21, 20, 19, 16]
49.036[19, 22, 18, 19, 21, 21, 18, 18]
49.067[20, 22, 21, 19, 24, 21, 19, 18]
49.081[22, 21, 19, 20, 23, 20, 19, 20]
49.096[19, 20, 19, 19, 22, 19, 20, 20]
49.118[20, 21, 19, 18, 21, 20, 19, 23]
49.141[20, 22, 19, 18, 21, 20, 19, 21]
49.156[21, 22, 17, 17, 19, 16, 19, 21]
49.178[19, 22, 18, 18, 19, 16, 18, 21]
49.201[21, 23, 18, 19, 20, 18, 17, 22]
49.216[23, 24, 19, 20, 19, 17, 19, 20]
49.238[23, 23, 19, 19, 19, 16, 20, 20]
49.261[20, 25, 21, 20, 20, 17, 19, 20]
49.276[21, 24, 20, 21, 20, 17, 20, 20]
49.298[22, 25, 21, 20, 18, 18, 19, 19]
49.321[21, 22, 19, 20, 20, 21, 21, 21]
49.336[21, 22, 20, 21, 19, 22, 20, 21]
49.358[23, 23, 18, 22, 19, 21, 20, 23]
49.382[21, 22, 18, 20, 19, 23, 19, 22]
49.412[21, 22, 20, 19, 19, 21, 21, 22]
49.418[20, 22, 19, 20, 20, 20, 19, 22]
49.441[20, 23, 22, 23, 22, 20, 19, 20]
49.463[20, 23, 23, 24, 23, 21, 18, 18]
49.478[20, 26, 25, 25, 23, 18, 19, 19]
49.501[21, 25, 25, 26, 23, 19, 19, 20]
49.523[20, 26, 25, 26, 24, 20, 21, 19]
49.538[21, 25, 22, 22, 21, 19, 22, 20]
49.561[20, 23, 21, 19, 20, 20, 22, 20]
49.583[20, 21, 19, 18, 21, 19, 22, 20]
49.599[18, 21, 18, 19, 21, 18, 21, 20]
49.62[19, 19, 20, 20, 18, 16, 20, 19]
49.643[17, 19, 24, 20, 19, 17, 19, 18]
49.658[18, 21, 24, 21, 20, 16, 21, 19]
49.68[19, 20, 25, 21, 21, 16, 21, 19]
49.703[19, 21, 26, 21, 19, 18, 21, 19]
49.719[18, 25, 25, 20, 22, 19, 22, 21]
49.741[19, 28, 21, 22, 23, 20, 22, 20]
49.763[20, 26, 21, 20, 23, 20, 21, 21]
49.778[18, 26, 21, 24, 24, 21, 20, 21]
49.8[20, 26, 22, 22, 25, 21, 21, 22]
49.823[21, 21, 22, 21, 23, 21, 21, 20]
49.838[21, 20, 22, 21, 21, 21, 20, 21]
49.86[20, 21, 22, 21, 21, 20, 19, 21]
49.884[21, 21, 22, 20, 17, 21, 20, 21]
49.898[20, 22, 18, 21, 17, 21, 20, 20]
49.921[21, 22, 18, 21, 20, 18, 20, 20]
49.943[21, 22, 20, 22, 19, 18, 21, 20]
49.958[19, 21, 19, 20, 20, 18, 20, 19]
49.98[22, 20, 20, 18, 22, 18, 19, 18]
50.003[20, 20, 21, 18, 23, 19, 18, 18]
50.026[21, 22, 21, 19, 20, 21, 17, 19]
50.041[21, 22, 18, 19, 22, 21, 17, 19]
50.063[23, 21, 19, 22, 22, 21, 16, 18]
50.078[20, 25, 20, 24, 22, 20, 17, 18]
50.101[21, 25, 21, 22, 21, 18, 19, 17]
50.123[18, 25, 23, 23, 22, 16, 18, 16]
50.138[18, 25, 23, 23, 22, 16, 18, 16]
50.16[18, 25, 23, 21, 21, 17, 18, 18]
50.183[18, 22, 23, 19, 21, 18, 18, 19]
50.198[17, 20, 23, 20, 21, 19, 16, 19]
50.22[20, 22, 21, 19, 21, 19, 17, 20]
50.243[19, 23, 22, 19, 21, 20, 17, 19]
50.258[20, 22, 22, 19, 21, 19, 18, 18]
50.28[21, 21, 21, 19, 22, 19, 17, 18]
50.303[23, 22, 21, 19, 22, 19, 18, 21]
50.318[23, 18, 21, 21, 22, 20, 16, 21]
50.341[25, 15, 20, 21, 20, 20, 18, 24]
50.363[23, 16, 20, 20, 20, 20, 19, 24]
50.386