[19, 16, 21, 18, 17, 19, 19, 19]
1.861[20, 16, 18, 19, 17, 19, 20, 19]
1.885[20, 17, 20, 19, 20, 23, 29, 24]
1.905[24, 22, 25, 21, 22, 22, 28, 24]
1.922[27, 25, 25, 21, 23, 26, 30, 25]
1.944[27, 26, 28, 20, 25, 26, 30, 26]
1.965[28, 27, 29, 19, 25, 27, 30, 26]
1.982[29, 26, 30, 18, 24, 25, 23, 21]
2.004[25, 24, 26, 17, 24, 25, 23, 23]
2.025[22, 23, 26, 17, 25, 23, 20, 22]
2.042[20, 21, 26, 19, 23, 24, 21, 22]
2.065[17, 20, 26, 20, 21, 24, 21, 22]
2.085[17, 21, 25, 21, 21, 23, 20, 22]
2.102[17, 20, 25, 20, 21, 22, 20, 23]
2.124[18, 19, 29, 20, 20, 21, 20, 24]
2.145[18, 20, 28, 20, 20, 19, 20, 26]
2.162[19, 21, 28, 21, 20, 20, 18, 26]
2.184[19, 20, 29, 20, 20, 19, 19, 26]
2.205[18, 19, 30, 21, 18, 18, 19, 24]
2.222[19, 22, 28, 21, 21, 17, 22, 22]
2.244[21, 22, 31, 21, 21, 20, 20, 22]
2.267[20, 21, 30, 20, 21, 19, 21, 22]
2.281[21, 21, 30, 20, 20, 19, 21, 22]
2.304[21, 21, 28, 20, 21, 20, 21, 21]
2.325[21, 20, 25, 20, 18, 20, 20, 22]
2.348[20, 19, 20, 20, 18, 18, 21, 20]
2.364[20, 20, 20, 18, 18, 18, 21, 20]
2.385[19, 20, 19, 19, 20, 19, 23, 19]
2.408[21, 20, 19, 20, 17, 18, 23, 19]
2.424[21, 20, 19, 19, 17, 19, 23, 19]
2.445[22, 20, 21, 19, 17, 18, 21, 16]
2.468[21, 19, 21, 19, 18, 19, 21, 17]
2.49[21, 19, 21, 19, 17, 18, 18, 18]
2.505[19, 20, 20, 17, 17, 18, 19, 18]
2.528[18, 18, 20, 17, 18, 18, 18, 19]
2.544[16, 19, 19, 17, 19, 20, 20, 20]
2.565[17, 19, 20, 18, 16, 19, 20, 20]
2.588[19, 21, 26, 18, 18, 20, 20, 20]
2.604[20, 21, 26, 19, 19, 19, 20, 21]
2.625[21, 21, 27, 18, 19, 19, 21, 21]
2.648[21, 21, 26, 18, 18, 19, 20, 21]
2.665[19, 22, 26, 18, 20, 22, 22, 22]
2.685[19, 21, 19, 17, 20, 21, 22, 24]
2.708[19, 21, 19, 19, 19, 21, 23, 22]
2.724[16, 21, 17, 19, 19, 20, 23, 21]
2.745[18, 20, 18, 20, 19, 20, 22, 22]
2.768[20, 19, 17, 19, 20, 16, 19, 20]
2.79[19, 21, 17, 19, 21, 17, 20, 18]
2.805[18, 22, 17, 17, 21, 18, 18, 18]
2.828[19, 23, 17, 18, 22, 18, 18, 18]
2.851[19, 22, 19, 17, 21, 17, 18, 16]
2.873[19, 22, 20, 19, 21, 18, 19, 16]
2.888[19, 24, 21, 19, 22, 16, 18, 16]
2.911[19, 22, 21, 20, 21, 17, 19, 17]
2.934[19, 21, 22, 18, 19, 19, 19, 18]
2.948[19, 22, 21, 20, 21, 19, 19, 19]
2.97[18, 22, 20, 19, 19, 19, 19, 18]
2.993[19, 18, 21, 18, 18, 20, 19, 19]
3.015[19, 20, 20, 18, 20, 20, 18, 19]
3.03[20, 19, 20, 20, 21, 19, 16, 19]
3.053[19, 18, 24, 20, 22, 18, 18, 20]
3.068[18, 19, 25, 21, 22, 18, 17, 20]
3.09[16, 19, 25, 22, 21, 19, 18, 20]
3.113[17, 20, 25, 22, 19, 17, 18, 19]
3.128[16, 20, 25, 21, 20, 18, 20, 20]
3.15[18, 21, 21, 19, 19, 19, 19, 19]
3.173[20, 20, 18, 18, 20, 21, 20, 19]
3.188[19, 21, 19, 18, 20, 21, 20, 19]
3.21[19, 20, 19, 19, 20, 22, 20, 19]
3.233[19, 21, 19, 19, 20, 21, 20, 18]
3.248[20, 20, 20, 19, 21, 20, 20, 18]
3.278[19, 20, 21, 21, 19, 19, 19, 18]
3.293[20, 19, 19, 18, 20, 20, 19, 19]
3.308[18, 19, 21, 18, 19, 19, 19, 19]
3.33[20, 18, 21, 19, 19, 18, 19, 20]
3.353[17, 19, 21, 21, 19, 17, 20, 20]
3.368[17, 20, 20, 20, 20, 19, 21, 20]
3.39[21, 21, 22, 20, 20, 19, 20, 19]
3.413[22, 22, 20, 19, 20, 20, 20, 20]
3.428[21, 22, 21, 20, 22, 20, 18, 21]
3.45[23, 21, 19, 19, 22, 21, 17, 21]
3.473[23, 21, 22, 19, 22, 20, 16, 21]
3.488[22, 21, 20, 19, 21, 20, 16, 21]
3.51[23, 22, 21, 21, 21, 18, 18, 19]
3.533[23, 24, 20, 20, 18, 18, 19, 16]
3.548[21, 23, 23, 20, 20, 20, 22, 17]
3.57[22, 22, 24, 19, 21, 20, 22, 16]
3.593[19, 21, 24, 20, 22, 20, 22, 16]
3.608[17, 19, 24, 19, 21, 23, 21, 17]
3.63[17, 20, 24, 20, 22, 22, 20, 16]
3.653[20, 21, 23, 19, 21, 22, 16, 15]
3.668[18, 21, 21, 21, 21, 20, 16, 16]
3.691[19, 21, 22, 21, 22, 20, 16, 17]
3.713[17, 24, 22, 20, 24, 18, 18, 17]
3.728[17, 22, 21, 21, 24, 18, 19, 18]
3.75[14, 22, 20, 21, 22, 18, 19, 17]
3.773[14, 22, 20, 21, 22, 20, 19, 18]
3.796[16, 23, 19, 22, 21, 19, 20, 17]
3.81[18, 20, 19, 23, 19, 19, 19, 17]
3.833[20, 21, 20, 21, 19, 20, 18, 17]
3.856[19, 20, 19, 21, 21, 20, 18, 18]
3.871[20, 20, 18, 19, 20, 19, 17, 19]
3.893[20, 19, 19, 19, 19, 19, 18, 21]
3.916[21, 19, 19, 18, 20, 18, 17, 21]
3.93[20, 18, 18, 18, 21, 19, 18, 22]
3.953[21, 16, 21, 18, 19, 18, 17, 22]
3.976[21, 17, 21, 19, 19, 19, 21, 21]
3.99[23, 17, 22, 20, 17, 20, 20, 20]
4.013[22, 18, 21, 19, 18, 21, 19, 21]
4.036[22, 18, 21, 20, 17, 19, 19, 20]
4.051[22, 19, 20, 20, 17, 20, 20, 20]
4.073[22, 20, 20, 20, 16, 20, 19, 21]
4.096[19, 19, 19, 18, 19, 18, 19, 21]
4.11[18, 21, 19, 17, 19, 18, 20, 19]
4.133[19, 22, 20, 18, 19, 20, 21, 19]
4.156[19, 22, 22, 18, 19, 18, 20, 18]
4.171[18, 22, 22, 17, 20, 18, 21, 17]
4.193[19, 23, 21, 19, 19, 18, 22, 16]
4.216[19, 20, 20, 20, 20, 19, 21, 17]
4.23[17, 22, 18, 20, 20, 18, 23, 17]
4.253[18, 21, 17, 20, 19, 19, 23, 17]
4.276[18, 21, 17, 21, 20, 19, 22, 16]
4.299[17, 20, 17, 20, 20, 19, 21, 17]
4.313[17, 20, 18, 20, 18, 18, 19, 17]
4.336[19, 19, 18, 21, 19, 18, 18, 19]
4.35[18, 21, 17, 20, 20, 17, 17, 20]
4.373[18, 20, 20, 20, 17, 17, 17, 19]
4.396[20, 21, 22, 20, 18, 18, 17, 19]
4.41[20, 21, 22, 19, 17, 17, 19, 18]
4.441[20, 22, 23, 20, 17, 19, 18, 17]
4.456[20, 21, 25, 19, 18, 19, 18, 16]
4.47[20, 22, 24, 18, 19, 18, 17, 17]
4.493[20, 21, 23, 19, 21, 19, 16, 17]
4.517[19, 22, 22, 19, 23, 19, 15, 18]
4.53[19, 21, 22, 18, 23, 18, 16, 17]
4.553[19, 22, 20, 18, 23, 19, 19, 19]
4.583[17, 22, 20, 17, 22, 20, 19, 18]
4.59[18, 22, 20, 17, 20, 17, 20, 20]
4.613[18, 20, 20, 17, 18, 18, 20, 19]
4.636[19, 19, 22, 17, 17, 18, 19, 20]
4.65[19, 18, 22, 18, 20, 16, 18, 19]
4.673[21, 19, 22, 19, 19, 19, 18, 21]
4.697[19, 19, 23, 17, 20, 20, 19, 19]
4.719[21, 21, 22, 17, 21, 19, 19, 18]
4.733[20, 22, 23, 16, 22, 19, 20, 19]
4.756[21, 23, 22, 17, 20, 19, 20, 19]
4.779[20, 22, 21, 17, 22, 16, 20, 19]
4.793[21, 23, 21, 18, 21, 18, 19, 20]
4.824[19, 23, 21, 18, 19, 19, 20, 20]
4.839[19, 21, 18, 19, 22, 19, 20, 20]
4.853[19, 21, 20, 18, 22, 19, 19, 20]
4.877[19, 20, 20, 18, 21, 19, 19, 17]
4.899[20, 19, 18, 18, 22, 19, 19, 16]
4.914[19, 18, 19, 18, 24, 18, 19, 17]
4.936[19, 18, 20, 19, 23, 17, 19, 18]
4.959[19, 19, 18, 19, 22, 20, 19, 17]
4.974[20, 21, 19, 18, 23, 22, 19, 19]
4.996[20, 22, 19, 19, 22, 22, 19, 19]
5.019[20, 22, 20, 19, 20, 22, 19, 19]
5.034[21, 22, 20, 17, 19, 24, 19, 18]
5.057[21, 21, 20, 18, 19, 22, 20, 19]
5.079[20, 20, 21, 19, 19, 21, 19, 18]
5.094[18, 19, 21, 18, 17, 20, 19, 18]
5.117[18, 19, 21, 19, 18, 21, 19, 19]
5.139[19, 19, 22, 20, 18, 19, 20, 20]
5.154[18, 20, 21, 19, 19, 20, 19, 19]
5.176[19, 18, 21, 17, 18, 19, 20, 21]
5.199[19, 18, 22, 19, 21, 18, 20, 22]
5.213[19, 19, 23, 18, 21, 18, 19, 22]
5.236[17, 19, 22, 17, 20, 17, 18, 24]
5.259[18, 18, 24, 18, 21, 15, 19, 23]
5.273[18, 20, 21, 18, 22, 16, 20, 22]
5.296[18, 19, 22, 19, 23, 17, 20, 21]
5.319[18, 18, 22, 19, 23, 17, 20, 21]
5.333[19, 19, 23, 18, 23, 17, 20, 18]
5.356[20, 18, 23, 18, 22, 17, 19, 19]
5.379[19, 18, 24, 18, 21, 16, 21, 18]
5.393[20, 18, 22, 16, 19, 17, 20, 17]
5.416[20, 18, 21, 17, 19, 18, 20, 17]
5.439[20, 19, 21, 18, 18, 17, 19, 19]
5.453[20, 20, 20, 18, 20, 19, 19, 18]
5.476[20, 21, 22, 18, 19, 19, 16, 17]
5.499[19, 21, 22, 20, 18, 19, 17, 18]
5.513[19, 21, 22, 20, 19, 18, 16, 19]
5.536[19, 20, 21, 22, 20, 19, 18, 19]
5.559[18, 19, 19, 23, 18, 19, 18, 18]
5.573[18, 18, 17, 23, 21, 19, 19, 20]
5.596[18, 21, 19, 22, 21, 18, 18, 19]
5.619[18, 22, 21, 22, 20, 19, 19, 18]
5.633[16, 22, 22, 21, 20, 20, 17, 19]
5.656[16, 24, 23, 21, 20, 19, 16, 21]
5.679[16, 24, 24, 21, 20, 18, 16, 20]
5.701[14, 20, 23, 21, 21, 19, 17, 21]
5.717[16, 20, 23, 21, 20, 18, 17, 21]
5.739[18, 18, 24, 21, 20, 18, 19, 20]
5.761[18, 17, 24, 21, 19, 18, 19, 19]
5.777[20, 19, 22, 20, 16, 20, 19, 18]
5.799[21, 20, 22, 23, 17, 20, 18, 19]
5.821[20, 20, 20, 23, 17, 20, 17, 19]
5.836[19, 21, 19, 21, 18, 19, 18, 19]
5.859[19, 21, 19, 21, 19, 19, 18, 19]
5.881[19, 19, 20, 22, 20, 20, 17, 20]
5.896[23, 21, 21, 20, 19, 20, 19, 19]
5.919[24, 23, 22, 21, 20, 21, 19, 19]
5.941[26, 23, 22, 22, 20, 21, 19, 21]
5.956[27, 25, 22, 21, 19, 20, 21, 22]
5.979[27, 25, 20, 20, 18, 17, 22, 21]
6.001[24, 24, 20, 22, 20, 17, 21, 21]
6.017[22, 23, 21, 22, 21, 15, 22, 20]
6.039[20, 22, 21, 25, 21, 17, 21, 21]
6.061[19, 20, 21, 24, 22, 18, 19, 19]
6.076[20, 20, 20, 24, 22, 18, 19, 20]
6.099[19, 19, 21, 24, 21, 19, 19, 20]
6.122[19, 18, 20, 24, 20, 19, 18, 20]
6.136[18, 18, 21, 20, 20, 19, 20, 19]
6.159[18, 19, 22, 22, 18, 19, 20, 19]
6.181[17, 19, 22, 22, 19, 21, 18, 19]
6.195[18, 19, 21, 20, 19, 21, 19, 18]
6.219[18, 18, 21, 19, 18, 22, 18, 17]
6.241[19, 17, 21, 19, 18, 22, 15, 16]
6.27[22, 21, 21, 18, 19, 22, 17, 17]
6.279[22, 21, 22, 21, 20, 21, 18, 18]
6.3[22, 23, 21, 21, 19, 22, 19, 21]
6.323[23, 23, 21, 20, 20, 20, 18, 21]
6.339[23, 24, 21, 21, 21, 18, 19, 23]
6.36[20, 20, 21, 20, 21, 17, 17, 23]
6.383[20, 20, 20, 19, 18, 17, 18, 22]
6.4[19, 18, 22, 18, 18, 16, 18, 21]
6.421[20, 21, 22, 19, 20, 18, 21, 21]
6.443[20, 21, 21, 19, 19, 19, 21, 19]
6.459[21, 19, 22, 19, 19, 19, 22, 19]
6.48[21, 21, 22, 17, 21, 19, 22, 19]
6.503[22, 22, 21, 19, 21, 20, 21, 18]
6.52[21, 20, 23, 21, 21, 19, 19, 18]
6.54[22, 21, 23, 22, 22, 20, 22, 23]
6.557[22, 24, 22, 25, 22, 20, 21, 23]
6.58[21, 23, 22, 25, 23, 21, 22, 22]
6.6[21, 24, 21, 24, 23, 20, 22, 22]
6.623[21, 23, 22, 22, 22, 21, 23, 22]
6.639[20, 20, 22, 22, 22, 21, 19, 21]
6.66[19, 19, 22, 17, 20, 21, 20, 21]
6.683[18, 17, 22, 18, 19, 21, 18, 22]
6.7[17, 17, 23, 18, 19, 21, 18, 22]
6.721[17, 18, 19, 18, 19, 21, 19, 21]
6.743[17, 19, 20, 17, 19, 21, 19, 18]
6.759[18, 20, 21, 18, 21, 21, 17, 17]
6.78[18, 22, 21, 19, 20, 20, 18, 16]
6.803[19, 22, 22, 19, 21, 20, 16, 15]
6.818[19, 23, 22, 19, 20, 19, 16, 16]
6.84[18, 23, 21, 20, 21, 19, 17, 15]
6.863[19, 21, 19, 20, 21, 20, 18, 15]
6.885[21, 20, 22, 21, 21, 19, 20, 16]
6.9[22, 21, 19, 21, 21, 20, 21, 18]
6.923[22, 22, 20, 23, 24, 20, 20, 18]
6.938[21, 21, 22, 23, 23, 19, 22, 19]
6.96[24, 23, 22, 21, 23, 17, 23, 21]
6.984[31, 32, 22, 24, 24, 19, 21, 22]
6.998[31, 32, 22, 26, 23, 19, 21, 21]
7.02[34, 33, 23, 26, 21, 21, 21, 21]
7.045[34, 35, 23, 27, 21, 22, 17, 21]
7.058[33, 35, 24, 28, 21, 22, 14, 19]
7.081[26, 29, 23, 24, 20, 22, 18, 19]
7.103[25, 30, 24, 23, 20, 22, 18, 19]
7.118[23, 28, 22, 20, 20, 23, 19, 19]
7.141[24, 26, 22, 20, 19, 22, 20, 19]
7.163[25, 26, 22, 21, 19, 23, 21, 21]
7.178[23, 23, 24, 21, 20, 22, 20, 21]
7.2[26, 24, 23, 23, 20, 21, 20, 22]
7.223[26, 24, 23, 24, 22, 19, 19, 22]
7.238[25, 25, 23, 23, 22, 20, 19, 23]
7.261[24, 25, 22, 23, 22, 20, 19, 20]
7.291[24, 26, 19, 23, 22, 20, 19, 21]
7.298[22, 26, 18, 23, 22, 19, 19, 19]
7.32[19, 22, 18, 23, 20, 19, 20, 19]
7.343[19, 22, 18, 22, 20, 19, 20, 17]
7.358[17, 22, 20, 22, 20, 17, 20, 19]
7.38[20, 22, 21, 22, 19, 20, 20, 19]
7.403[23, 20, 21, 21, 19, 20, 21, 19]
7.418[25, 21, 23, 21, 19, 20, 20, 19]
7.44[26, 21, 21, 22, 19, 21, 20, 19]
7.463[28, 21, 20, 24, 20, 20, 19, 18]
7.478[27, 22, 21, 22, 20, 20, 19, 19]
7.5[23, 23, 22, 22, 21, 19, 18, 20]
7.523[23, 24, 22, 25, 23, 22, 19, 21]
7.539[22, 25, 22, 26, 23, 19, 21, 22]
7.56[21, 25, 24, 25, 22, 21, 21, 22]
7.583[20, 23, 22, 27, 23, 21, 21, 20]
7.605[22, 22, 21, 24, 22, 21, 21, 19]
7.621[23, 21, 19, 24, 19, 20, 18, 18]
7.643[22, 21, 22, 24, 23, 22, 17, 16]
7.665[22, 20, 22, 22, 25, 20, 20, 17]
7.681[21, 22, 24, 21, 24, 18, 19, 17]
7.703[18, 21, 23, 21, 25, 18, 20, 19]
7.725[16, 21, 23, 17, 27, 17, 21, 18]
7.741[16, 21, 22, 15, 26, 17, 21, 21]
7.763[17, 21, 21, 16, 24, 20, 19, 20]
7.786[18, 23, 20, 18, 25, 20, 22, 22]
7.801[23, 24, 25, 22, 22, 21, 23, 22]
7.824[22, 24, 27, 22, 22, 21, 22, 24]
7.846[23, 24, 28, 24, 21, 20, 22, 23]
7.861[26, 25, 27, 27, 20, 18, 23, 24]
7.883[25, 21, 28, 24, 20, 20, 20, 21]
7.906[24, 22, 24, 24, 23, 19, 21, 24]
7.921[24, 22, 25, 25, 22, 18, 22, 22]
7.943[24, 22, 25, 24, 21, 18, 21, 20]
7.966[23, 21, 26, 21, 22, 21, 21, 22]
7.981[23, 22, 26, 25, 23, 22, 22, 23]
8.003[25, 23, 29, 26, 18, 23, 20, 19]
8.026[25, 25, 32, 26, 19, 24, 21, 20]
8.041[27, 24, 37, 27, 19, 24, 21, 22]
8.064[26, 26, 37, 29, 20, 23, 22, 20]
8.094[25, 25, 38, 26, 18, 23, 21, 19]
8.101[22, 24, 37, 23, 19, 21, 21, 20]
8.124[24, 22, 32, 21, 20, 21, 20, 20]
8.146[23, 23, 25, 20, 19, 20, 19, 18]
8.161[22, 22, 24, 21, 19, 19, 18, 20]
8.183[23, 25, 25, 25, 20, 17, 18, 22]
8.206[22, 26, 22, 27, 21, 17, 18, 21]
8.221[19, 26, 24, 27, 20, 19, 17, 20]
8.243[18, 25, 25, 26, 20, 18, 19, 20]
8.266[19, 25, 26, 24, 20, 20, 19, 20]
8.281[19, 23, 23, 21, 18, 18, 21, 18]
8.303[20, 22, 26, 20, 18, 17, 21, 18]
8.326[20, 22, 22, 21, 19, 17, 21, 18]
8.342[20, 21, 22, 23, 19, 18, 20, 19]
8.372[20, 21, 22, 22, 21, 16, 18, 17]
8.386[23, 22, 22, 22, 23, 17, 20, 18]
8.401[21, 20, 19, 24, 23, 18, 23, 17]
8.423[22, 19, 20, 24, 22, 17, 22, 18]
8.446[23, 21, 19, 22, 22, 16, 22, 18]
8.461[23, 20, 21, 22, 22, 18, 24, 19]
8.483[22, 18, 22, 21, 20, 20, 20, 19]
8.506[22, 20, 24, 17, 20, 21, 18, 18]
8.528[22, 19, 24, 19, 20, 21, 18, 19]
8.543[22, 19, 24, 22, 18, 20, 17, 19]
8.565[22, 22, 22, 25, 17, 21, 17, 18]
8.588[19, 22, 22, 26, 18, 21, 18, 25]
8.603[20, 21, 21, 26, 17, 19, 17, 45]
8.626[19, 26, 19, 24, 19, 19, 16, 55]
8.649[19, 25, 18, 23, 21, 19, 19, 56]
8.663[19, 24, 19, 22, 21, 18, 16, 56]
8.685[20, 25, 17, 20, 21, 16, 17, 53]
8.709[20, 26, 17, 19, 20, 17, 20, 37]
8.723[20, 22, 19, 20, 19, 18, 21, 21]
8.746[18, 22, 20, 19, 18, 17, 21, 18]
8.769[20, 24, 21, 19, 19, 17, 22, 18]
8.783[21, 23, 22, 20, 17, 18, 34, 18]
8.806[22, 24, 22, 22, 18, 18, 37, 18]
8.829[24, 24, 21, 24, 19, 19, 41, 16]
8.843[25, 26, 20, 22, 19, 19, 42, 17]
8.866[24, 24, 20, 20, 19, 19, 43, 17]
8.889[24, 24, 21, 18, 21, 19, 34, 20]
8.903[24, 22, 20, 17, 20, 20, 30, 20]
8.926[22, 22, 19, 15, 20, 20, 24, 20]
8.949[19, 21, 20, 18, 20, 20, 18, 19]
8.963[18, 24, 20, 18, 19, 21, 21, 19]
8.986[16, 24, 19, 19, 18, 20, 20, 17]
9.009[15, 25, 21, 22, 19, 20, 20, 17]
9.023[15, 26, 22, 22, 20, 18, 20, 18]
9.046[16, 24, 26, 22, 22, 19, 20, 18]
9.069[21, 22, 26, 22, 22, 18, 20, 18]
9.084[21, 20, 25, 22, 22, 21, 21, 19]
9.106[21, 22, 24, 19, 22, 22, 20, 18]
9.129[21, 22, 25, 20, 20, 22, 21, 18]
9.143[22, 26, 23, 19, 20, 22, 21, 18]
9.166[18, 26, 22, 20, 19, 22, 19, 18]
9.189[19, 27, 22, 21, 20, 19, 18, 18]
9.204[20, 25, 22, 22, 20, 17, 18, 18]
9.226[20, 25, 20, 21, 21, 19, 17, 18]
9.249[21, 21, 20, 21, 21, 18, 19, 18]
9.263[22, 21, 20, 19, 20, 18, 20, 17]
9.286[21, 20, 20, 18, 21, 18, 21, 18]
9.31[21, 20, 21, 17, 21, 19, 22, 19]
9.323[20, 20, 22, 17, 20, 17, 21, 21]
9.346[20, 19, 22, 19, 21, 19, 21, 23]
9.369[18, 20, 23, 20, 22, 20, 20, 23]
9.383[19, 21, 23, 21, 22, 20, 19, 22]
9.406[20, 23, 23, 22, 22, 21, 18, 23]
9.429[20, 22, 25, 22, 20, 21, 19, 20]
9.451[20, 23, 24, 20, 18, 20, 19, 19]
9.466[21, 21, 25, 21, 19, 20, 18, 19]
9.489[20, 21, 27, 20, 18, 19, 19, 18]
9.512[22, 20, 26, 20, 19, 18, 18, 19]
9.526[22, 19, 24, 19, 19, 18, 16, 19]
9.549[20, 19, 24, 19, 21, 19, 16, 20]
9.572[21, 20, 22, 19, 20, 20, 16, 21]
9.586[22, 18, 20, 19, 22, 21, 15, 21]
9.609[18, 21, 20, 18, 21, 22, 19, 20]
9.632[19, 21, 19, 18, 22, 23, 20, 20]
9.646[19, 20, 18, 18, 21, 24, 19, 20]
9.669[19, 21, 19, 17, 21, 23, 20, 18]
9.692[17, 21, 20, 19, 20, 23, 19, 19]
9.706[16, 18, 21, 21, 20, 22, 18, 20]
9.729[17, 18, 23, 22, 20, 21, 20, 19]
9.752[18, 18, 23, 22, 21, 18, 20, 19]
9.766[19, 16, 22, 23, 20, 19, 20, 20]
9.789[19, 16, 22, 21, 19, 18, 20, 21]
9.812[21, 19, 23, 22, 20, 17, 21, 22]
9.826[22, 27, 22, 23, 20, 19, 20, 23]
9.849[24, 39, 28, 25, 19, 20, 20, 23]
9.872[28, 61, 85, 48, 22, 18, 20, 23]
9.886[50, 97, 178, 84, 40, 31, 26, 30]
9.909[139, 179, 351, 184, 54, 40, 31, 77]
9.932[156, 204, 504, 252, 70, 50, 42, 86]
9.946[183, 285, 564, 293, 86, 61, 49, 101]
9.977[215, 416, 609, 355, 112, 82, 62, 108]
9.992[218, 480, 739, 455, 112, 95, 69, 139]
10.006[235, 494, 742, 439, 116, 96, 81, 160]
10.029[268, 522, 704, 434, 120, 103, 80, 217]
10.052[298, 581, 737, 431, 122, 107, 87, 230]
10.066[288, 539, 757, 396, 103, 102, 86, 233]
10.089[295, 505, 648, 279, 104, 96, 81, 222]
10.112[266, 492, 593, 259, 96, 94, 68, 218]
10.126[251, 473, 570, 216, 84, 87, 69, 169]
10.149[212, 375, 506, 190, 70, 84, 60, 172]
10.171[205, 350, 464, 170, 80, 82, 53, 177]
10.186[194, 320, 429, 154, 75, 75, 52, 176]
10.209[177, 322, 540, 195, 74, 75, 53, 153]
10.231[163, 320, 547, 202, 77, 72, 49, 166]
10.246[163, 304, 543, 199, 75, 63, 45, 164]
10.269[178, 270, 523, 192, 60, 58, 49, 208]
10.292[177, 286, 557, 197, 61, 57, 48, 214]
10.306[175, 254, 444, 162, 61, 54, 48, 224]
10.329[171, 242, 441, 160, 57, 51, 46, 213]
10.352[150, 224, 451, 148, 54, 49, 44, 204]
10.366[130, 215, 444, 145, 51, 41, 36, 202]
10.389[131, 186, 412, 135, 47, 41, 41, 207]
10.411[140, 181, 428, 142, 45, 40, 38, 210]
10.434[141, 154, 404, 120, 43, 38, 39, 208]
10.449[138, 161, 372, 120, 44, 39, 41, 225]
10.472[139, 165, 452, 128, 46, 40, 40, 180]
10.494[147, 204, 474, 155, 46, 37, 33, 169]
10.509[150, 202, 444, 145, 44, 33, 42, 175]
10.532[140, 222, 431, 144, 44, 35, 52, 194]
10.554[138, 219, 502, 137, 43, 32, 50, 165]
10.569[127, 212, 455, 120, 41, 31, 53, 163]
10.592[153, 186, 409, 99, 44, 33, 53, 164]
10.614[148, 183, 414, 97, 43, 35, 53, 163]
10.629[198, 172, 445, 133, 48, 34, 47, 168]
10.651[201, 169, 426, 148, 51, 34, 46, 170]
10.674[206, 170, 392, 150, 48, 31, 42, 170]
10.689[179, 159, 448, 141, 43, 30, 41, 167]
10.719[175, 159, 486, 146, 48, 31, 38, 148]
10.734[119, 144, 480, 128, 46, 32, 34, 117]
10.75[119, 139, 474, 110, 43, 33, 35, 114]
10.772[118, 143, 466, 116, 45, 32, 37, 154]
10.794[142, 142, 449, 120, 47, 33, 43, 212]
10.809[179, 180, 417, 131, 44, 33, 38, 226]
10.832[176, 197, 384, 130, 40, 29, 37, 223]
10.854[190, 201, 315, 129, 40, 27, 37, 222]
10.869[203, 208, 379, 135, 38, 28, 38, 201]
10.892[187, 218, 393, 140, 42, 28, 34, 151]
10.914[147, 189, 373, 126, 40, 25, 37, 136]
10.928[143, 172, 375, 121, 40, 25, 37, 145]
10.952[174, 219, 428, 138, 48, 31, 42, 190]
10.974[169, 224, 388, 132, 48, 30, 46, 209]
10.988[177, 205, 340, 127, 44, 29, 45, 199]
11.012[183, 211, 357, 135, 47, 31, 44, 193]
11.034[184, 207, 431, 146, 47, 32, 46, 192]
11.048[147, 173, 403, 142, 41, 29, 43, 163]
11.072[144, 149, 395, 145, 42, 32, 36, 134]
11.094[136, 151, 389, 139, 41, 32, 35, 246]
11.108[134, 140, 394, 127, 39, 33, 36, 248]
11.132[132, 136, 298, 105, 40, 34, 33, 250]
11.154[117, 106, 312, 89, 37, 35, 32, 246]
11.168[111, 113, 344, 74, 37, 35, 34, 242]
11.192[130, 112, 351, 87, 37, 34, 34, 135]
11.214[127, 111, 355, 96, 39, 33, 31, 126]
11.228[127, 130, 389, 100, 40, 33, 31, 111]
11.251[134, 128, 353, 97, 42, 33, 32, 145]
11.274[141, 121, 320, 104, 41, 30, 31, 191]
11.296[130, 121, 307, 102, 47, 32, 32, 225]
11.312[134, 128, 323, 110, 47, 33, 31, 225]
11.333[141, 112, 316, 121, 46, 36, 32, 226]
11.356[137, 114, 353, 121, 46, 35, 35, 214]
11.372[137, 126, 355, 113, 47, 37, 40, 208]
11.394[151, 125, 380, 113, 42, 38, 39, 191]
11.416[153, 135, 399, 105, 39, 38, 40, 188]
11.432[146, 139, 375, 86, 39, 36, 40, 187]
11.453[177, 140, 317, 83, 40, 37, 37, 171]
11.483[178, 139, 325, 90, 38, 37, 33, 162]
11.492[179, 140, 334, 104, 40, 37, 36, 179]
11.513[184, 119, 410, 119, 39, 36, 38, 199]
11.536[184, 114, 463, 128, 41, 34, 38, 198]
11.553[155, 111, 495, 132, 40, 32, 36, 205]
11.573[155, 103, 542, 142, 40, 32, 36, 189]
11.596[134, 98, 541, 130, 38, 30, 34, 149]
11.612[135, 98, 474, 114, 38, 27, 33, 160]
11.633[136, 102, 431, 108, 35, 27, 38, 180]
11.656[140, 114, 482, 111, 35, 30, 39, 176]
11.672[127, 122, 516, 117, 38, 33, 37, 167]
11.693[154, 124, 510, 117, 39, 32, 36, 172]
11.716[147, 136, 540, 115, 36, 33, 40, 155]
11.732[151, 139, 548, 114, 38, 33, 35, 134]
11.753[158, 146, 494, 113, 38, 33, 37, 144]
11.776[155, 138, 405, 93, 34, 28, 37, 149]
11.792[129, 139, 421, 95, 36, 30, 42, 161]
11.813[128, 127, 365, 94, 38, 30, 36, 147]
11.836[126, 129, 345, 90, 37, 30, 36, 143]
11.852[109, 120, 331, 84, 34, 29, 32, 130]
11.873[119, 120, 341, 80, 34, 31, 32, 140]
11.896[124, 124, 340, 74, 33, 31, 29, 185]
11.912[117, 142, 409, 73, 33, 33, 31, 187]
11.933[120, 132, 411, 78, 34, 34, 32, 209]
11.956[127, 130, 415, 83, 37, 34, 35, 206]
11.978[119, 144, 392, 87, 39, 32, 33, 213]
11.993[126, 144, 394, 122, 42, 29, 35, 155]
12.016[140, 136, 387, 131, 42, 26, 35, 165]
12.032[133, 131, 405, 133, 41, 24, 35, 144]
12.053[127, 142, 495, 139, 41, 25, 35, 146]
12.077[133, 128, 499, 135, 41, 27, 39, 121]
12.092[158, 127, 473, 104, 38, 27, 35, 151]
12.113[157, 129, 405, 92, 38, 31, 37, 140]
12.136[154, 139, 471, 91, 39, 34, 36, 132]
12.152[153, 129, 370, 81, 42, 37, 37, 132]
12.173[150, 133, 390, 80, 41, 36, 33, 145]
12.196[133, 131, 383, 81, 40, 37, 33, 114]
12.213[126, 133, 426, 87, 40, 38, 32, 121]
12.234[154, 128, 345, 96, 43, 38, 34, 129]
12.256[154, 121, 336, 91, 37, 34, 33, 141]
12.272[156, 111, 328, 89, 33, 33, 36, 149]
12.294[155, 111, 346, 91, 35, 32, 35, 152]
12.316[154, 97, 313, 83, 34, 30, 34, 147]
12.339[129, 107, 374, 77, 31, 27, 30, 146]
12.353[137, 103, 407, 91, 33, 29, 30, 132]
12.376[139, 109, 402, 96, 34, 30, 26, 104]
12.399[132, 108, 402, 106, 31, 30, 27, 86]
12.413[151, 132, 432, 110, 30, 28, 30, 117]
12.436[162, 133, 360, 103, 30, 31, 40, 132]
12.459[156, 143, 371, 92, 32, 30, 40, 135]
12.473[159, 141, 401, 94, 34, 30, 40, 151]
12.496[143, 142, 394, 78, 36, 32, 43, 156]
12.519[177, 131, 372, 72, 39, 33, 43, 137]
12.533[185, 139, 388, 75, 38, 31, 35, 126]
12.556[193, 131, 360, 72, 37, 30, 35, 168]
12.579[200, 144, 342, 67, 38, 30, 35, 159]
12.593[212, 151, 332, 64, 41, 30, 33, 154]
12.616[167, 149, 308, 67, 38, 28, 31, 151]
12.638[150, 136, 371, 74, 38, 29, 31, 149]
12.654[189, 132, 361, 72, 36, 29, 29, 112]
12.676[178, 121, 334, 68, 34, 30, 32, 147]
12.699[168, 118, 386, 74, 33, 29, 30, 149]
12.713[184, 103, 414, 87, 32, 31, 31, 149]
12.736[204, 95, 331, 86, 33, 29, 30, 166]
12.758[160, 96, 344, 89, 36, 29, 30, 161]
12.773[174, 99, 382, 91, 37, 27, 28, 129]
12.796[169, 93, 357, 95, 38, 29, 29, 126]
12.819[147, 97, 347, 84, 40, 28, 34, 123]
12.833[125, 101, 359, 80, 39, 28, 36, 143]
12.856[132, 102, 426, 85, 38, 30, 40, 144]
12.878[110, 100, 411, 84, 36, 30, 43, 158]
12.894[121, 136, 421, 84, 36, 28, 44, 174]
12.916[127, 137, 467, 85, 31, 27, 39, 176]
12.939[111, 135, 481, 80, 33, 28, 39, 161]
12.953[107, 136, 417, 91, 34, 28, 44, 168]
12.976[118, 144, 481, 115, 39, 31, 39, 162]
12.999[107, 105, 462, 109, 35, 29, 37, 148]
13.013[115, 112, 407, 110, 38, 29, 38, 154]
13.036[126, 112, 397, 121, 38, 30, 36, 132]
13.058[141, 116, 437, 111, 37, 29, 29, 130]
13.074[140, 106, 349, 84, 33, 26, 28, 116]
13.097[151, 115, 380, 90, 34, 27, 30, 115]
13.118[143, 114, 386, 94, 32, 26, 40, 128]
13.133[148, 124, 406, 84, 33, 24, 40, 163]
13.156[146, 121, 373, 89, 33, 21, 38, 159]
13.187[138, 111, 381, 90, 33, 21, 40, 161]
13.194[125, 103, 362, 84, 31, 22, 40, 165]
13.216[143, 94, 342, 72, 30, 21, 30, 157]
13.239[139, 89, 332, 79, 29, 24, 31, 118]
13.261[132, 91, 321, 75, 28, 25, 30, 112]
13.276[135, 100, 330, 76, 29, 29, 34, 127]
13.298[145, 103, 325, 81, 31, 27, 34, 200]
13.321[131, 101, 343, 86, 31, 27, 37, 207]
13.336[126, 96, 322, 75, 32, 28, 37, 215]
13.358[130, 89, 323, 77, 33, 28, 37, 221]
13.381[127, 88, 299, 87, 35, 25, 34, 218]
13.396[122, 95, 350, 88, 40, 28, 34, 154]
13.418[122, 106, 349, 96, 42, 33, 29, 135]
13.441[145, 114, 350, 98, 42, 32, 32, 169]
13.456[153, 120, 329, 92, 41, 33, 31, 171]
13.479[167, 125, 472, 111, 46, 39, 36, 174]
13.501[167, 124, 455, 121, 43, 39, 38, 194]
13.516[185, 116, 441, 117, 42, 38, 45, 196]
13.538[164, 104, 485, 117, 43, 37, 44, 163]
13.561[155, 97, 528, 119, 42, 36, 44, 166]
13.576[139, 87, 436, 94, 34, 30, 39, 156]
13.598[139, 82, 454, 82, 33, 27, 37, 126]
13.621[110, 92, 457, 79, 32, 24, 32, 127]
13.636[129, 96, 427, 75, 29, 26, 36, 135]
13.659[113, 99, 473, 87, 31, 26, 36, 131]
13.681[115, 94, 441, 97, 30, 25, 40, 139]
13.696[124, 99, 427, 102, 31, 24, 38, 143]
13.719[128, 98, 451, 103, 31, 24, 37, 139]
13.741[120, 97, 436, 104, 31, 22, 30, 131]
13.756[128, 97, 400, 97, 28, 22, 43, 185]
13.778[139, 104, 405, 92, 30, 21, 40, 188]
13.801[129, 93, 361, 83, 27, 23, 45, 200]
13.816[135, 85, 321, 75, 27, 24, 45, 199]
13.839[126, 89, 423, 88, 29, 26, 46, 198]
13.861[130, 91, 378, 97, 33, 26, 34, 139]
13.876[121, 90, 422, 105, 33, 27, 36, 123]
13.898[132, 98, 447, 106, 33, 24, 34, 153]
13.921[123, 102, 458, 110, 33, 24, 33, 147]
13.936[125, 99, 361, 99, 31, 21, 32, 148]
13.959[126, 94, 397, 85, 30, 23, 32, 146]
13.981[121, 92, 390, 87, 30, 23, 30, 145]
13.996[119, 90, 374, 89, 30, 25, 28, 88]
14.019[120, 90, 424, 87, 29, 24, 28, 110]
14.042[118, 91, 477, 93, 28, 26, 31, 134]
14.056[120, 98, 439, 94, 30, 27, 31, 169]
14.079[122, 103, 415, 86, 33, 27, 31, 175]
14.101[123, 114, 403, 78, 36, 30, 30, 180]
14.116[121, 106, 327, 75, 38, 31, 32, 165]
14.139[137, 106, 274, 68, 40, 31, 29, 173]
14.161[121, 102, 342, 73, 41, 30, 30, 145]
14.185[136, 98, 321, 59, 36, 32, 30, 139]
14.199[122, 82, 323, 62, 35, 32, 30, 130]
14.222[128, 96, 339, 66, 37, 34, 29, 131]
14.244[129, 92, 352, 68, 35, 34, 36, 133]
14.259[139, 92, 328, 62, 33, 32, 37, 147]
14.282[126, 90, 332, 66, 32, 30, 39, 148]
14.304[129, 86, 387, 75, 31, 30, 40, 148]
14.327[120, 85, 398, 88, 29, 28, 40, 153]
14.342[101, 85, 377, 87, 29, 27, 34, 109]
14.364[91, 87, 333, 91, 31, 29, 37, 92]
14.379[96, 101, 373, 96, 33, 28, 39, 129]
14.402[110, 103, 336, 96, 33, 25, 37, 132]
14.425[105, 95, 332, 104, 32, 24, 37, 132]
14.439[127, 129, 389, 112, 35, 24, 39, 152]
14.462[124, 130, 395, 113, 36, 23, 35, 153]
14.484[129, 117, 364, 106, 35, 24, 33, 153]
14.499[120, 120, 386, 100, 35, 24, 32, 154]
14.522[120, 123, 375, 80, 33, 22, 31, 151]
14.545[92, 87, 299, 68, 29, 22, 28, 134]
14.559[90, 89, 308, 63, 27, 25, 26, 128]
14.582[83, 95, 329, 66, 27, 24, 26, 95]
14.604[73, 91, 340, 85, 30, 27, 23, 86]
14.619[70, 89, 342, 86, 32, 27, 25, 87]
14.642[90, 89, 351, 90, 32, 29, 28, 121]
14.664[92, 85, 368, 94, 33, 30, 28, 129]
14.678[80, 85, 379, 100, 36, 30, 26, 123]
14.702[124, 81, 324, 85, 34, 30, 27, 131]
14.724[131, 86, 335, 83, 35, 30, 28, 132]
14.739[119, 86, 359, 77, 35, 31, 29, 124]
14.762[124, 86, 326, 71, 33, 29, 30, 127]
14.784[138, 91, 273, 66, 31, 28, 30, 129]
14.799[101, 97, 262, 65, 31, 26, 36, 131]
14.822[111, 94, 229, 62, 32, 27, 35, 163]
14.844[128, 92, 167, 61, 33, 26, 32, 153]
14.859[122, 87, 246, 61, 33, 26, 30, 139]
14.882[105, 80, 284, 57, 31, 25, 39, 148]
14.904[122, 84, 310, 58, 32, 26, 35, 151]
14.919[119, 87, 307, 56, 30, 25, 35, 149]
14.942[103, 92, 326, 56, 28, 24, 39, 153]
14.964[103, 109, 375, 62, 31, 25, 40, 165]
14.979[116, 107, 357, 58, 33, 26, 31, 157]
15.002[100, 109, 340, 59, 31, 26, 33, 163]
15.024[94, 110, 354, 68, 34, 32, 39, 150]
15.038[107, 106, 379, 73, 34, 31, 36, 182]
15.062[107, 94, 312, 68, 32, 31, 37, 179]
15.084[96, 101, 329, 72, 33, 31, 39, 180]
15.099[95, 92, 339, 72, 36, 30, 38, 167]
15.122[100, 90, 330, 63, 35, 26, 35, 152]
15.144[87, 88, 286, 58, 34, 26, 35, 102]
15.167[90, 106, 375, 69, 45, 32, 36, 95]
15.182[92, 110, 390, 71, 43, 35, 34, 95]
15.204[111, 111, 388, 70, 40, 35, 32, 97]
15.227[110, 110, 415, 70, 38, 33, 34, 118]
15.242[108, 114, 456, 76, 41, 35, 35, 140]
15.264[112, 95, 362, 66, 31, 29, 32, 138]
15.287[114, 92, 339, 66, 34, 26, 32, 134]
15.302[104, 97, 355, 64, 35, 27, 33, 137]
15.324[95, 94, 381, 72, 39, 27, 28, 122]
15.347[109, 93, 330, 63, 36, 25, 27, 94]
15.362[108, 99, 334, 66, 35, 26, 26, 90]
15.384[103, 98, 337, 95, 37, 26, 24, 90]
15.407[95, 98, 306, 100, 37, 27, 23, 90]
15.422[140, 97, 241, 94, 34, 27, 29, 115]
15.445[139, 104, 270, 96, 36, 27, 32, 124]
15.467[144, 102, 271, 96, 35, 27, 33, 124]
15.482[165, 119, 261, 68, 33, 28, 36, 130]
15.504[167, 126, 350, 72, 35, 30, 40, 123]
15.527[128, 129, 345, 75, 36, 30, 41, 111]
15.542[133, 130, 326, 76, 35, 31, 39, 136]
15.564[133, 126, 342, 81, 35, 30, 42, 158]
15.587[104, 104, 329, 76, 34, 30, 42, 156]
15.602[102, 89, 258, 61, 29, 25, 40, 153]
15.624[103, 86, 325, 73, 28, 26, 35, 142]
15.647[114, 99, 377, 83, 32, 26, 34, 108]
15.661[105, 104, 390, 79, 33, 27, 33, 85]
15.685[106, 102, 391, 80, 33, 28, 32, 91]
15.707[115, 107, 380, 82, 33, 29, 33, 114]
15.721[115, 109, 370, 75, 35, 28, 31, 115]
15.744[99, 91, 333, 64, 32, 29, 35, 113]
15.767[101, 85, 304, 65, 31, 28, 30, 110]
15.781[127, 88, 309, 66, 33, 29, 29, 117]
15.804[118, 83, 310, 62, 37, 29, 26, 93]
15.827[121, 80, 327, 66, 38, 29, 28, 92]
15.841[119, 94, 312, 74, 39, 30, 27, 92]
15.864[126, 94, 314, 73, 38, 29, 27, 92]
15.887[101, 95, 336, 74, 37, 28, 28, 76]
15.901[102, 103, 330, 78, 34, 27, 28, 82]
15.924[105, 104, 283, 70, 33, 28, 29, 108]
15.947[110, 90, 295, 69, 34, 29, 29, 133]
15.961[105, 102, 288, 69, 35, 30, 30, 136]
15.984[118, 104, 282, 67, 38, 31, 30, 144]
16.007[125, 107, 287, 65, 39, 30, 34, 142]
16.021[121, 118, 312, 66, 38, 30, 33, 124]
16.044[112, 120, 330, 61, 39, 29, 31, 103]
16.068[116, 114, 344, 62, 39, 30, 31, 100]
16.089[110, 111, 330, 74, 38, 32, 33, 115]
16.105[114, 100, 339, 74, 36, 33, 36, 169]
16.127[111, 87, 291, 75, 37, 33, 34, 168]
16.149[105, 86, 240, 74, 33, 31, 35, 163]
16.172[98, 78, 295, 73, 31, 28, 34, 159]
16.188[92, 90, 358, 67, 32, 26, 34, 137]
16.209[99, 85, 366, 70, 32, 25, 30, 129]
16.224[135, 91, 393, 70, 31, 24, 34, 150]
16.247[138, 94, 471, 66, 33, 26, 35, 152]
16.269[134, 95, 428, 72, 33, 27, 39, 156]
16.285[144, 86, 385, 68, 31, 27, 37, 167]
16.306[162, 102, 378, 66, 33, 27, 37, 129]
16.329[137, 106, 387, 64, 33, 29, 34, 101]
16.345[138, 101, 353, 70, 33, 26, 37, 101]
16.366[140, 102, 360, 62, 31, 24, 30, 98]
16.389[133, 100, 369, 65, 33, 26, 32, 88]
16.405[93, 90, 394, 66, 31, 26, 29, 85]
16.426[101, 80, 354, 68, 33, 25, 34, 90]
16.449[97, 82, 306, 66, 33, 24, 29, 98]
16.465[99, 88, 318, 70, 35, 25, 34, 126]
16.486[121, 90, 294, 64, 34, 24, 32, 125]
16.509[121, 85, 241, 58, 34, 24, 34, 120]
16.525[110, 85, 251, 58, 35, 27, 30, 119]
16.546[117, 92, 326, 66, 34, 28, 30, 108]
16.569[133, 85, 311, 67, 34, 29, 27, 97]
16.585[116, 82, 305, 68, 34, 28, 28, 103]
16.606[122, 89, 314, 70, 37, 31, 28, 114]
16.629[122, 95, 361, 80, 34, 28, 28, 112]
16.645[137, 92, 302, 71, 34, 28, 32, 170]
16.667[120, 91, 285, 67, 36, 28, 33, 176]
16.689[119, 93, 339, 68, 33, 27, 35, 174]
16.705[118, 95, 350, 67, 32, 30, 35, 176]
16.726[120, 93, 327, 60, 33, 30, 36, 179]
16.749[91, 91, 339, 71, 33, 29, 33, 131]
16.766[100, 104, 356, 76, 34, 31, 35, 109]
16.787[94, 107, 327, 76, 36, 32, 31, 100]
16.809[99, 104, 345, 77, 33, 29, 30, 86]
16.825[105, 102, 399, 74, 35, 30, 36, 121]
16.846[112, 103, 382, 68, 37, 31, 39, 147]
16.869[110, 94, 393, 66, 34, 30, 37, 149]
16.885[113, 88, 373, 65, 33, 29, 38, 152]
16.906[126, 96, 371, 63, 32, 28, 38, 161]
16.929[127, 109, 348, 63, 31, 26, 32, 145]
16.945[133, 106, 368, 63, 30, 26, 28, 143]
16.974[125, 107, 349, 58, 30, 24, 27, 138]
16.989[138, 112, 371, 60, 30, 24, 26, 138]
17.005[129, 102, 462, 66, 32, 24, 32, 170]
17.026[125, 108, 425, 62, 32, 25, 33, 168]
17.049[125, 104, 399, 59, 31, 23, 38, 160]
17.071[123, 101, 387, 68, 29, 24, 39, 158]
17.086[116, 109, 389, 72, 32, 27, 42, 159]
17.109[126, 109, 268, 68, 31, 28, 46, 137]
17.131[138, 92, 250, 70, 30, 29, 49, 158]
17.147[138, 97, 318, 73, 30, 29, 49, 164]
17.169[149, 101, 321, 67, 32, 28, 49, 163]
17.191[141, 91, 336, 61, 28, 25, 48, 158]
17.206[120, 92, 310, 65, 29, 25, 39, 148]
17.229[99, 101, 338, 65, 31, 25, 35, 128]
17.251[109, 107, 279, 61, 31, 27, 33, 106]
17.266[106, 107, 365, 66, 31, 27, 30, 104]
17.289[106, 124, 351, 77, 33, 29, 35, 115]
17.311[126, 122, 358, 71, 33, 27, 44, 148]
17.327[131, 114, 339, 71, 33, 26, 42, 148]
17.349[110, 106, 342, 70, 33, 24, 42, 160]
17.371[96, 106, 313, 66, 35, 24, 46, 165]
17.386[132, 86, 289, 52, 31, 22, 40, 163]
17.409[114, 84, 274, 53, 31, 23, 33, 123]
17.431[118, 80, 307, 60, 29, 24, 35, 157]
17.446[127, 90, 323, 60, 28, 23, 34, 146]
17.469[144, 84, 331, 60, 26, 25, 30, 145]
17.491[108, 86, 328, 58, 27, 26, 30, 148]
17.506[108, 92, 327, 57, 28, 28, 30, 150]
17.529[121, 90, 295, 49, 26, 25, 28, 109]
17.552[120, 81, 358, 61, 30, 27, 29, 109]
17.566[130, 80, 300, 57, 30, 30, 49, 129]
17.589[142, 89, 320, 60, 31, 31, 51, 144]
17.612[148, 87, 334, 62, 32, 32, 53, 140]
17.626[131, 93, 380, 68, 37, 33, 53, 144]
17.649[127, 110, 375, 63, 37, 34, 52, 145]
17.671[100, 112, 374, 66, 36, 32, 35, 127]
17.686[97, 105, 360, 63, 35, 32, 37, 117]
17.709[92, 107, 347, 60, 33, 29, 41, 157]
17.731[117, 104, 380, 77, 30, 29, 43, 161]
17.746[110, 90, 327, 79, 28, 27, 42, 159]
17.769[124, 89, 321, 79, 30, 25, 46, 167]
17.791[119, 84, 322, 80, 32, 27, 41, 155]
17.807[117, 80, 323, 79, 32, 27, 34, 116]
17.829[94, 86, 229, 69, 33, 29, 30, 99]
17.851[128, 88, 329, 68, 36, 32, 49, 182]
17.867[126, 83, 347, 67, 34, 31, 50, 201]
17.889[138, 80, 345, 69, 33, 33, 54, 211]
17.911[144, 84, 385, 74, 33, 33, 56, 217]
17.926[161, 80, 374, 61, 31, 30, 56, 218]
17.949[140, 70, 255, 58, 28, 29, 45, 155]
17.971[128, 73, 302, 70, 28, 29, 43, 150]
17.994[131, 88, 365, 74, 28, 27, 38, 140]
18.009[138, 85, 328, 72, 29, 25, 37, 131]
18.031[117, 86, 359, 76, 32, 26, 37, 124]
18.054[117, 85, 372, 73, 29, 23, 31, 123]
18.069[154, 92, 346, 65, 31, 24, 31, 116]
18.091[135, 79, 297, 59, 31, 21, 31, 154]
18.114[124, 81, 372, 67, 34, 27, 52, 174]
18.129[149, 83, 370, 77, 31, 26, 57, 181]
18.151[146, 87, 381, 89, 32, 25, 57, 179]
18.174[108, 78, 380, 89, 32, 26, 55, 157]
18.189[119, 89, 386, 92, 32, 27, 56, 132]
18.212[172, 101, 400, 93, 31, 25, 39, 211]
18.234[155, 98, 391, 83, 31, 24, 31, 212]
18.249[156, 95, 397, 74, 31, 24, 31, 213]
18.271[155, 98, 401, 79, 28, 23, 30, 213]
18.294[157, 99, 431, 80, 28, 23, 27, 205]
18.309[100, 89, 390, 75, 28, 21, 33, 140]
18.331[136, 100, 372, 76, 28, 22, 36, 170]
18.354[139, 118, 368, 74, 34, 24, 38, 168]
18.369[136, 122, 354, 65, 34, 26, 40, 168]
18.391[123, 118, 311, 65, 34, 25, 39, 169]
18.414[138, 127, 357, 75, 35, 27, 38, 141]
18.43[96, 121, 369, 72, 34, 27, 36, 98]
18.46[93, 127, 348, 71, 30, 27, 35, 103]
18.474[94, 123, 332, 75, 31, 27, 39, 136]
18.49[107, 123, 317, 72, 31, 27, 39, 133]
18.52[82, 130, 204, 58, 31, 26, 35, 125]
18.534[87, 134, 219, 62, 35, 29, 40, 123]
18.549[95, 114, 212, 63, 35, 29, 65, 137]
18.572[118, 112, 280, 61, 34, 27, 63, 160]
18.594[112, 119, 277, 61, 34, 26, 63, 159]
18.609[114, 106, 277, 62, 33, 27, 64, 164]
18.631[130, 95, 287, 63, 29, 25, 61, 168]
18.654[122, 118, 292, 64, 28, 25, 37, 153]
18.669[103, 124, 220, 60, 28, 26, 40, 109]
18.692[110, 116, 216, 62, 29, 28, 45, 126]
18.714[104, 106, 213, 58, 26, 26, 45, 135]
18.729[80, 113, 220, 61, 29, 25, 43, 136]
18.751[80, 89, 220, 60, 29, 26, 41, 139]
18.774[92, 80, 225, 61, 30, 25, 36, 128]
18.789[95, 73, 220, 54, 28, 23, 29, 111]
18.812[94, 72, 208, 50, 27, 23, 25, 87]
18.835[91, 53, 122, 39, 21, 22, 24, 68]
18.849[88, 57, 98, 32, 21, 21, 23, 56]
18.872[69, 55, 74, 27, 19, 22, 22, 50]
18.894[39, 53, 68, 26, 18, 22, 21, 38]
18.909[58, 53, 61, 25, 20, 24, 24, 65]
18.931[59, 53, 48, 25, 23, 24, 25, 64]
18.954[59, 41, 39, 22, 22, 21, 24, 64]
18.977[59, 33, 30, 18, 22, 19, 23, 65]
18.992[59, 31, 31, 21, 22, 19, 24, 65]
19.014[37, 28, 25, 21, 22, 18, 22, 33]
19.037[34, 28, 26, 25, 25, 20, 21, 29]
19.052[28, 22, 26, 29, 29, 22, 21, 25]
19.074[22, 23, 26, 33, 33, 23, 21, 24]
19.097[21, 23, 24, 32, 34, 23, 21, 23]
19.111[18, 26, 25, 33, 35, 22, 20, 22]
19.134[18, 24, 23, 29, 31, 20, 20, 21]
19.157[18, 25, 25, 26, 26, 18, 21, 21]
19.172[22, 23, 24, 23, 24, 17, 21, 20]
19.194[21, 23, 25, 23, 23, 16, 21, 20]
19.217[22, 18, 24, 21, 22, 17, 20, 19]
19.232[24, 16, 23, 22, 22, 17, 20, 19]
19.254[24, 17, 21, 22, 22, 19, 19, 19]
19.277[22, 17, 21, 21, 17, 18, 19, 19]
19.292[22, 17, 19, 21, 17, 18, 17, 17]
19.314[20, 20, 21, 20, 18, 19, 20, 19]
19.337[19, 19, 20, 20, 17, 20, 20, 19]
19.352[20, 20, 20, 20, 19, 19, 19, 20]
19.374[19, 19, 20, 19, 19, 19, 19, 20]
19.405[18, 19, 20, 18, 20, 20, 19, 21]
19.411[20, 18, 21, 18, 20, 21, 17, 20]
19.442[19, 18, 21, 19, 20, 22, 18, 20]
19.457[19, 17, 21, 20, 19, 23, 18, 18]
19.471[19, 18, 21, 21, 19, 22, 18, 19]
19.494[20, 18, 22, 23, 18, 22, 18, 18]
19.517[19, 19, 21, 25, 18, 21, 19, 18]
19.531[19, 19, 21, 24, 19, 18, 20, 18]
19.554[19, 20, 23, 22, 19, 16, 20, 18]
19.578[20, 19, 23, 23, 19, 18, 20, 17]
19.592[21, 20, 22, 20, 20, 17, 21, 19]
19.622[21, 22, 22, 18, 20, 17, 21, 18]
19.637[19, 22, 23, 20, 20, 18, 21, 19]
19.652[20, 21, 22, 19, 21, 19, 19, 18]
19.674[19, 21, 22, 20, 20, 18, 20, 17]
19.697[18, 20, 21, 21, 22, 18, 19, 19]
19.712[19, 18, 21, 20, 21, 18, 18, 19]
19.734[20, 21, 21, 21, 21, 18, 16, 19]
19.757[18, 20, 20, 21, 19, 16, 17, 21]
19.772[18, 21, 20, 20, 20, 16, 16, 21]
19.795[18, 22, 21, 19, 20, 15, 15, 18]
19.817[17, 23, 21, 20, 20, 15, 17, 19]
19.832[16, 21, 20, 20, 21, 15, 17, 20]
19.854[17, 23, 21, 20, 23, 16, 17, 18]
19.877[16, 22, 22, 21, 22, 16, 18, 18]
19.9[15, 23, 22, 23, 20, 16, 19, 18]
19.915[17, 22, 23, 23, 20, 17, 17, 19]
19.937[17, 23, 24, 20, 20, 17, 19, 18]
19.96[18, 22, 23, 20, 20, 17, 18, 18]
19.975[20, 22, 23, 21, 21, 19, 19, 17]
19.997[21, 22, 24, 20, 21, 19, 18, 17]
20.02[20, 23, 22, 19, 20, 21, 18, 15]
20.035[22, 22, 22, 20, 21, 21, 18, 15]
20.057[21, 22, 22, 21, 20, 21, 20, 16]
20.08[20, 22, 22, 20, 19, 19, 19, 18]
20.095[20, 21, 20, 18, 21, 19, 20, 19]
20.117[21, 21, 20, 17, 22, 17, 21, 19]
20.14[19, 21, 19, 17, 22, 17, 18, 18]
20.154[19, 22, 18, 17, 23, 18, 16, 19]
20.177[18, 20, 19, 16, 23, 18, 17, 18]
20.2[18, 21, 19, 17, 20, 19, 17, 17]
20.214[17, 20, 19, 19, 21, 19, 17, 18]
20.237[19, 20, 18, 18, 21, 18, 19, 20]
20.259[19, 20, 19, 17, 21, 19, 19, 19]
20.275[19, 21, 18, 18, 20, 19, 18, 19]
20.297[21, 19, 19, 19, 20, 18, 18, 20]
20.319[22, 21, 21, 19, 21, 19, 19, 19]
20.335[20, 22, 21, 21, 20, 18, 19, 18]
20.357[19, 20, 22, 22, 21, 18, 19, 17]
20.38[21, 20, 23, 22, 22, 19, 22, 18]
20.394[18, 22, 25, 21, 23, 20, 20, 17]
20.417[19, 20, 23, 20, 22, 20, 19, 17]
20.44[20, 20, 24, 20, 21, 22, 20, 16]
20.454[20, 22, 24, 19, 21, 20, 22, 16]
20.477[18, 21, 23, 20, 20, 21, 20, 16]
20.5[20, 20, 20, 18, 21, 21, 20, 18]
20.514[18, 19, 20, 19, 20, 19, 19, 19]
20.537[18, 19, 19, 17, 20, 19, 18, 20]
20.56[20, 17, 18, 17, 20, 18, 17, 20]
20.574[21, 18, 19, 16, 21, 20, 19, 21]
20.597[21, 18, 19, 16, 20, 19, 20, 19]
20.62[22, 20, 20, 15, 22, 20, 19, 19]
20.634[22, 20, 20, 15, 21, 21, 21, 17]
20.658[21, 21, 20, 16, 19, 23, 19, 17]
20.68[20, 22, 20, 17, 20, 20, 18, 17]
20.694[19, 21, 21, 19, 20, 19, 18, 18]
20.717[18, 22, 21, 21, 20, 21, 19, 18]
20.74[20, 20, 22, 23, 20, 20, 18, 18]
20.754[20, 20, 23, 23, 20, 18, 18, 17]
20.777[19, 18, 23, 24, 19, 19, 18, 17]
20.8[20, 19, 22, 22, 19, 21, 18, 18]
20.823[19, 17, 22, 21, 19, 19, 19, 18]
20.837[16, 19, 20, 18, 18, 18, 19, 17]
20.86[15, 19, 18, 19, 19, 19, 20, 19]
20.882[16, 23, 19, 19, 20, 18, 19, 18]
20.897[16, 23, 18, 20, 20, 18, 20, 17]
20.92[17, 24, 18, 19, 19, 19, 20, 18]
20.942[18, 24, 17, 19, 21, 19, 20, 20]
20.957[18, 24, 16, 19, 21, 21, 21, 19]
20.98[16, 21, 16, 18, 21, 20, 19, 20]
21.002[18, 20, 17, 17, 21, 20, 18, 19]
21.017[18, 20, 17, 19, 21, 19, 17, 20]
21.04[18, 18, 18, 19, 18, 19, 18, 20]
21.063[17, 18, 18, 20, 19, 18, 17, 21]
21.077[19, 19, 19, 22, 17, 19, 18, 20]
21.1[19, 18, 19, 22, 17, 18, 16, 20]
21.123[19, 18, 19, 21, 18, 20, 20, 19]
21.137[19, 19, 19, 23, 17, 21, 18, 17]
21.16[20, 18, 19, 22, 17, 21, 18, 17]
21.182[19, 18, 20, 19, 17, 21, 19, 17]
21.197[19, 20, 21, 20, 19, 22, 20, 16]
21.22[18, 19, 21, 19, 18, 20, 19, 17]
21.242[18, 19, 21, 19, 19, 19, 19, 17]
21.257[17, 22, 22, 18, 20, 17, 19, 17]
21.28[18, 21, 21, 19, 22, 16, 20, 18]
21.301[16, 22, 20, 18, 23, 17, 19, 18]
21.318[17, 21, 19, 19, 23, 19, 18, 18]
21.34[16, 21, 20, 18, 23, 18, 19, 19]
21.361[16, 18, 18, 20, 23, 19, 20, 20]
21.378[16, 19, 17, 20, 22, 19, 21, 20]
21.401[17, 18, 21, 19, 20, 17, 20, 20]
21.422[16, 19, 21, 19, 20, 15, 21, 19]
21.444[16, 20, 21, 19, 20, 17, 22, 20]
21.461[18, 20, 21, 17, 19, 17, 23, 18]
21.481[17, 19, 22, 17, 18, 18, 21, 18]
21.504[18, 20, 19, 19, 18, 19, 23, 19]
21.521[18, 20, 20, 20, 20, 19, 22, 21]
21.541[18, 19, 19, 20, 20, 21, 20, 20]
21.558[16, 19, 21, 20, 21, 21, 19, 21]
21.581[17, 17, 20, 22, 22, 21, 20, 21]
21.602[16, 17, 21, 20, 22, 19, 18, 19]
21.618[16, 16, 20, 20, 21, 21, 19, 19]
21.639[16, 17, 20, 19, 21, 19, 20, 19]
21.662[18, 18, 19, 20, 23, 20, 19, 17]
21.679[17, 19, 20, 18, 21, 19, 18, 19]
21.699[18, 19, 21, 19, 22, 20, 18, 19]
21.722[17, 21, 23, 20, 22, 16, 18, 16]
21.744[17, 21, 23, 21, 22, 17, 18, 17]
21.761[17, 20, 23, 21, 21, 17, 21, 18]
21.782[18, 22, 22, 20, 23, 18, 21, 17]
21.804[18, 23, 21, 21, 22, 17, 20, 19]
21.82[17, 21, 20, 20, 23, 18, 20, 19]
21.841[18, 21, 20, 20, 23, 18, 20, 20]
21.864[16, 21, 19, 20, 21, 18, 18, 19]
21.879[16, 19, 20, 21, 20, 18, 17, 19]
21.902[17, 19, 20, 21, 19, 20, 20, 19]
21.924[18, 20, 21, 21, 19, 20, 20, 20]
21.939[18, 20, 22, 20, 21, 20, 18, 18]
21.961[19, 21, 22, 19, 22, 22, 20, 21]
21.984[17, 20, 22, 18, 22, 21, 20, 20]
21.999[19, 20, 20, 18, 23, 20, 18, 20]
22.021[19, 18, 21, 19, 22, 21, 20, 19]
22.044[18, 19, 20, 18, 20, 20, 21, 20]
22.059[16, 18, 21, 18, 20, 17, 19, 18]
22.081[18, 20, 21, 20, 19, 20, 20, 18]
22.104[18, 20, 23, 19, 16, 18, 20, 19]
22.119[20, 20, 22, 19, 18, 19, 18, 18]
22.142[21, 19, 21, 19, 17, 18, 17, 19]
22.164[21, 20, 21, 20, 18, 19, 16, 20]
22.179[22, 20, 19, 20, 18, 17, 18, 19]
22.202[20, 19, 18, 22, 19, 18, 16, 18]
22.225[19, 20, 18, 21, 18, 17, 17, 19]
22.239[19, 20, 19, 23, 19, 19, 17, 19]
22.261[20, 21, 19, 23, 20, 19, 18, 18]
22.284[22, 20, 20, 21, 20, 19, 16, 16]
22.299[22, 22, 20, 18, 22, 19, 17, 16]
22.322[23, 22, 19, 19, 23, 19, 18, 17]
22.344[21, 22, 20, 17, 23, 19, 18, 17]
22.36[22, 21, 21, 17, 22, 19, 18, 16]
22.382[19, 22, 20, 19, 22, 18, 18, 19]
22.404[21, 20, 21, 20, 20, 18, 18, 19]
22.419[21, 19, 22, 21, 22, 19, 19, 19]
22.441[22, 21, 20, 21, 24, 18, 19, 19]
22.464[20, 21, 19, 20, 23, 20, 18, 19]
22.479[22, 18, 22, 18, 22, 21, 20, 17]
22.501[21, 18, 20, 17, 23, 21, 20, 18]
22.524[21, 18, 21, 17, 20, 21, 18, 15]
22.539[21, 18, 22, 16, 21, 21, 18, 17]
22.561[21, 18, 23, 17, 23, 19, 19, 16]
22.584[18, 19, 22, 17, 23, 19, 17, 16]
22.6[18, 19, 24, 18, 22, 19, 17, 16]
22.622[16, 21, 22, 18, 23, 17, 17, 17]
22.645[16, 21, 22, 19, 18, 16, 16, 16]
22.659[19, 19, 21, 17, 17, 15, 18, 16]
22.682[19, 18, 21, 19, 17, 16, 19, 17]
22.704[18, 18, 19, 20, 18, 17, 19, 16]
22.726[18, 18, 19, 19, 18, 18, 19, 16]
22.741[18, 18, 22, 20, 20, 19, 20, 16]
22.764[17, 21, 22, 20, 20, 20, 19, 16]
22.786[18, 21, 21, 18, 21, 20, 18, 16]
22.802[19, 21, 22, 18, 22, 20, 19, 17]
22.825[19, 21, 24, 19, 25, 20, 18, 18]
22.847[19, 21, 21, 17, 25, 21, 17, 18]
22.861[20, 20, 21, 17, 24, 19, 18, 18]
22.884[19, 20, 21, 17, 25, 17, 18, 17]
22.906[18, 20, 21, 16, 24, 17, 19, 18]
22.922[18, 21, 20, 15, 21, 18, 18, 18]
22.944[18, 22, 19, 16, 20, 17, 19, 18]
22.967[18, 22, 19, 17, 21, 17, 19, 19]
22.981[20, 22, 19, 18, 19, 19, 18, 20]
23.004[21, 21, 19, 18, 20, 18, 19, 21]
23.027[21, 19, 20, 19, 22, 18, 20, 20]
23.049[20, 19, 20, 18, 24, 18, 18, 19]
23.065[19, 19, 20, 17, 23, 20, 19, 19]
23.087[18, 18, 21, 17, 24, 19, 19, 19]
23.109[17, 21, 19, 17, 24, 20, 18, 19]
23.124[18, 22, 20, 17, 22, 20, 19, 19]
23.147[18, 22, 20, 16, 20, 19, 19, 19]
23.162[18, 21, 19, 20, 21, 18, 19, 20]
23.184[18, 22, 19, 21, 19, 20, 20, 18]
23.207[18, 19, 19, 22, 18, 20, 18, 19]
23.222[18, 18, 18, 22, 18, 19, 18, 20]
23.244[18, 17, 19, 22, 18, 20, 18, 20]
23.267[19, 16, 20, 19, 16, 22, 18, 19]
23.282[18, 15, 22, 19, 16, 21, 18, 18]
23.304[19, 16, 21, 19, 17, 20, 18, 17]
23.327[18, 18, 22, 17, 17, 20, 19, 17]
23.342[18, 18, 21, 17, 17, 20, 18, 17]
23.364[18, 18, 21, 18, 18, 18, 17, 17]
23.387[18, 19, 19, 18, 18, 19, 17, 17]
23.402[17, 19, 19, 18, 18, 20, 17, 17]
23.424[18, 20, 20, 20, 18, 20, 18, 16]
23.447[17, 20, 22, 21, 19, 20, 18, 18]
23.47[18, 21, 21, 21, 19, 21, 20, 17]
23.484[17, 21, 21, 21, 20, 20, 21, 18]
23.507[17, 20, 23, 22, 21, 20, 20, 20]
23.522[18, 19, 18, 22, 21, 17, 20, 20]
23.544[20, 19, 18, 22, 20, 18, 20, 18]
23.567[20, 19, 19, 20, 22, 17, 19, 19]
23.582[22, 18, 20, 20, 20, 17, 18, 19]
23.604[22, 19, 19, 18, 18, 18, 18, 18]
23.627[20, 19, 20, 17, 20, 20, 19, 19]
23.642[19, 19, 21, 17, 20, 18, 17, 20]
23.664[18, 18, 19, 19, 20, 18, 19, 19]
23.687[17, 18, 19, 18, 19, 18, 19, 22]
23.711[19, 20, 18, 19, 21, 16, 19, 21]
23.724[20, 20, 18, 19, 20, 15, 18, 20]
23.747[21, 19, 18, 19, 20, 15, 19, 21]
23.77[22, 18, 18, 19, 18, 14, 17, 22]
23.784[21, 20, 18, 19, 19, 15, 17, 20]
23.807[20, 18, 19, 23, 19, 17, 17, 19]
23.83[20, 18, 20, 22, 19, 17, 17, 19]
23.844[18, 19, 19, 23, 20, 18, 17, 15]
23.867[17, 21, 21, 22, 21, 18, 18, 15]
23.89[18, 20, 21, 23, 21, 19, 19, 16]
23.904[19, 21, 21, 20, 21, 18, 19, 17]
23.927[19, 21, 21, 19, 18, 18, 19, 18]
23.95[19, 22, 21, 19, 18, 19, 18, 20]
23.964[19, 20, 21, 19, 20, 19, 19, 18]
23.987[20, 21, 22, 18, 19, 18, 20, 18]
24.01[18, 18, 22, 17, 19, 19, 19, 18]
24.024[18, 18, 22, 18, 20, 19, 19, 17]
24.047[19, 18, 22, 18, 21, 19, 18, 16]
24.07[18, 20, 21, 23, 19, 19, 19, 18]
24.085[17, 19, 20, 24, 19, 19, 17, 17]
24.107[18, 23, 22, 27, 19, 18, 17, 18]
24.13[19, 21, 22, 27, 19, 19, 18, 20]
24.144[18, 23, 22, 26, 20, 22, 19, 22]
24.167[20, 23, 22, 22, 20, 21, 17, 22]
24.19[20, 25, 22, 20, 20, 22, 16, 23]
24.204[18, 23, 18, 17, 21, 23, 17, 21]
24.227[18, 24, 18, 15, 22, 28, 17, 22]
24.25[18, 22, 18, 14, 21, 26, 18, 20]
24.264[17, 21, 18, 15, 20, 27, 21, 21]
24.286[18, 20, 20, 16, 20, 25, 21, 20]
24.31[18, 20, 19, 23, 19, 23, 22, 22]
24.324[20, 21, 19, 24, 21, 16, 21, 21]
24.346[21, 19, 20, 24, 22, 15, 21, 21]
24.37[21, 21, 23, 24, 22, 16, 19, 20]
24.384[24, 21, 24, 24, 22, 16, 20, 22]
24.407[24, 19, 28, 20, 21, 15, 18, 19]
24.431[25, 19, 27, 20, 20, 17, 19, 18]
24.444[23, 19, 27, 22, 19, 19, 20, 17]
24.467[22, 18, 27, 23, 20, 19, 20, 17]
24.49[21, 18, 26, 23, 20, 21, 22, 15]
24.504[21, 19, 23, 21, 21, 22, 22, 16]
24.527[20, 18, 24, 21, 21, 22, 25, 19]
24.55[21, 20, 26, 20, 22, 20, 24, 18]
24.564[22, 20, 23, 20, 21, 21, 24, 18]
24.587[21, 20, 23, 19, 20, 22, 21, 19]
24.61[21, 20, 22, 20, 19, 22, 21, 20]
24.632[22, 21, 22, 18, 21, 21, 17, 18]
24.648[22, 21, 20, 17, 21, 20, 16, 19]
24.67[21, 23, 20, 20, 20, 21, 15, 19]
24.692[21, 24, 18, 21, 22, 20, 16, 19]
24.707[20, 22, 19, 22, 24, 21, 17, 19]
24.73[19, 22, 17, 21, 39, 21, 17, 20]
24.752[19, 23, 17, 20, 38, 20, 20, 19]
24.767[19, 21, 18, 19, 38, 19, 22, 18]
24.79[19, 19, 19, 19, 38, 19, 22, 19]
24.812[21, 20, 21, 19, 40, 16, 24, 18]
24.827[17, 22, 22, 22, 25, 18, 27, 18]
24.85[19, 20, 22, 26, 23, 19, 27, 17]
24.872[18, 22, 21, 23, 23, 18, 31, 18]
24.887[19, 21, 22, 23, 23, 18, 33, 17]
24.91[19, 20, 20, 23, 15, 19, 32, 17]
24.932[19, 19, 19, 21, 18, 20, 29, 16]
24.947[18, 19, 22, 19, 18, 19, 28, 19]
24.97[19, 18, 22, 20, 20, 18, 20, 18]
24.993[19, 20, 20, 21, 20, 19, 16, 19]
25.007[18, 20, 21, 22, 22, 21, 18, 19]
25.03[19, 21, 22, 21, 20, 18, 19, 19]
25.052[19, 21, 19, 20, 20, 19, 20, 17]
25.067[17, 22, 17, 21, 19, 19, 19, 18]
25.09[18, 22, 18, 22, 20, 18, 21, 17]
25.113[17, 22, 19, 21, 21, 16, 18, 19]
25.127[20, 21, 18, 21, 25, 19, 19, 19]
25.15[20, 24, 19, 23, 25, 20, 19, 20]
25.173[21, 24, 20, 21, 26, 20, 21, 20]
25.187[21, 23, 21, 20, 26, 21, 19, 21]
25.21[22, 25, 21, 20, 25, 22, 21, 20]
25.232[19, 23, 22, 20, 23, 21, 19, 19]
25.247[19, 22, 21, 18, 22, 21, 18, 18]
25.27[19, 23, 22, 19, 21, 22, 17, 18]
25.292[18, 22, 22, 18, 23, 23, 20, 18]
25.307[17, 20, 21, 19, 22, 23, 18, 18]
25.33[20, 20, 22, 19, 22, 22, 20, 17]
25.352[20, 19, 22, 19, 23, 22, 19, 18]
25.367[21, 18, 21, 19, 24, 22, 21, 20]
25.39[19, 22, 22, 20, 22, 20, 18, 19]
25.412[18, 23, 25, 18, 23, 20, 21, 22]
25.427[18, 23, 26, 19, 21, 20, 21, 25]
25.451[16, 24, 24, 19, 20, 19, 21, 25]
25.48[17, 22, 26, 19, 20, 19, 20, 22]
25.487[19, 22, 24, 18, 21, 19, 20, 23]
25.51[19, 21, 20, 19, 19, 18, 19, 21]
25.532[16, 20, 19, 17, 20, 17, 18, 18]
25.555[17, 20, 19, 17, 21, 17, 20, 19]
25.57[18, 21, 16, 18, 19, 17, 20, 18]
25.592[17, 20, 17, 18, 19, 17, 18, 19]
25.615[17, 21, 19, 18, 19, 19, 20, 18]
25.629[19, 23, 20, 16, 19, 20, 20, 19]
25.652[18, 23, 20, 18, 19, 18, 20, 20]
25.675[17, 22, 21, 17, 20, 18, 21, 20]
25.69[18, 23, 21, 18, 20, 18, 21, 18]
25.712[17, 21, 22, 19, 22, 18, 19, 20]
25.735[16, 21, 20, 20, 21, 19, 19, 19]
25.75[18, 19, 20, 21, 22, 21, 18, 19]
25.772[20, 20, 20, 22, 20, 21, 17, 20]
25.795[19, 20, 19, 21, 19, 21, 18, 20]
25.81[19, 21, 19, 19, 19, 20, 18, 20]
25.832[22, 21, 22, 21, 17, 18, 17, 20]
25.855[20, 21, 22, 18, 18, 18, 21, 19]
25.87[18, 20, 22, 18, 20, 17, 19, 18]
25.892[19, 19, 22, 20, 20, 20, 18, 19]
25.915[18, 22, 22, 20, 21, 19, 18, 18]
25.93[17, 21, 21, 20, 22, 21, 20, 18]
25.953[18, 20, 22, 20, 22, 21, 16, 18]
25.975[18, 21, 21, 19, 21, 23, 18, 17]
25.99[16, 21, 21, 18, 20, 20, 18, 16]
26.013[17, 18, 22, 22, 20, 21, 18, 16]
26.036[18, 19, 21, 19, 20, 20, 17, 16]
26.049[18, 19, 20, 19, 22, 17, 19, 17]
26.072[20, 20, 22, 19, 23, 16, 18, 18]
26.095[20, 20, 22, 19, 24, 17, 21, 17]
26.109[23, 20, 21, 17, 23, 17, 21, 18]
26.132[22, 20, 20, 18, 23, 17, 20, 18]
26.155[22, 20, 20, 18, 21, 19, 21, 18]
26.169[22, 19, 18, 19, 21, 19, 23, 18]
26.193[22, 19, 19, 19, 20, 19, 20, 20]
26.215[20, 19, 18, 18, 21, 20, 21, 20]
26.229[20, 20, 18, 20, 22, 21, 23, 19]
26.253[19, 20, 18, 19, 21, 19, 21, 19]
26.275[20, 21, 20, 18, 21, 19, 19, 20]
26.29[20, 21, 21, 21, 23, 18, 21, 18]
26.312[20, 20, 21, 21, 22, 19, 20, 18]
26.334[20, 20, 21, 18, 21, 18, 19, 20]
26.357[21, 23, 21, 21, 20, 20, 18, 19]
26.373[20, 21, 18, 22, 20, 19, 17, 17]
26.394[20, 21, 21, 22, 19, 20, 15, 17]
26.417[20, 21, 21, 22, 17, 19, 17, 18]
26.441[20, 20, 22, 25, 20, 19, 15, 20]
26.454[18, 16, 22, 24, 19, 21, 17, 20]
26.477[19, 16, 23, 24, 19, 20, 19, 21]
26.493[19, 16, 21, 23, 18, 19, 21, 22]
26.514[18, 17, 22, 22, 18, 20, 19, 21]
26.538[19, 17, 21, 19, 16, 21, 21, 18]
26.553[19, 18, 22, 19, 17, 20, 21, 19]
26.575[19, 19, 22, 20, 19, 20, 20, 19]
26.597[20, 20, 22, 20, 21, 21, 19, 19]
26.613[21, 20, 21, 20, 21, 20, 21, 22]
26.634[22, 20, 20, 21, 20, 19, 18, 21]
26.657[24, 20, 20, 20, 21, 18, 18, 22]
26.673[23, 19, 20, 18, 19, 18, 21, 22]
26.694[23, 20, 22, 20, 17, 18, 21, 21]
26.717[22, 21, 23, 21, 17, 18, 19, 19]
26.733[21, 21, 24, 20, 18, 19, 21, 20]
26.755[18, 21, 25, 21, 18, 19, 21, 19]
26.778[19, 22, 24, 21, 19, 19, 19, 20]
26.793[16, 21, 21, 19, 20, 19, 20, 19]
26.814[16, 21, 21, 18, 21, 20, 20, 19]
26.837[16, 21, 20, 19, 20, 18, 21, 18]
26.853[17, 21, 19, 20, 20, 19, 21, 22]
26.874[19, 21, 21, 20, 19, 18, 21, 20]
26.897[19, 21, 20, 20, 17, 18, 19, 21]
26.913[20, 20, 20, 20, 16, 17, 19, 21]
26.934[20, 22, 21, 21, 17, 18, 18, 19]
26.964[19, 22, 19, 20, 18, 18, 18, 17]
26.973[19, 23, 19, 19, 18, 18, 18, 17]
26.994[19, 23, 20, 21, 18, 17, 19, 17]
27.017[19, 22, 20, 22, 18, 19, 18, 17]
27.033[19, 21, 20, 20, 17, 18, 17, 18]
27.055[19, 20, 21, 20, 19, 17, 17, 18]
27.077[18, 17, 20, 20, 20, 18, 18, 20]
27.093[18, 18, 19, 18, 20, 20, 16, 20]
27.115[18, 20, 19, 18, 20, 19, 16, 22]
27.137[19, 20, 21, 18, 21, 21, 18, 22]
27.153[20, 20, 20, 19, 20, 22, 17, 22]
27.174[20, 21, 22, 21, 18, 23, 17, 20]
27.197[19, 20, 21, 21, 19, 22, 18, 20]
27.212[19, 20, 20, 21, 20, 23, 20, 20]
27.234[17, 21, 19, 21, 20, 22, 19, 18]
27.257[15, 21, 21, 21, 20, 24, 19, 19]
27.272[16, 21, 21, 18, 22, 23, 19, 20]
27.294[15, 20, 21, 17, 21, 22, 19, 19]
27.317[19, 21, 23, 18, 20, 22, 18, 19]
27.332[19, 22, 23, 19, 20, 22, 18, 19]
27.355[20, 23, 21, 19, 19, 19, 18, 19]
27.377[20, 21, 20, 18, 17, 19, 19, 17]
27.392[22, 21, 21, 19, 19, 20, 18, 17]
27.414[20, 21, 19, 17, 20, 18, 17, 20]
27.437[19, 20, 18, 19, 19, 17, 18, 20]
27.459[21, 19, 18, 19, 21, 18, 17, 19]
27.474[22, 19, 21, 21, 21, 18, 17, 21]
27.497[21, 20, 20, 22, 20, 17, 19, 22]
27.519[21, 20, 22, 21, 19, 18, 19, 20]
27.535[22, 21, 23, 22, 20, 19, 19, 21]
27.557[20, 21, 22, 22, 18, 19, 19, 22]
27.58[20, 21, 19, 21, 18, 19, 18, 23]
27.595[18, 20, 20, 21, 18, 19, 16, 23]
27.617[19, 20, 16, 22, 19, 20, 16, 22]
27.639[17, 19, 18, 21, 18, 19, 17, 22]
27.655[16, 18, 20, 19, 18, 19, 17, 21]
27.677[16, 21, 20, 19, 19, 19, 18, 18]
27.7[15, 19, 22, 20, 19, 19, 19, 19]
27.715[15, 21, 23, 20, 19, 19, 20, 20]
27.737[16, 22, 21, 20, 19, 20, 18, 20]
27.76[17, 21, 19, 20, 19, 20, 19, 20]
27.774[18, 20, 21, 20, 21, 20, 19, 20]
27.797[18, 20, 19, 20, 20, 20, 20, 18]
27.82[20, 19, 19, 21, 20, 19, 19, 19]
27.835[19, 17, 19, 20, 22, 17, 21, 19]
27.857[18, 18, 20, 21, 22, 16, 20, 19]
27.88[17, 19, 20, 20, 21, 17, 21, 20]
27.894[17, 20, 21, 20, 22, 17, 21, 20]
27.917[15, 20, 24, 21, 23, 18, 22, 18]
27.94[18, 21, 24, 21, 21, 20, 21, 18]
27.954[19, 22, 24, 19, 22, 20, 21, 17]
27.977[18, 21, 24, 19, 19, 20, 18, 17]
28.0[17, 20, 23, 19, 20, 20, 17, 17]
28.014[18, 20, 20, 19, 18, 19, 18, 18]
28.037[17, 18, 19, 21, 19, 18, 18, 20]
28.06[17, 15, 19, 20, 19, 19, 19, 19]
28.074[18, 17, 19, 21, 20, 18, 19, 19]
28.105[20, 19, 20, 19, 20, 21, 20, 18]
28.12[20, 20, 21, 18, 21, 21, 19, 19]
28.134[20, 21, 21, 17, 20, 20, 20, 17]
28.157[21, 22, 20, 18, 21, 19, 19, 18]
28.179[21, 21, 18, 17, 20, 19, 19, 18]
28.194[21, 20, 15, 18, 20, 18, 19, 19]
28.217[21, 22, 15, 19, 20, 18, 18, 19]
28.24[21, 21, 15, 18, 21, 18, 18, 19]
28.255[21, 21, 17, 16, 20, 19, 19, 18]
28.277[21, 21, 19, 16, 21, 19, 18, 18]
28.3[19, 22, 19, 16, 20, 18, 17, 17]
28.314[20, 22, 19, 15, 21, 19, 19, 17]
28.337[20, 22, 19, 18, 19, 20, 19, 17]
28.36[19, 21, 18, 18, 20, 18, 17, 18]
28.382[17, 21, 20, 20, 20, 18, 16, 17]
28.397[19, 21, 21, 21, 22, 20, 17, 18]
28.419[18, 20, 20, 21, 20, 19, 15, 18]
28.442[18, 19, 22, 21, 21, 20, 15, 19]
28.457[18, 21, 22, 22, 20, 21, 16, 18]
28.479[20, 22, 22, 22, 20, 20, 19, 17]
28.502[20, 20, 21, 22, 21, 18, 19, 17]
28.517[19, 19, 21, 23, 21, 18, 21, 18]
28.54[20, 20, 21, 21, 20, 18, 21, 17]
28.562[19, 19, 20, 19, 20, 18, 21, 18]
28.577[19, 22, 20, 18, 21, 19, 19, 18]
28.599[21, 23, 21, 17, 19, 19, 18, 18]
28.622[20, 23, 21, 16, 18, 18, 18, 17]
28.637[19, 23, 24, 18, 21, 18, 18, 19]
28.66[19, 23, 24, 20, 21, 19, 18, 19]
28.682[19, 21, 23, 22, 22, 18, 18, 20]
28.697[16, 21, 22, 22, 22, 20, 18, 19]
28.72[18, 21, 22, 23, 22, 20, 16, 19]
28.742[17, 21, 19, 21, 22, 20, 17, 19]
28.757[17, 20, 20, 20, 20, 19, 27, 22]
28.78[17, 19, 20, 19, 19, 18, 27, 21]
28.802[15, 19, 20, 19, 19, 18, 28, 22]
28.817[14, 21, 22, 21, 19, 19, 29, 23]
28.84[15, 21, 21, 22, 18, 18, 28, 22]
28.862[16, 22, 21, 21, 20, 19, 20, 21]
28.877[15, 22, 21, 21, 19, 19, 20, 20]
28.9[17, 21, 21, 21, 19, 18, 19, 20]
28.93[19, 20, 19, 18, 17, 18, 17, 19]
28.937[19, 20, 20, 19, 18, 20, 18, 19]
28.959[19, 19, 20, 19, 18, 20, 18, 18]
28.982[20, 21, 20, 20, 20, 20, 20, 18]
28.997[19, 21, 20, 19, 20, 22, 20, 17]
29.019[17, 20, 21, 20, 21, 20, 21, 17]
29.043[16, 21, 21, 16, 21, 18, 21, 17]
29.058[15, 20, 22, 16, 20, 18, 20, 18]
29.079[16, 20, 22, 17, 20, 18, 18, 17]
29.103[17, 20, 22, 17, 20, 18, 18, 18]
29.117[18, 20, 23, 18, 20, 18, 19, 19]
29.148[18, 19, 23, 19, 21, 19, 18, 19]
29.163[19, 20, 21, 21, 19, 18, 17, 20]
29.177[19, 20, 19, 21, 20, 18, 17, 20]
29.199[19, 19, 21, 20, 20, 18, 18, 21]
29.223[20, 19, 20, 19, 19, 18, 16, 19]
29.237[20, 20, 19, 17, 19, 19, 18, 21]
29.26[21, 20, 19, 17, 20, 21, 19, 19]
29.283[20, 21, 22, 17, 21, 20, 19, 18]
29.297[20, 23, 21, 19, 21, 21, 18, 17]
29.32[18, 24, 21, 18, 21, 23, 20, 18]
29.343[19, 24, 21, 19, 21, 20, 19, 15]
29.366[19, 23, 21, 21, 20, 20, 19, 16]
29.38[19, 23, 19, 20, 20, 21, 18, 15]
29.403[19, 23, 20, 19, 19, 21, 18, 17]
29.425[19, 22, 20, 21, 19, 19, 20, 17]
29.44[21, 22, 19, 21, 18, 20, 19, 18]
29.463[20, 22, 20, 19, 21, 20, 20, 17]
29.501[20, 20, 20, 20, 20, 19, 20, 18]
29.502[19, 19, 20, 19, 22, 19, 23, 17]
29.523[19, 19, 20, 17, 22, 20, 21, 17]
29.545[16, 19, 20, 19, 23, 20, 21, 16]
29.56[18, 20, 19, 17, 22, 17, 22, 19]
29.583[17, 22, 19, 16, 21, 19, 21, 19]
29.605[19, 21, 23, 17, 21, 19, 18, 22]
29.62[20, 21, 23, 19, 20, 18, 19, 21]
29.643[19, 22, 23, 18, 19, 20, 19, 22]
29.665[18, 21, 23, 18, 18, 21, 16, 20]
29.68[18, 20, 23, 20, 19, 20, 17, 21]
29.703[18, 23, 19, 21, 17, 21, 20, 17]
29.725[19, 23, 20, 21, 19, 21, 18, 16]
29.74[19, 23, 21, 21, 21, 19, 18, 15]
29.763[18, 23, 23, 21, 21, 20, 17, 16]
29.785[18, 23, 24, 21, 21, 18, 18, 15]
29.799[18, 22, 24, 20, 21, 18, 15, 16]
29.823[17, 22, 23, 22, 22, 18, 16, 17]
29.846[18, 21, 22, 22, 20, 18, 18, 18]
29.86[18, 20, 22, 25, 23, 17, 19, 19]
29.883[18, 21, 21, 26, 21, 18, 18, 20]
29.905[18, 21, 21, 25, 23, 18, 19, 19]
29.92[19, 22, 21, 23, 21, 18, 19, 20]
29.943[19, 21, 21, 23, 21, 19, 18, 20]
29.965[20, 21, 19, 21, 20, 20, 16, 21]
29.98[20, 21, 20, 20, 21, 19, 15, 21]
30.003[19, 21, 20, 21, 20, 19, 14, 22]
30.025[19, 21, 21, 21, 19, 18, 16, 23]
30.04[19, 22, 22, 21, 18, 19, 17, 23]
30.063[19, 22, 21, 22, 18, 19, 18, 22]
30.085[19, 23, 22, 22, 21, 20, 18, 22]
30.1[19, 23, 22, 23, 21, 19, 18, 21]
30.123[23, 51, 104, 92, 25, 22, 18, 19]
30.145[91, 214, 280, 157, 57, 49, 36, 35]
30.16[120, 306, 430, 244, 68, 65, 47, 50]
30.183[140, 330, 496, 268, 78, 73, 56, 78]
30.205[162, 360, 582, 300, 89, 77, 63, 123]
30.22[179, 379, 608, 303, 92, 80, 65, 173]
30.243[190, 372, 606, 312, 83, 73, 64, 223]
30.265[190, 347, 568, 294, 82, 63, 58, 228]
30.28[184, 341, 549, 286, 76, 59, 53, 224]
30.303[176, 344, 479, 256, 67, 60, 47, 210]
30.326[173, 336, 523, 248, 77, 69, 48, 181]
30.348[156, 306, 539, 219, 79, 69, 43, 141]
30.363[142, 264, 488, 161, 73, 66, 42, 148]
30.393[148, 272, 491, 140, 75, 66, 40, 148]
30.408[151, 268, 513, 161, 73, 63, 39, 142]
30.423[151, 269, 439, 169, 60, 47, 38, 142]
30.445[137, 277, 416, 156, 57, 46, 39, 122]
30.468[150, 275, 494, 162, 55, 48, 41, 113]
30.483[185, 279, 495, 174, 56, 44, 45, 140]
30.505[178, 250, 525, 154, 58, 49, 50, 177]
30.528[199, 276, 554, 137, 58, 49, 53, 189]
30.542[206, 244, 516, 129, 56, 42, 50, 200]
30.565[201, 243, 500, 134, 56, 39, 48, 196]
30.588[162, 222, 522, 131, 51, 36, 44, 182]
30.603[160, 215, 530, 148, 48, 29, 42, 163]
30.625[145, 163, 532, 150, 45, 30, 35, 165]
30.648[157, 232, 543, 161, 45, 29, 36, 168]
30.663[156, 251, 487, 152, 48, 28, 37, 169]
30.685[156, 252, 457, 151, 47, 32, 38, 163]
30.708[165, 277, 394, 135, 46, 31, 38, 148]
30.722[145, 293, 397, 136, 50, 31, 39, 121]
30.745[137, 247, 376, 129, 48, 34, 44, 142]
30.768[134, 230, 380, 125, 43, 33, 45, 150]
30.783[136, 218, 452, 122, 43, 34, 46, 154]
30.805[124, 185, 479, 134, 45, 35, 43, 152]
30.828[129, 156, 484, 135, 41, 34, 44, 174]
30.842[120, 167, 493, 129, 42, 33, 39, 136]
30.865[138, 174, 524, 137, 50, 37, 43, 149]
30.889[141, 193, 483, 133, 52, 37, 43, 156]
30.902[140, 202, 462, 118, 51, 37, 43, 162]
30.925[143, 204, 422, 106, 52, 38, 42, 149]
30.948[149, 183, 436, 105, 50, 37, 46, 160]
30.962[131, 172, 410, 94, 46, 35, 43, 147]
30.985[135, 153, 337, 86, 43, 34, 41, 205]
31.008[157, 150, 359, 96, 41, 33, 42, 220]
31.022[165, 139, 348, 99, 40, 34, 40, 215]
31.045[152, 138, 330, 101, 39, 35, 37, 217]
31.068[147, 138, 371, 98, 35, 34, 36, 209]
31.082[145, 141, 409, 123, 40, 32, 37, 151]
31.105[152, 142, 389, 112, 41, 32, 44, 142]
31.128[140, 158, 391, 110, 42, 32, 47, 163]
31.142[172, 159, 414, 104, 41, 30, 44, 164]
31.166[176, 154, 408, 115, 45, 30, 44, 169]
31.188[177, 148, 378, 86, 38, 31, 43, 165]
31.202[170, 156, 353, 93, 38, 37, 37, 156]
31.226[171, 153, 408, 100, 43, 39, 37, 139]
31.248[136, 146, 362, 99, 43, 39, 37, 128]
31.27[129, 146, 329, 88, 40, 41, 38, 125]
31.285[117, 150, 370, 88, 44, 40, 37, 116]
31.308[86, 137, 413, 84, 46, 38, 36, 105]
31.33[89, 136, 378, 74, 41, 36, 36, 92]
31.346[146, 140, 407, 75, 40, 35, 43, 194]
31.367[157, 167, 430, 79, 42, 36, 47, 202]
31.39[155, 163, 438, 75, 39, 34, 48, 209]
31.406[158, 161, 407, 75, 37, 34, 47, 208]
31.427[161, 147, 381, 85, 38, 33, 46, 216]
31.45[124, 142, 395, 101, 38, 34, 41, 156]
31.466[118, 124, 397, 96, 38, 30, 39, 167]
31.487[127, 122, 350, 104, 38, 31, 38, 168]
31.51[120, 124, 395, 101, 36, 30, 36, 166]
31.526[106, 134, 408, 99, 35, 28, 35, 154]
31.547[110, 139, 379, 79, 34, 29, 33, 138]
31.57[103, 138, 334, 82, 32, 27, 27, 116]
31.586[109, 132, 337, 73, 31, 29, 31, 130]
31.608[151, 129, 285, 98, 36, 29, 36, 141]
31.63[157, 131, 350, 106, 36, 30, 40, 145]
31.646[146, 131, 358, 109, 35, 27, 38, 131]
31.667[200, 119, 370, 126, 41, 34, 41, 166]
31.69[199, 127, 384, 134, 45, 33, 38, 169]
31.706[175, 126, 427, 124, 43, 35, 39, 188]
31.727[184, 120, 365, 108, 43, 34, 38, 204]
31.75[187, 107, 348, 108, 44, 37, 39, 205]
31.766[132, 117, 399, 92, 37, 32, 37, 177]
31.787[120, 114, 408, 84, 35, 32, 36, 157]
31.81[140, 117, 387, 77, 33, 31, 33, 131]
31.826[128, 115, 399, 79, 34, 31, 32, 125]
31.847[130, 127, 401, 76, 36, 31, 36, 128]
31.87[141, 119, 357, 76, 40, 32, 37, 133]
31.886[146, 119, 341, 79, 40, 31, 39, 137]
31.907[123, 121, 337, 87, 39, 31, 38, 129]
31.93[128, 116, 350, 93, 40, 31, 37, 124]
31.946[124, 112, 351, 100, 39, 30, 37, 136]
31.969[118, 133, 344, 99, 35, 31, 38, 130]
31.99[118, 132, 350, 98, 33, 31, 37, 120]
32.006[122, 134, 352, 101, 34, 34, 35, 134]
32.027[129, 140, 318, 95, 32, 34, 37, 136]
32.05[133, 141, 309, 89, 29, 32, 36, 140]
32.066[127, 122, 336, 85, 30, 32, 35, 139]
32.095[120, 119, 311, 83, 30, 32, 33, 139]
32.11[118, 103, 271, 66, 29, 28, 35, 127]
32.126[123, 108, 280, 72, 33, 29, 36, 131]
32.148[120, 100, 311, 68, 35, 29, 38, 100]
32.17[121, 97, 273, 68, 37, 30, 39, 113]
32.192[123, 99, 267, 60, 36, 29, 40, 116]
32.208[125, 100, 258, 68, 39, 30, 41, 127]
32.23[112, 88, 266, 69, 37, 29, 37, 116]
32.252[124, 95, 257, 76, 37, 30, 33, 142]
32.267[127, 106, 286, 81, 36, 29, 30, 135]
32.29[135, 105, 342, 93, 37, 30, 29, 140]
32.312[143, 111, 360, 88, 34, 29, 27, 136]
32.328[138, 119, 377, 85, 32, 30, 31, 156]
32.35[176, 125, 358, 84, 34, 28, 41, 187]
32.372[175, 118, 341, 82, 32, 28, 47, 206]
32.387[171, 113, 316, 72, 34, 28, 49, 207]
32.41[164, 130, 347, 84, 34, 27, 49, 204]
32.432[161, 124, 382, 86, 35, 26, 47, 201]
32.449[112, 112, 391, 82, 32, 26, 45, 189]
32.469[110, 111, 387, 83, 32, 27, 42, 177]
32.492[126, 116, 410, 87, 30, 25, 42, 192]
32.507[137, 92, 364, 75, 30, 25, 44, 190]
32.53[136, 93, 328, 69, 31, 25, 44, 179]
32.552[136, 103, 359, 77, 31, 25, 37, 145]
32.567[141, 102, 431, 75, 31, 24, 35, 137]
32.59[122, 99, 417, 68, 33, 25, 42, 128]
32.614[109, 101, 461, 73, 33, 27, 41, 132]
32.627[131, 99, 448, 76, 33, 28, 42, 146]
32.65[129, 91, 413, 67, 34, 29, 41, 150]
32.672[119, 96, 349, 67, 36, 30, 41, 147]
32.687[125, 97, 369, 70, 35, 29, 32, 135]
32.71[125, 111, 329, 77, 37, 29, 31, 132]
32.732[114, 121, 342, 80, 39, 29, 37, 143]
32.747[113, 117, 341, 82, 38, 31, 36, 138]
32.77[119, 116, 326, 80, 36, 29, 38, 144]
32.792[121, 123, 327, 76, 37, 30, 39, 148]
32.807[125, 107, 331, 65, 36, 30, 43, 143]
32.829[123, 99, 314, 58, 36, 29, 36, 109]
32.852[129, 100, 327, 58, 37, 32, 41, 128]
32.867[139, 103, 360, 61, 39, 32, 42, 138]
32.89[141, 110, 348, 63, 36, 32, 40, 146]
32.912[137, 113, 367, 66, 38, 34, 35, 149]
32.927[140, 108, 376, 69, 38, 33, 34, 149]
32.951[126, 116, 375, 71, 38, 29, 36, 164]
32.972[108, 111, 360, 73, 36, 30, 32, 163]
32.987[113, 100, 325, 70, 35, 28, 33, 155]
33.01[113, 114, 293, 68, 35, 27, 36, 166]
33.033[101, 126, 285, 64, 32, 29, 37, 165]
33.055[98, 119, 317, 65, 31, 28, 33, 131]
33.07[112, 116, 295, 57, 31, 30, 39, 114]
33.092[92, 122, 343, 67, 33, 31, 43, 120]
33.107[122, 105, 341, 70, 31, 30, 42, 105]
33.13[123, 88, 378, 76, 30, 28, 44, 117]
33.152[124, 87, 372, 80, 29, 29, 40, 116]
33.175[113, 87, 377, 85, 26, 25, 38, 121]
33.191[133, 71, 347, 78, 28, 24, 34, 112]
33.212[118, 77, 344, 76, 27, 22, 36, 125]
33.235[133, 81, 296, 70, 26, 25, 34, 112]
33.25[140, 93, 316, 64, 28, 27, 38, 113]
33.272[142, 97, 323, 77, 30, 29, 34, 101]
33.295[128, 107, 330, 77, 29, 29, 32, 92]
33.31[136, 102, 332, 74, 30, 31, 30, 71]
33.332[119, 99, 319, 74, 30, 28, 31, 83]
33.355[124, 95, 336, 74, 32, 28, 35, 104]
33.37[135, 102, 455, 77, 31, 27, 36, 107]
33.392[132, 91, 447, 78, 31, 26, 38, 115]
33.415[112, 99, 457, 81, 31, 25, 37, 112]
33.43[120, 101, 488, 85, 30, 26, 36, 126]
33.454[146, 97, 550, 88, 33, 25, 36, 156]
33.475[136, 101, 468, 76, 32, 26, 37, 163]
33.49[137, 103, 480, 82, 32, 27, 37, 164]
33.512[151, 99, 465, 81, 33, 27, 37, 169]
33.535[162, 105, 446, 75, 34, 29, 38, 181]
33.55[135, 113, 365, 78, 35, 28, 37, 150]
33.572[136, 102, 369, 72, 35, 29, 39, 164]
33.595[139, 102, 334, 62, 35, 28, 37, 163]
33.61[124, 101, 332, 63, 34, 26, 38, 163]
33.632[103, 95, 362, 71, 32, 23, 35, 139]
33.655[101, 92, 361, 70, 26, 23, 30, 140]
33.67[97, 99, 330, 73, 30, 20, 28, 119]
33.692[90, 103, 378, 79, 33, 22, 32, 141]
33.715[119, 107, 386, 78, 32, 23, 30, 147]
33.73[111, 107, 339, 74, 39, 25, 31, 142]
33.752[108, 105, 330, 72, 43, 29, 32, 135]
33.775[131, 101, 349, 71, 43, 30, 33, 149]
33.79[133, 99, 369, 73, 42, 32, 32, 132]
33.812[118, 100, 394, 93, 43, 33, 37, 135]
33.835[122, 102, 397, 94, 37, 32, 35, 135]
33.85[144, 103, 384, 91, 36, 29, 36, 143]
33.872[143, 102, 379, 91, 33, 28, 37, 134]
33.895[145, 104, 315, 88, 31, 26, 37, 141]
33.91[141, 100, 272, 66, 31, 22, 33, 130]
33.932[150, 105, 292, 63, 33, 30, 39, 176]
33.955[124, 100, 305, 69, 32, 30, 35, 165]
33.97[105, 101, 296, 66, 32, 29, 34, 159]
34.001[106, 92, 301, 65, 34, 32, 33, 148]
34.015[101, 94, 318, 65, 35, 33, 36, 156]
34.03[88, 94, 319, 65, 34, 29, 32, 99]
34.052[145, 98, 292, 65, 37, 31, 34, 134]
34.075[145, 98, 308, 79, 38, 32, 36, 136]
34.098[141, 95, 305, 80, 35, 28, 34, 138]
34.112[153, 90, 292, 78, 34, 28, 31, 129]
34.135[151, 86, 299, 80, 33, 26, 31, 132]
34.158[106, 74, 276, 73, 29, 23, 33, 112]
34.173[101, 63, 314, 56, 26, 22, 29, 124]
34.195[123, 65, 309, 54, 27, 24, 30, 131]
34.218[105, 64, 317, 56, 26, 23, 32, 146]
34.232[104, 50, 290, 52, 24, 24, 38, 169]
34.255[112, 61, 308, 48, 28, 28, 36, 165]
34.279[112, 76, 279, 55, 30, 28, 37, 155]
34.292[89, 87, 319, 56, 31, 28, 37, 155]
34.315[120, 98, 432, 72, 36, 31, 40, 151]
34.338[129, 101, 432, 73, 38, 31, 39, 142]
34.353[120, 97, 415, 74, 35, 30, 39, 136]
34.375[120, 97, 395, 74, 35, 30, 38, 131]
34.399[129, 96, 461, 82, 35, 28, 40, 129]
34.412[112, 97, 357, 71, 33, 29, 36, 132]
34.435[124, 93, 366, 71, 32, 30, 43, 147]
34.459[128, 102, 370, 71, 33, 30, 45, 151]
34.472[130, 94, 356, 65, 32, 30, 47, 155]
34.495[117, 90, 267, 61, 35, 33, 46, 145]
34.525[124, 87, 303, 65, 34, 31, 45, 150]
34.532[115, 91, 284, 61, 32, 29, 34, 123]
34.555[109, 77, 283, 61, 32, 27, 31, 129]
34.578[115, 82, 357, 75, 35, 28, 31, 123]
34.593[121, 81, 324, 76, 31, 26, 31, 121]
34.616[108, 76, 309, 75, 31, 29, 34, 100]
34.638[102, 78, 340, 83, 33, 29, 34, 84]
34.652[119, 79, 363, 83, 34, 30, 34, 69]
34.676[110, 94, 341, 84, 36, 28, 31, 74]
34.698[104, 101, 342, 86, 38, 27, 31, 74]
34.712[104, 101, 337, 84, 37, 24, 27, 64]
34.735[106, 100, 325, 77, 35, 24, 30, 78]
34.758[83, 102, 296, 77, 35, 23, 31, 107]
34.772[82, 88, 245, 61, 29, 24, 30, 108]
34.796[109, 79, 316, 60, 26, 25, 35, 149]
34.818[108, 87, 331, 61, 28, 26, 35, 156]
34.832[95, 92, 327, 65, 29, 27, 31, 150]
34.856[99, 108, 360, 72, 29, 27, 29, 128]
34.878[121, 105, 374, 73, 29, 28, 30, 139]
34.892[99, 101, 305, 68, 30, 28, 32, 157]
34.916[103, 106, 277, 65, 31, 28, 33, 161]
34.938[133, 106, 292, 60, 33, 28, 36, 166]
34.952[134, 103, 310, 53, 35, 29, 35, 169]
34.976[112, 100, 308, 55, 36, 27, 38, 167]
34.998[123, 111, 341, 56, 35, 26, 33, 128]
35.013[135, 102, 339, 53, 33, 25, 32, 120]
35.036[107, 101, 354, 55, 30, 22, 31, 120]
35.058[113, 94, 330, 57, 29, 22, 38, 192]
35.08[126, 98, 307, 59, 29, 22, 34, 191]
35.096[128, 101, 274, 60, 30, 21, 34, 186]
35.118[111, 99, 291, 61, 32, 22, 35, 184]
35.14[134, 101, 274, 62, 33, 25, 33, 181]
35.156[131, 98, 234, 53, 30, 23, 27, 106]
35.178[126, 94, 273, 53, 29, 24, 32, 134]
35.2[113, 79, 281, 46, 28, 25, 32, 129]
35.216[125, 77, 282, 50, 27, 24, 30, 129]
35.238[106, 70, 273, 48, 23, 22, 34, 158]
35.26[104, 64, 315, 51, 25, 22, 31, 157]
35.275[104, 58, 329, 52, 26, 25, 28, 132]
35.298[118, 67, 320, 53, 28, 23, 31, 142]
35.321[106, 73, 330, 55, 30, 24, 34, 141]
35.336[101, 76, 314, 58, 33, 26, 31, 106]
35.358[110, 101, 381, 68, 35, 26, 32, 98]
35.38[119, 111, 375, 67, 39, 25, 30, 90]
35.396[105, 109, 382, 66, 38, 25, 31, 80]
35.418[117, 108, 354, 64, 35, 24, 33, 147]
35.44[120, 115, 356, 61, 32, 22, 33, 166]
35.456[110, 95, 264, 58, 32, 24, 34, 165]
35.478[106, 88, 225, 56, 28, 26, 38, 170]
35.501[107, 87, 215, 61, 31, 26, 35, 162]
35.516[100, 86, 271, 62, 33, 30, 31, 136]
35.538[96, 76, 300, 65, 34, 32, 34, 123]
35.56[118, 82, 306, 62, 34, 31, 37, 128]
35.575[109, 83, 354, 63, 33, 29, 36, 127]
35.598[107, 90, 360, 64, 32, 29, 36, 128]
35.62[114, 89, 324, 62, 32, 28, 38, 96]
35.635[129, 96, 293, 60, 33, 26, 44, 230]
35.658[110, 94, 282, 56, 31, 28, 39, 232]
35.68[116, 91, 216, 52, 31, 28, 36, 231]
35.695[124, 93, 204, 48, 32, 32, 36, 234]
35.718[109, 87, 189, 45, 30, 30, 37, 235]
35.741[89, 76, 200, 45, 30, 29, 27, 113]
35.755[100, 85, 193, 48, 30, 27, 28, 114]
35.778[100, 84, 203, 49, 31, 31, 32, 126]
35.8[92, 79, 207, 52, 28, 27, 30, 124]
35.815[106, 85, 389, 70, 29, 26, 29, 129]
35.838[115, 86, 386, 68, 28, 27, 27, 119]
35.861[117, 78, 386, 66, 29, 29, 27, 115]
35.875[107, 81, 393, 67, 28, 25, 30, 118]
35.898[115, 74, 399, 66, 29, 27, 31, 134]
35.92[109, 72, 284, 51, 33, 29, 33, 131]
35.935[98, 76, 285, 54, 34, 30, 35, 122]
35.958[90, 71, 279, 54, 32, 28, 35, 119]
35.98[107, 72, 289, 53, 33, 30, 36, 118]
36.003[96, 69, 289, 53, 35, 30, 36, 110]
36.018[92, 73, 255, 62, 31, 27, 38, 123]
36.04[110, 93, 301, 69, 32, 26, 38, 127]
36.063[121, 96, 309, 68, 31, 26, 38, 141]
36.078[107, 94, 294, 68, 31, 25, 33, 134]
36.1[109, 101, 289, 69, 27, 24, 32, 121]
36.123[123, 99, 320, 61, 28, 26, 38, 131]
36.138[113, 81, 279, 58, 31, 27, 38, 138]
36.161[93, 83, 261, 59, 32, 27, 38, 128]
36.183[94, 80, 284, 58, 32, 27, 40, 147]
36.198[97, 81, 334, 58, 34, 27, 41, 153]
36.221[86, 86, 297, 57, 35, 25, 32, 128]
36.243[83, 93, 433, 67, 34, 26, 32, 118]
36.258[105, 93, 448, 70, 36, 26, 32, 112]
36.281[112, 98, 448, 70, 35, 26, 31, 98]
36.303[104, 94, 423, 70, 32, 26, 29, 88]
36.318[99, 92, 454, 74, 32, 26, 31, 113]
36.34[110, 89, 318, 63, 31, 24, 29, 113]
36.363[96, 89, 294, 59, 31, 25, 31, 117]
36.379[92, 88, 253, 62, 31, 26, 33, 112]
36.401[109, 86, 245, 64, 33, 24, 32, 119]
36.422[114, 85, 190, 58, 35, 28, 37, 108]
36.439[107, 88, 202, 56, 33, 29, 39, 135]
36.461[102, 84, 269, 65, 35, 30, 40, 158]
36.482[107, 85, 275, 64, 34, 29, 38, 154]
36.499[102, 86, 255, 57, 34, 31, 43, 157]
36.52[94, 86, 244, 57, 30, 29, 38, 150]
36.544[100, 76, 346, 59, 30, 28, 37, 123]
36.559[107, 86, 302, 51, 28, 27, 38, 94]
36.581[96, 80, 315, 50, 28, 28, 42, 115]
36.602[89, 74, 343, 50, 27, 26, 38, 114]
36.619[103, 68, 341, 52, 28, 25, 39, 116]
36.64[102, 68, 241, 48, 28, 26, 39, 121]
36.662[94, 61, 246, 54, 26, 25, 35, 115]
36.679[94, 62, 243, 53, 29, 24, 28, 91]
36.7[103, 78, 286, 63, 31, 25, 31, 122]
36.723[91, 80, 297, 62, 32, 26, 35, 144]
36.745[75, 80, 300, 62, 32, 26, 35, 146]
36.76[77, 90, 295, 56, 34, 28, 36, 150]
36.782[118, 95, 303, 55, 33, 27, 37, 158]
36.799[113, 83, 234, 43, 30, 27, 35, 175]
36.82[110, 86, 228, 41, 30, 25, 29, 160]
36.842[117, 88, 223, 46, 30, 26, 28, 161]
36.859[147, 74, 212, 44, 30, 23, 29, 165]
36.88[121, 87, 285, 56, 32, 24, 29, 152]
36.902[117, 97, 294, 58, 31, 24, 28, 97]
36.925[130, 98, 303, 59, 31, 25, 31, 109]
36.94[156, 94, 317, 57, 31, 23, 34, 132]
36.962[129, 101, 348, 62, 32, 30, 32, 135]
36.985[124, 84, 274, 53, 32, 32, 33, 135]
37.0[139, 86, 287, 52, 36, 34, 34, 135]
37.022[133, 87, 281, 62, 36, 34, 35, 137]
37.045[97, 85, 270, 59, 35, 34, 34, 111]
37.06[95, 77, 239, 58, 33, 29, 34, 98]
37.083[136, 95, 292, 63, 33, 27, 34, 102]
37.105[123, 87, 303, 63, 31, 26, 39, 139]
37.12[122, 96, 302, 57, 37, 29, 44, 147]
37.142[126, 112, 294, 59, 36, 28, 44, 148]
37.165[140, 117, 334, 65, 38, 29, 43, 150]
37.18[102, 111, 346, 70, 38, 29, 43, 151]
37.202[106, 112, 326, 70, 38, 28, 41, 117]
37.225[102, 108, 324, 68, 33, 27, 33, 88]
37.24[98, 93, 404, 75, 33, 26, 30, 81]
37.262[92, 89, 385, 67, 32, 25, 32, 115]
37.285[93, 85, 332, 56, 32, 26, 29, 114]
37.3[93, 80, 318, 54, 31, 25, 26, 113]
37.323[123, 75, 408, 67, 30, 24, 27, 116]
37.345[122, 92, 388, 69, 31, 24, 27, 113]
37.36[112, 90, 383, 71, 29, 24, 26, 73]
37.382[118, 87, 380, 76, 29, 24, 29, 72]
37.405[130, 97, 448, 89, 29, 24, 33, 114]
37.42[107, 100, 407, 86, 30, 24, 31, 113]
37.443[105, 90, 437, 85, 31, 25, 32, 120]
37.465[103, 92, 433, 82, 31, 26, 34, 125]
37.481[101, 90, 489, 84, 32, 26, 33, 129]
37.502[79, 80, 484, 76, 31, 26, 27, 106]
37.525[72, 70, 458, 70, 28, 25, 34, 151]
37.54[106, 70, 428, 71, 30, 25, 33, 159]
37.562[106, 70, 431, 71, 28, 22, 33, 161]
37.586[103, 77, 375, 63, 28, 23, 34, 161]
37.6[102, 75, 316, 59, 27, 22, 35, 152]
37.623[117, 79, 400, 67, 29, 22, 29, 111]
37.645[91, 85, 406, 67, 28, 24, 36, 119]
37.661[89, 85, 402, 67, 29, 25, 36, 138]
37.682[92, 81, 421, 73, 28, 22, 34, 133]
37.705[115, 85, 423, 70, 30, 24, 36, 137]
37.72[109, 94, 370, 63, 28, 23, 36, 133]
37.742[106, 91, 312, 57, 28, 20, 33, 115]
37.765[109, 89, 362, 62, 27, 21, 31, 82]
37.78[130, 88, 340, 58, 27, 20, 35, 123]
37.803[117, 91, 324, 56, 29, 22, 39, 145]
37.825[114, 91, 336, 54, 30, 23, 41, 167]
37.84[113, 86, 321, 51, 31, 25, 39, 163]
37.862[138, 90, 277, 60, 35, 26, 41, 170]
37.885[118, 93, 268, 61, 36, 29, 36, 145]
37.908[118, 90, 338, 71, 35, 28, 37, 137]
37.922[122, 81, 332, 75, 34, 27, 37, 136]
37.945[133, 83, 340, 77, 32, 27, 37, 139]
37.968[113, 95, 327, 67, 29, 28, 36, 139]
37.982[108, 91, 352, 70, 25, 24, 37, 132]
38.005[131, 89, 291, 61, 25, 22, 36, 139]
38.027[123, 90, 259, 59, 27, 23, 32, 128]
38.042[113, 89, 269, 58, 28, 23, 34, 129]
38.065[117, 80, 281, 61, 27, 22, 34, 131]
38.087[139, 95, 332, 64, 31, 24, 35, 144]
38.102[112, 101, 349, 64, 30, 25, 33, 122]
38.125[112, 98, 339, 65, 31, 24, 32, 105]
38.148[123, 100, 328, 67, 36, 26, 38, 121]
38.163[116, 111, 371, 69, 37, 27, 40, 170]
38.185[87, 101, 310, 60, 36, 27, 38, 168]
38.207[89, 98, 298, 60, 35, 28, 38, 166]
38.223[124, 94, 291, 58, 36, 28, 40, 181]
38.245[117, 88, 312, 57, 29, 25, 35, 170]
38.268[117, 78, 314, 62, 30, 28, 31, 124]
38.283[123, 73, 308, 62, 28, 27, 31, 128]
38.305[134, 69, 302, 61, 28, 27, 28, 133]
38.328[100, 78, 297, 59, 26, 28, 31, 121]
38.343[97, 90, 282, 59, 28, 28, 29, 129]
38.365[94, 93, 256, 53, 31, 24, 29, 116]
38.387[114, 98, 285, 55, 32, 25, 33, 115]
38.403[97, 100, 284, 63, 32, 22, 34, 117]
38.425[107, 103, 293, 66, 33, 21, 29, 120]
38.448[104, 93, 293, 64, 30, 20, 28, 112]
38.462[105, 93, 251, 65, 31, 21, 31, 111]
38.485[99, 104, 297, 70, 33, 23, 28, 93]
38.508[104, 99, 320, 64, 33, 24, 26, 88]
38.522[93, 89, 311, 58, 31, 25, 28, 75]
38.545[122, 150, 340, 78, 39, 29, 31, 81]
38.568[130, 144, 332, 76, 35, 28, 27, 81]
38.582[119, 145, 295, 70, 35, 28, 33, 115]
38.605[114, 152, 263, 69, 35, 28, 36, 121]
38.628[125, 154, 297, 72, 38, 29, 36, 120]
38.643[110, 103, 287, 59, 33, 27, 35, 117]
38.665[100, 100, 323, 57, 34, 28, 35, 117]
38.688[95, 85, 298, 56, 33, 27, 32, 107]
38.702[111, 89, 301, 57, 37, 28, 32, 149]
38.725[105, 96, 277, 60, 37, 28, 33, 154]
38.748[97, 95, 239, 55, 35, 25, 31, 156]
38.762[95, 94, 216, 54, 35, 25, 33, 162]
38.785[109, 91, 224, 55, 36, 27, 30, 154]
38.808[104, 100, 244, 57, 32, 26, 31, 150]
38.831[102, 101, 256, 50, 32, 28, 34, 183]
38.853[98, 94, 266, 44, 31, 28, 36, 181]
38.867[108, 101, 252, 43, 32, 28, 37, 180]
38.891[99, 103, 246, 49, 29, 25, 38, 174]
38.905[99, 83, 283, 49, 29, 27, 34, 141]
38.927[120, 81, 272, 54, 27, 23, 33, 103]
38.951[125, 92, 350, 64, 28, 25, 33, 118]
38.965[115, 85, 348, 64, 25, 25, 30, 120]
38.996[129, 102, 345, 64, 30, 32, 32, 132]
39.011[125, 100, 319, 65, 31, 32, 31, 129]
39.025[105, 94, 319, 63, 33, 33, 30, 115]
39.048[98, 84, 216, 53, 34, 34, 30, 97]
39.071[102, 95, 222, 60, 37, 35, 30, 89]
39.085[103, 85, 231, 56, 34, 30, 29, 131]
39.108[97, 81, 211, 50, 34, 30, 32, 139]
39.131[98, 79, 216, 50, 31, 28, 33, 142]
39.145[109, 88, 254, 51, 31, 27, 35, 158]
39.168[120, 82, 250, 46, 27, 25, 37, 161]
39.191[104, 74, 254, 47, 28, 26, 41, 136]
39.205[103, 80, 252, 49, 28, 26, 40, 131]
39.228[107, 84, 286, 61, 27, 27, 37, 128]
39.251[108, 75, 266, 62, 25, 26, 36, 147]
39.265[100, 73, 267, 60, 27, 26, 36, 145]
39.288[109, 77, 247, 58, 24, 25, 28, 145]
39.311[142, 82, 240, 62, 24, 26, 30, 151]
39.325[141, 81, 214, 52, 24, 26, 30, 149]
39.348[131, 86, 209, 52, 27, 25, 27, 108]
39.371[125, 86, 204, 52, 25, 26, 27, 104]
39.385[119, 84, 211, 54, 27, 26, 28, 79]
39.408[81, 85, 223, 52, 32, 27, 30, 63]
39.431[81, 88, 254, 51, 34, 28, 30, 86]
39.445[80, 81, 254, 47, 32, 28, 32, 92]
39.468[123, 76, 269, 45, 32, 25, 34, 100]
39.491[118, 79, 263, 43, 32, 24, 37, 113]
39.505[117, 84, 291, 46, 27, 22, 34, 113]
39.528[116, 110, 250, 67, 27, 21, 35, 99]
39.551[142, 112, 247, 71, 30, 23, 37, 116]
39.565[118, 111, 229, 72, 31, 24, 35, 114]
39.587[118, 107, 226, 73, 29, 23, 31, 95]
39.611[115, 94, 166, 67, 28, 22, 32, 93]
39.625[110, 58, 132, 42, 26, 20, 30, 88]
39.648[75, 56, 111, 33, 22, 21, 25, 53]
39.671[54, 52, 88, 29, 18, 20, 23, 38]
39.685[40, 47, 72, 24, 20, 22, 22, 32]
39.708[36, 45, 50, 24, 19, 21, 20, 30]
39.731[29, 33, 33, 20, 20, 24, 19, 25]
39.745[22, 25, 25, 21, 21, 22, 19, 24]
39.768[22, 23, 24, 20, 20, 24, 19, 22]
39.791[20, 22, 22, 20, 20, 21, 20, 23]
39.813[19, 21, 21, 18, 20, 21, 19, 22]
39.828[17, 20, 22, 20, 20, 18, 20, 23]
39.851[17, 20, 21, 21, 21, 21, 18, 21]
39.874[16, 22, 22, 22, 23, 18, 21, 20]
39.888[17, 21, 25, 22, 23, 19, 21, 18]
39.911[19, 24, 42, 23, 23, 21, 22, 19]
39.933[18, 23, 44, 22, 23, 21, 22, 17]
39.948[19, 24, 44, 21, 22, 17, 22, 19]
39.971[18, 23, 44, 21, 22, 17, 18, 19]
39.993[18, 23, 42, 20, 22, 18, 19, 20]
40.008[18, 20, 27, 20, 23, 17, 18, 19]
40.039[20, 22, 22, 18, 22, 18, 18, 18]
40.054[19, 21, 21, 19, 22, 19, 19, 17]
40.068[20, 21, 20, 19, 23, 19, 20, 18]
40.091[21, 19, 20, 18, 22, 18, 19, 17]
40.114[20, 20, 17, 16, 21, 19, 19, 18]
40.128[21, 20, 16, 19, 21, 19, 20, 18]
40.151[20, 20, 16, 19, 21, 19, 19, 17]
40.173[19, 21, 17, 19, 19, 19, 20, 17]
40.188[17, 21, 18, 19, 21, 20, 20, 18]
40.211[18, 21, 18, 21, 22, 19, 21, 17]
40.233[16, 21, 20, 19, 23, 20, 21, 20]
40.248[15, 21, 22, 18, 23, 20, 21, 21]
40.271[16, 19, 22, 19, 23, 19, 20, 20]
40.293[17, 21, 23, 18, 23, 18, 20, 20]
40.308[17, 21, 23, 18, 23, 17, 19, 19]
40.331[17, 20, 22, 18, 23, 17, 17, 17]
40.354[18, 20, 19, 19, 22, 17, 18, 18]
40.368[18, 22, 19, 18, 22, 17, 17, 19]
40.391[16, 21, 18, 18, 19, 18, 17, 19]
40.414[16, 22, 18, 16, 20, 19, 18, 20]
40.428[16, 22, 20, 18, 20, 18, 18, 19]
40.451[17, 22, 19, 18, 21, 19, 18, 19]
40.473[18, 22, 19, 20, 21, 21, 18, 18]
40.488[20, 24, 18, 21, 22, 19, 18, 18]
40.511[21, 22, 18, 21, 21, 18, 17, 17]
40.534[20, 21, 18, 21, 21, 20, 18, 18]
40.548[20, 21, 20, 21, 20, 20, 19, 18]
40.571[20, 20, 21, 20, 22, 18, 19, 20]
40.594[20, 17, 20, 20, 22, 19, 19, 20]
40.608[20, 20, 21, 21, 21, 19, 20, 20]
40.631[20, 21, 21, 20, 21, 19, 20, 19]
40.653[20, 21, 20, 20, 22, 19, 20, 20]
40.668[20, 23, 19, 20, 21, 19, 21, 18]
40.691[21, 22, 19, 22, 21, 19, 21, 18]
40.713[20, 21, 18, 20, 22, 18, 21, 18]
40.736[21, 19, 17, 21, 19, 19, 21, 18]
40.751[21, 21, 19, 21, 19, 21, 20, 18]
40.774[20, 19, 20, 21, 20, 22, 19, 18]
40.796[19, 19, 26, 19, 19, 22, 17, 18]
40.811[19, 19, 30, 20, 20, 23, 17, 21]
40.833[18, 19, 32, 19, 20, 22, 16, 20]
40.856[18, 18, 32, 20, 20, 20, 16, 19]
40.872[18, 19, 34, 24, 20, 19, 17, 20]
40.893[17, 18, 32, 24, 21, 19, 18, 19]
40.916[18, 18, 30, 23, 19, 19, 18, 18]
40.938[19, 18, 29, 24, 19, 18, 19, 17]
40.953[19, 17, 29, 25, 20, 18, 18, 19]
40.976[19, 16, 26, 22, 19, 15, 19, 17]
40.991[18, 19, 26, 21, 19, 16, 22, 18]
41.013[18, 20, 29, 21, 19, 16, 21, 17]
41.036[20, 21, 32, 21, 19, 17, 22, 18]
41.051[19, 23, 32, 17, 17, 17, 22, 17]
41.073[19, 23, 32, 19, 19, 17, 21, 18]
41.096[19, 23, 30, 19, 18, 17, 19, 17]
41.119[17, 22, 24, 19, 20, 19, 21, 18]
41.133[16, 22, 24, 19, 19, 19, 20, 19]
41.156[16, 21, 22, 20, 19, 20, 22, 19]
41.171[17, 21, 31, 19, 20, 19, 21, 18]
41.193[18, 20, 33, 18, 22, 22, 20, 19]
41.216[19, 21, 33, 19, 21, 20, 20, 19]
41.23[19, 20, 30, 21, 22, 19, 20, 19]
41.253[19, 21, 30, 19, 24, 20, 19, 19]
41.276[18, 20, 22, 19, 22, 20, 20, 19]
41.291[18, 21, 20, 21, 22, 17, 21, 17]
41.313[17, 20, 19, 19, 23, 19, 21, 19]
41.336[16, 20, 29, 17, 23, 19, 21, 18]
41.35[17, 19, 30, 18, 22, 18, 20, 20]
41.374[15, 20, 31, 19, 24, 17, 19, 22]
41.395[15, 20, 32, 17, 23, 17, 17, 22]
41.418[17, 20, 34, 17, 23, 16, 18, 20]
41.434[18, 20, 30, 21, 24, 15, 17, 20]
41.455[18, 21, 28, 20, 24, 16, 17, 19]
41.478[20, 22, 28, 19, 22, 17, 17, 17]
41.494[21, 22, 28, 19, 22, 18, 19, 20]
41.516[20, 21, 28, 20, 22, 20, 19, 21]
41.538[19, 23, 28, 20, 19, 22, 20, 21]
41.555[19, 22, 28, 21, 20, 22, 19, 20]
41.575[18, 21, 27, 21, 19, 23, 20, 22]
41.598[19, 22, 27, 20, 20, 24, 19, 20]
41.614[19, 22, 27, 21, 19, 21, 19, 19]
41.636[20, 20, 25, 19, 19, 20, 19, 19]
41.658[19, 20, 28, 19, 20, 20, 21, 19]
41.674[20, 19, 29, 17, 21, 18, 23, 18]
41.696[21, 18, 29, 18, 19, 17, 21, 19]
41.718[21, 18, 35, 19, 18, 18, 20, 19]
41.734[21, 18, 36, 21, 20, 18, 22, 18]
41.755[20, 18, 35, 20, 18, 18, 20, 20]
41.779[19, 19, 35, 21, 19, 20, 18, 20]
41.794[18, 20, 35, 21, 21, 20, 20, 20]
41.815[15, 20, 37, 20, 21, 21, 21, 19]
41.838[16, 21, 39, 19, 19, 21, 19, 20]
41.854[17, 28, 127, 26, 23, 21, 19, 20]
41.875[16, 28, 137, 25, 22, 19, 18, 20]
41.898[16, 27, 140, 24, 20, 20, 18, 19]
41.914[16, 29, 139, 26, 23, 18, 16, 19]
41.935[16, 29, 139, 26, 22, 19, 17, 19]
41.958[16, 23, 71, 20, 19, 18, 19, 18]
41.974[16, 21, 54, 21, 21, 20, 17, 18]
41.995[17, 22, 47, 23, 22, 19, 18, 19]
42.02[17, 20, 43, 19, 20, 19, 19, 19]
42.033[17, 20, 38, 21, 23, 18, 18, 19]
42.055[16, 20, 39, 21, 22, 20, 18, 19]
42.079[20, 21, 36, 24, 22, 19, 19, 21]
42.093[21, 20, 33, 23, 21, 18, 19, 19]
42.115[19, 20, 37, 24, 21, 19, 19, 20]
42.138[21, 20, 42, 22, 19, 19, 19, 20]
42.153[22, 20, 37, 22, 21, 17, 19, 19]
42.175[18, 19, 37, 20, 20, 17, 20, 18]
42.198[19, 21, 39, 18, 20, 19, 20, 20]
42.213[20, 19, 36, 17, 20, 20, 21, 20]
42.236[19, 21, 32, 17, 20, 20, 19, 21]
42.259[18, 20, 34, 18, 19, 21, 19, 22]
42.273[19, 21, 35, 18, 17, 20, 19, 21]
42.295[19, 21, 37, 20, 17, 19, 20, 20]
42.318[21, 24, 35, 20, 17, 17, 20, 18]
42.333[20, 22, 38, 22, 19, 17, 21, 17]
42.356[21, 22, 43, 23, 19, 19, 21, 17]
42.378[20, 22, 41, 23, 19, 20, 19, 16]
42.393[20, 20, 37, 23, 22, 21, 19, 16]
42.415[19, 19, 40, 25, 22, 21, 19, 18]
42.438[19, 18, 37, 23, 23, 20, 18, 19]
42.453[19, 18, 35, 21, 22, 19, 19, 18]
42.475[19, 17, 34, 20, 21, 18, 21, 21]
42.506[19, 18, 35, 21, 20, 19, 19, 20]
42.513[17, 18, 40, 19, 22, 20, 19, 19]
42.537[17, 20, 40, 19, 21, 18, 19, 19]
42.558[18, 19, 36, 21, 22, 19, 18, 19]
42.573[17, 21, 36, 20, 23, 18, 18, 16]
42.603[18, 21, 39, 20, 23, 14, 18, 17]
42.618[18, 21, 33, 19, 20, 16, 19, 16]
42.64[18, 20, 31, 20, 19, 20, 20, 17]
42.656[18, 21, 33, 18, 20, 19, 20, 18]
42.678[19, 21, 33, 19, 20, 21, 22, 19]
42.701[19, 23, 35, 19, 19, 21, 21, 18]
42.715[19, 23, 34, 20, 19, 23, 20, 17]
42.738[19, 24, 33, 19, 19, 21, 18, 17]
42.76[20, 23, 32, 19, 17, 21, 19, 19]
42.775[21, 22, 32, 20, 17, 20, 17, 19]
42.798[22, 20, 30, 19, 20, 22, 18, 20]
42.82[21, 20, 31, 19, 20, 19, 20, 22]
42.835[23, 18, 32, 19, 19, 20, 19, 22]
42.858[21, 18, 32, 18, 19, 21, 18, 21]
42.881[21, 18, 30, 17, 20, 21, 18, 21]
42.895[21, 18, 29, 18, 17, 22, 19, 21]
42.918[22, 16, 29, 17, 18, 22, 19, 19]
42.94[21, 15, 30, 17, 20, 22, 20, 18]
42.955[22, 17, 31, 17, 20, 20, 22, 18]
42.978[19, 18, 41, 18, 20, 21, 21, 17]
43.0[20, 17, 39, 17, 21, 19, 21, 17]
43.015[18, 19, 37, 18, 23, 17, 19, 17]
43.038[17, 20, 36, 18, 22, 17, 18, 18]
43.06[18, 21, 39, 19, 23, 18, 19, 19]
43.075[20, 21, 31, 19, 22, 18, 19, 19]
43.098[18, 22, 32, 18, 24, 18, 20, 20]
43.12[18, 21, 35, 18, 21, 18, 19, 20]
43.135[18, 23, 36, 20, 21, 19, 19, 20]
43.158[20, 22, 38, 19, 22, 18, 17, 18]
43.18[18, 23, 37, 19, 22, 19, 16, 19]
43.195[20, 23, 36, 19, 20, 19, 16, 19]
43.218[20, 23, 41, 19, 20, 20, 18, 18]
43.24[19, 22, 42, 19, 20, 19, 18, 19]
43.255[18, 21, 37, 18, 19, 19, 19, 19]
43.278[18, 21, 37, 18, 19, 17, 18, 20]
43.308[17, 21, 41, 20, 19, 17, 18, 20]
43.315[18, 21, 37, 21, 19, 18, 18, 20]
43.338[18, 21, 36, 20, 19, 17, 18, 20]
43.368[18, 21, 34, 20, 19, 18, 18, 19]
43.375[19, 20, 35, 21, 21, 18, 18, 18]
43.398[19, 19, 32, 20, 23, 18, 18, 18]
43.42[19, 21, 40, 19, 22, 17, 18, 17]
43.437[18, 22, 42, 19, 21, 18, 17, 16]
43.458[19, 22, 43, 21, 21, 18, 18, 19]
43.48[17, 22, 41, 21, 20, 16, 20, 18]
43.495[20, 22, 43, 22, 20, 18, 20, 19]
43.518[19, 20, 33, 22, 21, 21, 19, 20]
43.54[19, 19, 30, 21, 21, 22, 19, 20]
43.563[17, 19, 30, 19, 21, 21, 19, 19]
43.578[17, 17, 32, 18, 20, 22, 18, 19]
43.6[17, 19, 39, 18, 18, 22, 18, 19]
43.623[18, 18, 40, 18, 19, 19, 19, 20]
43.638[18, 17, 40, 19, 19, 18, 21, 24]
43.66[53, 20, 40, 19, 19, 20, 20, 32]
43.683[55, 20, 39, 21, 19, 21, 21, 33]
43.698[57, 19, 36, 21, 19, 20, 21, 34]
43.72[58, 20, 38, 21, 19, 20, 21, 35]
43.743[59, 20, 38, 20, 19, 22, 20, 33]
43.758[33, 20, 41, 21, 20, 21, 20, 25]
43.78[30, 20, 43, 18, 20, 19, 21, 23]
43.803[26, 20, 36, 18, 20, 20, 21, 21]
43.818[23, 18, 32, 17, 21, 20, 20, 18]
43.84[22, 18, 31, 19, 20, 18, 20, 17]
43.863[20, 17, 29, 20, 19, 18, 21, 17]
43.878[20, 18, 31, 20, 19, 19, 19, 16]
43.9[21, 20, 30, 21, 18, 18, 17, 17]
43.924[19, 20, 32, 20, 18, 19, 18, 17]
43.938[17, 20, 32, 20, 19, 20, 18, 17]
43.96[18, 20, 40, 20, 20, 19, 19, 16]
43.984[18, 22, 37, 22, 20, 19, 18, 17]
43.998[19, 23, 36, 20, 21, 22, 19, 18]
44.02[19, 23, 34, 20, 23, 22, 19, 18]
44.044[20, 24, 36, 20, 22, 21, 20, 19]
44.058[21, 24, 29, 20, 22, 21, 19, 20]
44.081[21, 22, 31, 18, 24, 21, 20, 19]
44.104[20, 22, 33, 20, 23, 19, 19, 19]
44.118[20, 21, 34, 20, 21, 17, 20, 21]
44.14[20, 22, 41, 20, 23, 17, 20, 20]
44.164[21, 22, 43, 19, 24, 17, 18, 21]
44.178[20, 22, 40, 18, 22, 15, 19, 22]
44.2[19, 22, 38, 18, 21, 17, 18, 22]
44.224[19, 23, 39, 19, 21, 17, 18, 22]
44.239[19, 22, 37, 19, 19, 18, 19, 23]
44.26[19, 24, 35, 20, 19, 20, 19, 21]
44.284[19, 23, 34, 19, 19, 20, 19, 20]
44.298[19, 23, 41, 20, 21, 20, 18, 20]
44.32[20, 22, 41, 21, 22, 21, 18, 18]
44.343[18, 21, 36, 20, 21, 22, 19, 19]
44.358[19, 20, 36, 19, 23, 21, 19, 20]
44.38[18, 20, 39, 21, 23, 22, 19, 21]
44.404[19, 21, 34, 20, 23, 20, 19, 21]
44.418[20, 22, 32, 17, 20, 19, 19, 21]
44.44[21, 24, 33, 19, 21, 18, 17, 20]
44.463[19, 23, 37, 19, 19, 17, 18, 20]
44.478[20, 27, 37, 18, 19, 17, 19, 19]
44.508[22, 24, 34, 18, 16, 18, 19, 19]
44.524[21, 24, 34, 19, 18, 17, 18, 19]
44.546[21, 24, 36, 17, 19, 17, 19, 20]
44.56[21, 24, 29, 19, 21, 17, 18, 21]
44.584[20, 19, 27, 18, 21, 18, 19, 19]
44.606[18, 21, 28, 18, 23, 18, 19, 18]
44.62[19, 22, 28, 20, 22, 18, 20, 19]
44.644[18, 22, 23, 21, 23, 20, 20, 17]
44.666[19, 22, 22, 20, 21, 20, 19, 16]
44.68[18, 22, 30, 21, 22, 20, 18, 17]
44.704[16, 23, 30, 22, 21, 21, 18, 18]
44.726[14, 21, 31, 20, 20, 21, 21, 16]
44.74[17, 20, 35, 20, 18, 20, 21, 17]
44.764[17, 19, 42, 21, 20, 20, 21, 18]
44.787[18, 20, 42, 20, 20, 20, 21, 18]
44.8[19, 19, 50, 19, 19, 21, 20, 18]
44.824[19, 19, 49, 19, 21, 21, 18, 18]
44.846[17, 20, 50, 19, 21, 22, 16, 18]
44.861[18, 21, 46, 18, 19, 22, 17, 18]
44.884[20, 22, 44, 18, 19, 20, 17, 17]
44.906[19, 22, 38, 18, 19, 21, 18, 16]
44.92[21, 24, 40, 19, 18, 20, 18, 18]
44.944[20, 24, 37, 18, 19, 19, 18, 17]
44.966[21, 24, 35, 18, 21, 18, 17, 16]
44.98[19, 22, 40, 19, 20, 19, 17, 18]
45.004[20, 25, 40, 20, 21, 19, 16, 17]
45.026[19, 22, 38, 20, 21, 20, 16, 16]
45.04[19, 23, 36, 20, 20, 19, 16, 19]
45.064[18, 23, 41, 19, 19, 20, 17, 20]
45.086[18, 23, 39, 19, 19, 18, 17, 18]
45.101[19, 20, 36, 18, 18, 18, 17, 20]
45.124[18, 20, 36, 18, 19, 17, 17, 19]
45.147[17, 19, 40, 19, 19, 17, 18, 17]
45.16[19, 19, 40, 21, 21, 18, 21, 18]
45.184[18, 20, 35, 20, 21, 19, 22, 19]
45.206[19, 19, 35, 21, 21, 18, 23, 17]
45.221[19, 21, 34, 21, 22, 19, 24, 17]
45.244[20, 21, 29, 22, 22, 20, 23, 19]
45.266[18, 22, 25, 21, 20, 19, 21, 17]
45.28[19, 21, 27, 23, 20, 18, 20, 19]
45.304[18, 23, 27, 21, 20, 18, 20, 20]
45.326[20, 22, 28, 22, 19, 19, 19, 20]
45.34[19, 23, 28, 21, 18, 17, 19, 20]
45.364[20, 20, 34, 20, 19, 18, 20, 20]
45.386[18, 22, 34, 19, 21, 19, 19, 19]
45.4[18, 22, 33, 19, 21, 19, 19, 19]
45.424[19, 20, 34, 18, 21, 18, 19, 20]
45.446[20, 20, 34, 17, 20, 18, 20, 19]
45.468[20, 20, 32, 17, 20, 18, 19, 20]
45.484[21, 20, 31, 20, 17, 16, 22, 19]
45.507[20, 20, 33, 20, 17, 19, 22, 18]
45.528[19, 20, 32, 22, 17, 18, 22, 18]
45.544[19, 19, 37, 22, 22, 20, 21, 19]
45.566[20, 22, 36, 21, 22, 21, 21, 20]
45.591[20, 21, 34, 19, 22, 23, 17, 20]
45.604[20, 21, 33, 18, 24, 21, 17, 21]
45.627[20, 22, 44, 18, 24, 22, 16, 22]
45.65[20, 24, 45, 17, 20, 22, 16, 21]
45.664[19, 23, 41, 18, 21, 23, 16, 20]
45.687[20, 22, 45, 19, 20, 22, 18, 20]
45.709[20, 21, 46, 20, 21, 21, 19, 20]
45.724[21, 21, 38, 19, 21, 21, 19, 18]
45.746[21, 19, 32, 20, 21, 21, 19, 19]
45.769[20, 18, 37, 20, 21, 18, 18, 20]
45.784[20, 18, 33, 18, 22, 19, 17, 20]
45.806[20, 18, 32, 18, 19, 20, 15, 20]
45.829[18, 19, 32, 17, 18, 21, 17, 22]
45.845[19, 19, 38, 17, 18, 20, 17, 21]
45.866[19, 21, 35, 16, 17, 20, 20, 21]
45.889[20, 21, 33, 19, 15, 21, 20, 21]
45.904[20, 22, 38, 19, 17, 20, 21, 20]
45.926[20, 20, 40, 19, 19, 19, 19, 18]
45.949[19, 20, 33, 20, 19, 19, 21, 17]
45.963[19, 18, 32, 20, 21, 20, 18, 17]
45.986[17, 20, 32, 19, 21, 21, 19, 16]
46.009[14, 19, 25, 20, 21, 23, 18, 17]
46.023[15, 20, 26, 20, 20, 23, 20, 18]
46.046[16, 21, 30, 20, 22, 22, 17, 18]
46.069[16, 22, 32, 21, 20, 24, 18, 18]
46.084[18, 20, 32, 21, 21, 22, 17, 18]
46.106[20, 21, 34, 20, 21, 22, 18, 17]
46.129[19, 19, 32, 20, 21, 22, 18, 16]
46.143[19, 19, 31, 21, 20, 22, 18, 17]
46.166[18, 17, 30, 19, 21, 22, 19, 18]
46.189[17, 19, 29, 19, 21, 22, 18, 19]
46.203[16, 21, 37, 20, 23, 20, 17, 19]
46.226[18, 21, 37, 18, 22, 19, 16, 20]
46.249[18, 21, 35, 17, 21, 20, 18, 19]
46.263[18, 22, 35, 18, 22, 19, 19, 18]
46.286[18, 20, 39, 20, 21, 19, 20, 19]
46.309[19, 20, 30, 19, 19, 19, 20, 19]
46.323[17, 20, 29, 21, 20, 19, 21, 20]
46.347[17, 19, 28, 20, 21, 18, 21, 20]
46.368[18, 19, 28, 21, 20, 17, 19, 19]
46.392[20, 19, 29, 19, 19, 16, 18, 19]
46.407[19, 18, 30, 18, 19, 17, 18, 21]
46.428[19, 20, 30, 17, 19, 18, 18, 20]
46.451[20, 20, 32, 20, 18, 19, 18, 20]
46.467[21, 19, 36, 19, 21, 21, 19, 21]
46.488[19, 20, 34, 20, 21, 22, 19, 21]
46.51[18, 19, 31, 23, 22, 21, 21, 19]
46.527[20, 20, 30, 23, 23, 21, 20, 18]
46.548[20, 20, 31, 22, 22, 21, 20, 18]
46.571[19, 21, 33, 22, 20, 18, 21, 18]
46.587[19, 21, 34, 23, 21, 17, 20, 19]
46.608[20, 21, 35, 21, 19, 17, 20, 20]
46.631[20, 17, 35, 22, 18, 17, 21, 22]
46.647[20, 17, 34, 22, 20, 17, 22, 21]
46.668[19, 17, 29, 22, 20, 18, 21, 22]
46.69[20, 16, 25, 22, 18, 19, 21, 20]
46.707[19, 17, 27, 21, 19, 21, 20, 20]
46.728[18, 18, 32, 21, 19, 20, 19, 19]
46.75[18, 19, 32, 21, 17, 20, 20, 19]
46.767[18, 19, 32, 20, 19, 20, 20, 18]
46.795[18, 19, 38, 21, 20, 20, 20, 18]
46.81[19, 19, 39, 21, 21, 18, 21, 18]
46.827[20, 20, 35, 22, 20, 20, 21, 18]
46.848[19, 19, 35, 21, 21, 19, 18, 19]
46.872[19, 19, 38, 24, 18, 20, 16, 20]
46.887[19, 19, 36, 22, 18, 18, 18, 19]
46.908[19, 20, 36, 23, 17, 19, 18, 19]
46.93[19, 20, 36, 21, 16, 19, 19, 17]
46.947[18, 21, 36, 22, 17, 20, 21, 18]
46.968[18, 22, 35, 20, 16, 21, 21, 18]
46.991[16, 22, 33, 22, 18, 21, 20, 19]
47.007[17, 22, 28, 21, 18, 21, 20, 19]
47.028[17, 22, 27, 20, 20, 20, 18, 20]
47.051[17, 21, 34, 21, 21, 20, 17, 20]
47.067[17, 21, 34, 21, 22, 18, 18, 18]
47.089[17, 20, 33, 20, 21, 17, 18, 19]
47.11[17, 20, 34, 20, 22, 16, 18, 18]
47.127[21, 20, 37, 20, 21, 15, 19, 17]
47.148[20, 20, 34, 20, 19, 16, 19, 17]
47.17[20, 20, 31, 20, 20, 15, 19, 18]
47.188[19, 21, 30, 20, 20, 16, 19, 16]
47.209[19, 21, 31, 20, 20, 18, 20, 18]
47.23[17, 19, 34, 21, 21, 19, 19, 19]
47.247[17, 20, 34, 20, 22, 20, 20, 19]
47.268[17, 19, 35, 19, 20, 21, 20, 19]
47.292[17, 18, 34, 19, 21, 21, 21, 20]
47.307[20, 19, 33, 20, 19, 19, 19, 19]
47.328[19, 19, 33, 19, 18, 20, 19, 18]
47.351[19, 21, 32, 19, 17, 20, 17, 17]
47.373[19, 21, 31, 20, 21, 20, 16, 17]
47.388[19, 22, 35, 18, 20, 21, 14, 16]
47.41[17, 22, 38, 16, 21, 22, 18, 18]
47.433[17, 23, 33, 18, 21, 21, 19, 17]
47.448[18, 20, 32, 17, 22, 20, 18, 17]
47.472[19, 21, 31, 18, 19, 19, 18, 17]
47.493[18, 21, 37, 19, 20, 19, 19, 17]
47.508[19, 21, 33, 20, 18, 20, 18, 16]
47.53[18, 20, 33, 21, 17, 22, 17, 18]
47.553[17, 20, 33, 20, 16, 20, 17, 17]
47.568[16, 21, 34, 19, 18, 21, 19, 18]
47.6[17, 19, 24, 20, 19, 21, 19, 19]
47.613[18, 21, 23, 20, 20, 21, 18, 19]
47.628[19, 21, 31, 19, 21, 18, 18, 18]
47.65[21, 22, 32, 20, 21, 19, 18, 20]
47.673[21, 21, 33, 20, 22, 20, 16, 19]
47.688[20, 21, 37, 19, 22, 21, 16, 18]
47.71[19, 19, 41, 20, 22, 21, 17, 17]
47.733[20, 17, 36, 19, 24, 20, 18, 17]
47.748[20, 20, 34, 19, 24, 20, 19, 17]
47.77[20, 19, 37, 19, 23, 18, 18, 18]
47.793[20, 20, 36, 20, 22, 17, 20, 20]
47.808[20, 20, 33, 21, 22, 19, 18, 23]
47.83[19, 20, 32, 20, 20, 20, 18, 22]
47.853[18, 18, 35, 20, 20, 21, 18, 22]
47.868[17, 18, 33, 21, 20, 22, 16, 21]
47.891[16, 17, 32, 21, 20, 20, 17, 20]
47.913[17, 18, 30, 21, 21, 19, 18, 18]
47.928[18, 18, 31, 21, 22, 19, 17, 20]
47.95[19, 17, 32, 21, 22, 17, 17, 20]
47.973[20, 18, 35, 20, 20, 18, 18, 20]
47.988[20, 18, 32, 20, 20, 18, 17, 20]
48.01[21, 18, 37, 19, 19, 20, 17, 21]
48.033[21, 20, 39, 19, 17, 22, 17, 21]
48.048[20, 21, 36, 21, 18, 21, 15, 21]
48.07[20, 20, 31, 21, 19, 19, 18, 20]
48.093[20, 20, 36, 20, 19, 21, 18, 19]
48.108[18, 19, 36, 19, 20, 20, 19, 18]
48.13[21, 19, 32, 18, 21, 18, 20, 16]
48.153[21, 21, 38, 16, 20, 18, 21, 18]
48.168[20, 20, 40, 18, 22, 19, 18, 19]
48.19[21, 20, 36, 18, 24, 18, 18, 19]
48.213[22, 22, 31, 18, 22, 18, 18, 21]
48.228[19, 21, 31, 19, 24, 18, 17, 22]
48.25[19, 20, 29, 20, 24, 19, 16, 20]
48.273[21, 22, 31, 20, 23, 18, 16, 19]
48.295[21, 22, 31, 21, 21, 17, 17, 19]
48.311[20, 22, 36, 22, 21, 19, 19, 18]
48.333[21, 23, 39, 21, 19, 18, 18, 17]
48.356[21, 22, 36, 21, 20, 18, 19, 18]
48.37[18, 21, 32, 20, 19, 20, 19, 20]
48.393[18, 20, 33, 20, 20, 21, 18, 19]
48.416[17, 20, 33, 20, 20, 20, 17, 19]
48.43[18, 20, 30, 19, 20, 20, 17, 19]
48.453[17, 22, 31, 22, 19, 20, 18, 18]
48.475[17, 23, 31, 20, 20, 18, 19, 18]
48.491[19, 24, 31, 19, 19, 18, 19, 17]
48.513[19, 24, 32, 19, 18, 17, 19, 17]
48.536[19, 22, 35, 20, 20, 18, 20, 19]
48.55[19, 22, 34, 19, 19, 18, 20, 20]
48.573[21, 21, 34, 20, 18, 19, 20, 19]
48.596[20, 20, 33, 20, 17, 20, 19, 20]
48.611[20, 22, 34, 20, 18, 20, 20, 20]
48.633[19, 23, 34, 18, 17, 20, 22, 21]
48.656[20, 21, 34, 17, 21, 22, 22, 21]
48.67[19, 22, 39, 19, 21, 21, 21, 20]
48.701[18, 23, 42, 19, 21, 19, 21, 20]
48.716[16, 20, 37, 20, 21, 19, 20, 21]
48.73[17, 20, 36, 19, 25, 20, 19, 20]
48.754[16, 21, 39, 21, 23, 20, 20, 18]
48.776[16, 21, 34, 19, 22, 20, 20, 18]
48.791[16, 21, 33, 20, 23, 23, 20, 18]
48.813[17, 21, 34, 19, 22, 23, 21, 18]
48.836[18, 23, 34, 20, 18, 22, 19, 17]
48.851[19, 22, 29, 18, 18, 20, 18, 17]
48.873[19, 21, 29, 19, 18, 20, 17, 18]
48.896[20, 20, 31, 18, 19, 18, 17, 18]
48.91[21, 20, 31, 19, 21, 17, 16, 18]
48.933[20, 18, 30, 19, 20, 17, 16, 18]
48.956[19, 18, 31, 19, 20, 16, 14, 19]
48.97[20, 20, 38, 20, 19, 17, 17, 21]
48.993[19, 20, 37, 21, 19, 17, 17, 21]
49.016[19, 20, 36, 19, 17, 17, 19, 21]
49.031[18, 21, 36, 20, 18, 16, 20, 20]
49.053[18, 23, 39, 20, 18, 17, 21, 19]
49.076[18, 20, 34, 17, 19, 17, 20, 16]
49.091[19, 23, 33, 18, 17, 18, 20, 15]
49.113[19, 22, 32, 18, 19, 22, 19, 15]
49.136[18, 21, 31, 17, 20, 21, 19, 16]
49.151[20, 20, 35, 18, 21, 22, 19, 17]
49.173[19, 21, 35, 19, 21, 23, 19, 17]
49.196[19, 17, 32, 19, 22, 22, 19, 21]
49.211[20, 20, 32, 19, 21, 19, 19, 21]
49.233[20, 19, 37, 19, 20, 20, 18, 21]
49.256[19, 20, 30, 19, 20, 19, 19, 22]
49.279[19, 18, 31, 17, 20, 17, 17, 22]
49.293[20, 20, 32, 16, 19, 20, 17, 20]
49.315[18, 18, 32, 19, 19, 19, 16, 20]
49.339[17, 20, 31, 18, 21, 17, 17, 19]
49.353[17, 18, 35, 17, 23, 17, 17, 20]
49.376[18, 19, 34, 19, 23, 18, 18, 20]
49.399[16, 20, 33, 20, 24, 15, 17, 20]
49.413[18, 20, 39, 19, 26, 16, 19, 19]
49.437[19, 19, 37, 20, 24, 17, 18, 18]
49.459[19, 21, 34, 22, 21, 17, 18, 19]
49.473[19, 21, 32, 22, 21, 17, 18, 17]
49.497[19, 19, 32, 21, 20, 17, 20, 18]
49.519[18, 21, 29, 22, 18, 16, 20, 19]
49.541[17, 21, 30, 21, 19, 17, 21, 19]
49.556[18, 21, 31, 19, 20, 17, 20, 18]
49.58[17, 21, 32, 19, 20, 18, 20, 19]
49.593[17, 22, 38, 18, 19, 21, 20, 18]
49.616[19, 21, 37, 17, 20, 20, 19, 18]
49.639[20, 22, 35, 17, 19, 20, 18, 19]
49.653[20, 22, 37, 17, 18, 21, 21, 18]
49.676[20, 22, 40, 17, 20, 20, 22, 19]
49.699[20, 21, 35, 18, 21, 17, 21, 20]
49.713[18, 23, 32, 18, 20, 20, 21, 20]
49.736[17, 22, 39, 21, 20, 19, 21, 19]
49.759[16, 23, 38, 22, 21, 20, 19, 19]
49.773[16, 22, 35, 21, 19, 19, 17, 21]
49.797[17, 21, 34, 20, 21, 21, 16, 21]
49.819[16, 19, 42, 21, 22, 19, 19, 20]
49.835[18, 19, 37, 19, 22, 19, 19, 21]
49.857[18, 18, 34, 19, 21, 17, 18, 21]
49.879[18, 19, 40, 21, 22, 17, 19, 20]
49.893[21, 20, 44, 20, 19, 17, 20, 20]
49.916[21, 21, 39, 20, 19, 18, 17, 20]
49.939[20, 20, 37, 21, 20, 19, 15, 19]
49.953[20, 22, 39, 20, 20, 21, 17, 18]
49.976[21, 21, 38, 19, 18, 20, 15, 16]
49.999[18, 22, 36, 20, 20, 20, 15, 16]
50.013[19, 22, 35, 20, 20, 18, 15, 17]
50.036[20, 23, 35, 21, 19, 18, 16, 18]
50.059[20, 23, 36, 21, 21, 16, 14, 18]
50.073[18, 24, 33, 20, 23, 16, 16, 18]
50.096[18, 25, 33, 20, 21, 17, 18, 18]
50.119[18, 24, 32, 19, 21, 17, 18, 18]
50.133[17, 24, 38, 17, 21, 17, 19, 16]
50.156[17, 23, 38, 16, 21, 18, 19, 17]
50.179[17, 22, 36, 16, 20, 19, 19, 16]
50.201[18, 20, 33, 16, 20, 20, 17, 17]
50.216[18, 21, 37, 16, 21, 20, 17, 19]
50.24[17, 19, 35, 17, 20, 20, 16, 18]
50.261[17, 19, 32, 18, 19, 20, 16, 17]
50.276[17, 19, 31, 20, 20, 20, 15, 17]
50.299[15, 20, 31, 20, 20, 17, 18, 17]
50.321[17, 19, 34, 21, 20, 17, 17, 17]
50.336[17, 19, 31, 21, 20, 17, 17, 18]
50.359[17, 20, 30, 20, 19, 16, 18, 19]
50.381[18, 19, 36, 19, 18, 15, 18, 19]
50.397[19, 20, 40, 18, 18, 16, 17, 19]
50.419[17, 19, 34, 17, 18, 17, 18, 16]
50.441[17, 20, 39, 17, 18, 17, 19, 17]
50.457[17, 19, 42, 17, 19, 17, 19, 19]
50.479[17, 19, 39, 17, 18, 18, 20, 20]
50.501[16, 17, 38, 18, 19, 19, 19, 19]
50.516