[24, 24, 21, 19, 23, 23, 19, 20]
1.03[23, 25, 23, 20, 23, 24, 20, 20]
1.054[23, 23, 25, 20, 24, 25, 19, 22]
1.076[22, 23, 25, 20, 24, 26, 20, 22]
1.092[20, 22, 23, 21, 24, 24, 20, 20]
1.114[19, 20, 23, 19, 21, 22, 20, 19]
1.136[20, 20, 21, 18, 20, 21, 19, 20]
1.155[20, 20, 18, 19, 18, 20, 18, 18]
1.174[20, 20, 19, 17, 20, 17, 18, 19]
1.197[20, 19, 18, 17, 20, 15, 19, 19]
1.22[18, 19, 17, 17, 21, 16, 20, 20]
1.234[17, 20, 17, 19, 20, 16, 20, 21]
1.257[18, 20, 16, 18, 22, 17, 21, 22]
1.271[19, 18, 17, 17, 20, 17, 21, 22]
1.294[19, 18, 16, 17, 21, 19, 22, 20]
1.317[20, 18, 17, 19, 18, 18, 21, 19]
1.331[21, 16, 18, 16, 21, 19, 22, 19]
1.354[21, 16, 18, 17, 20, 18, 22, 18]
1.377[20, 18, 18, 18, 19, 22, 26, 19]
1.391[20, 17, 18, 20, 27, 24, 24, 21]
1.414[20, 16, 20, 19, 30, 25, 23, 21]
1.437[20, 18, 19, 20, 31, 26, 23, 20]
1.451[18, 19, 21, 21, 34, 27, 24, 20]
1.474[19, 20, 22, 21, 35, 26, 20, 18]
1.496[18, 19, 23, 20, 28, 24, 21, 18]
1.519[17, 21, 20, 20, 27, 25, 22, 17]
1.534[16, 20, 21, 20, 24, 23, 21, 18]
1.558[18, 19, 22, 19, 23, 23, 19, 17]
1.579[19, 18, 21, 20, 22, 23, 18, 17]
1.602[19, 21, 21, 20, 23, 25, 20, 19]
1.617[17, 21, 22, 21, 22, 22, 19, 19]
1.639[18, 21, 22, 21, 24, 23, 20, 19]
1.655[18, 22, 19, 23, 22, 22, 21, 20]
1.685[18, 22, 20, 22, 21, 22, 22, 20]
1.707[19, 19, 19, 22, 22, 19, 20, 18]
1.715[19, 20, 21, 22, 20, 19, 21, 19]
1.745[18, 19, 21, 21, 17, 18, 21, 19]
1.76[18, 18, 21, 20, 19, 18, 21, 19]
1.775[19, 19, 23, 20, 20, 15, 19, 18]
1.797[19, 19, 24, 21, 20, 16, 19, 19]
1.82[20, 18, 22, 22, 20, 18, 18, 18]
1.836[20, 19, 23, 22, 23, 18, 20, 19]
1.857[20, 19, 22, 21, 23, 17, 19, 20]
1.887[19, 20, 20, 21, 24, 18, 20, 21]
1.894[18, 21, 21, 19, 21, 20, 21, 20]
1.917[19, 22, 20, 19, 21, 19, 21, 21]
1.939[19, 22, 20, 21, 20, 21, 19, 19]
1.968[18, 21, 21, 21, 19, 22, 19, 19]
1.983[18, 20, 21, 21, 19, 21, 19, 20]
2.007[18, 19, 18, 21, 21, 22, 19, 20]
2.021[17, 18, 20, 20, 22, 22, 19, 19]
2.05[18, 17, 21, 17, 22, 21, 21, 19]
2.067[18, 18, 20, 19, 22, 21, 21, 19]
2.081[18, 19, 22, 20, 21, 20, 22, 18]
2.103[19, 17, 22, 21, 21, 18, 21, 19]
2.119[20, 18, 20, 21, 20, 18, 23, 19]
2.14[19, 18, 19, 22, 22, 19, 22, 19]
2.163[19, 22, 18, 21, 21, 19, 22, 18]
2.187[21, 22, 16, 21, 21, 20, 21, 16]
2.2[20, 23, 17, 22, 21, 20, 21, 15]
2.222[19, 22, 20, 23, 22, 20, 19, 18]
2.247[19, 22, 21, 23, 22, 19, 19, 20]
2.26[21, 19, 22, 24, 23, 20, 17, 20]
2.283[19, 19, 22, 22, 22, 20, 16, 21]
2.298[19, 19, 21, 22, 22, 20, 17, 20]
2.321[19, 19, 19, 21, 20, 20, 17, 19]
2.343[18, 19, 19, 20, 19, 21, 16, 17]
2.358[17, 18, 19, 20, 17, 20, 17, 17]
2.38[19, 18, 19, 21, 18, 19, 18, 17]
2.403[19, 20, 19, 20, 19, 19, 18, 19]
2.418[19, 22, 19, 21, 19, 18, 18, 19]
2.448[20, 22, 17, 20, 21, 16, 18, 20]
2.463[21, 22, 19, 18, 20, 16, 17, 20]
2.478[20, 22, 21, 19, 19, 17, 17, 20]
2.508[19, 23, 21, 17, 16, 17, 17, 19]
2.523[20, 21, 22, 15, 18, 17, 17, 19]
2.538[19, 19, 22, 15, 18, 17, 17, 18]
2.56[19, 19, 22, 18, 19, 18, 19, 17]
2.582[17, 19, 23, 17, 19, 19, 19, 17]
2.598[19, 19, 24, 19, 21, 19, 19, 18]
2.62[19, 18, 25, 21, 23, 19, 19, 18]
2.643[19, 20, 26, 23, 22, 20, 18, 19]
2.658[18, 21, 26, 22, 22, 20, 17, 20]
2.688[19, 20, 25, 22, 23, 18, 16, 19]
2.711[18, 21, 23, 21, 22, 20, 16, 18]
2.718[18, 20, 22, 21, 19, 20, 16, 18]
2.74[18, 19, 22, 21, 19, 21, 17, 18]
2.763[19, 19, 22, 21, 20, 20, 17, 18]
2.778[19, 20, 21, 21, 17, 21, 17, 17]
2.8[18, 18, 24, 20, 18, 20, 19, 18]
2.831[19, 20, 24, 20, 18, 19, 18, 17]
2.838[18, 21, 22, 21, 20, 17, 18, 17]
2.86[19, 21, 24, 21, 21, 16, 19, 17]
2.883[19, 23, 23, 22, 23, 15, 20, 17]
2.899[20, 24, 20, 23, 22, 17, 18, 16]
2.922[19, 24, 20, 18, 23, 19, 20, 17]
2.942[18, 24, 22, 20, 22, 20, 19, 16]
2.965[18, 24, 22, 19, 19, 19, 17, 15]
2.98[19, 25, 22, 19, 18, 20, 17, 18]
3.003[18, 23, 22, 19, 19, 18, 18, 18]
3.025[21, 24, 23, 20, 17, 17, 17, 19]
3.042[22, 23, 21, 18, 18, 16, 17, 20]
3.071[21, 24, 21, 19, 19, 21, 18, 20]
3.085[19, 22, 20, 18, 19, 22, 16, 19]
3.102[19, 22, 21, 18, 20, 23, 17, 18]
3.123[16, 20, 18, 21, 20, 24, 17, 18]
3.145[16, 20, 19, 20, 19, 24, 18, 17]
3.16[16, 20, 19, 18, 17, 21, 18, 18]
3.182[15, 22, 20, 21, 18, 19, 21, 17]
3.205[15, 22, 19, 21, 18, 19, 20, 18]
3.22[19, 20, 19, 18, 19, 17, 20, 18]
3.244[23, 21, 19, 21, 20, 18, 18, 18]
3.265[26, 21, 20, 22, 19, 18, 19, 17]
3.28[27, 19, 20, 18, 19, 20, 16, 17]
3.303[27, 20, 19, 22, 18, 22, 17, 16]
3.325[26, 20, 20, 22, 18, 23, 18, 17]
3.348[21, 25, 19, 24, 17, 22, 19, 19]
3.363[18, 25, 20, 25, 18, 22, 37, 20]
3.385[18, 25, 21, 25, 19, 20, 39, 20]
3.4[18, 24, 21, 24, 19, 17, 40, 21]
3.422[21, 24, 21, 23, 21, 17, 39, 20]
3.445[20, 19, 44, 21, 22, 17, 39, 19]
3.46[20, 21, 55, 24, 23, 16, 23, 18]
3.483[22, 21, 56, 25, 23, 15, 19, 17]
3.506[23, 31, 57, 23, 23, 17, 19, 18]
3.52[21, 33, 58, 24, 20, 15, 21, 18]
3.543[22, 33, 44, 23, 19, 17, 21, 19]
3.565[21, 30, 29, 20, 20, 17, 21, 18]
3.58[21, 30, 25, 20, 19, 19, 21, 20]
3.603[22, 19, 24, 22, 20, 19, 20, 18]
3.626[22, 16, 22, 24, 21, 19, 20, 19]
3.64[22, 19, 21, 22, 21, 19, 19, 17]
3.663[24, 19, 21, 23, 20, 21, 18, 19]
3.693[23, 20, 21, 22, 20, 21, 19, 16]
3.7[20, 22, 23, 21, 19, 20, 18, 19]
3.723[20, 21, 23, 19, 19, 21, 19, 19]
3.754[20, 20, 22, 19, 20, 22, 19, 18]
3.761[19, 23, 21, 18, 20, 21, 19, 17]
3.783[20, 24, 22, 18, 24, 19, 19, 20]
3.805[21, 22, 21, 19, 26, 20, 20, 18]
3.82[22, 24, 21, 18, 25, 22, 18, 17]
3.843[21, 24, 21, 17, 23, 20, 19, 19]
3.865[22, 22, 21, 18, 22, 20, 19, 18]
3.888[22, 21, 20, 20, 19, 20, 21, 19]
3.902[23, 20, 21, 20, 17, 19, 21, 20]
3.925[21, 20, 20, 23, 18, 16, 20, 23]
3.948[22, 19, 19, 24, 20, 19, 20, 21]
3.962[19, 19, 21, 23, 19, 19, 23, 22]
3.985[20, 20, 20, 23, 20, 19, 20, 19]
4.008[21, 21, 20, 23, 19, 20, 19, 22]
4.022[22, 22, 21, 20, 19, 21, 20, 21]
4.045[21, 22, 21, 20, 19, 20, 20, 20]
4.068[23, 22, 20, 19, 19, 21, 19, 21]
4.083[22, 21, 20, 17, 19, 22, 18, 22]
4.105[20, 21, 21, 16, 19, 21, 20, 19]
4.129[19, 19, 21, 16, 20, 21, 20, 17]
4.143[19, 20, 24, 18, 20, 20, 19, 18]
4.165[20, 19, 23, 20, 21, 20, 18, 18]
4.188[19, 18, 23, 21, 20, 19, 18, 16]
4.202[19, 19, 21, 22, 22, 22, 20, 19]
4.225[20, 23, 55, 28, 22, 21, 21, 20]
4.249[20, 22, 57, 27, 22, 20, 21, 21]
4.262[16, 24, 57, 26, 21, 19, 21, 19]
4.285[17, 24, 59, 27, 20, 18, 22, 21]
4.308[18, 24, 60, 27, 17, 17, 19, 20]
4.322[18, 20, 32, 24, 17, 17, 19, 23]
4.345[23, 22, 26, 22, 17, 17, 19, 22]
4.368[23, 20, 27, 21, 18, 17, 19, 23]
4.382[23, 21, 25, 20, 18, 18, 17, 24]
4.405[23, 19, 22, 19, 19, 16, 19, 22]
4.428[23, 21, 21, 19, 19, 18, 18, 19]
4.443[21, 19, 21, 19, 21, 20, 19, 19]
4.466[21, 19, 21, 20, 21, 20, 19, 18]
4.489[20, 19, 20, 20, 22, 21, 18, 15]
4.503[23, 21, 22, 22, 21, 21, 16, 18]
4.525[23, 19, 22, 21, 20, 18, 15, 17]
4.548[20, 21, 23, 21, 20, 20, 13, 18]
4.563[21, 21, 23, 21, 20, 21, 13, 19]
4.594[21, 21, 23, 22, 18, 18, 13, 19]
4.608[21, 21, 21, 21, 21, 19, 14, 17]
4.622[20, 20, 22, 19, 20, 19, 16, 18]
4.645[21, 20, 22, 19, 18, 17, 17, 19]
4.669[21, 20, 21, 18, 18, 16, 17, 18]
4.683[21, 20, 21, 16, 19, 17, 19, 19]
4.705[20, 20, 21, 17, 17, 18, 19, 21]
4.728[22, 19, 20, 21, 19, 19, 19, 42]
4.742[24, 20, 20, 23, 20, 19, 21, 59]
4.765[25, 22, 20, 23, 19, 20, 20, 60]
4.788[24, 21, 21, 24, 20, 19, 19, 61]
4.803[25, 20, 22, 22, 21, 18, 19, 62]
4.825[23, 22, 21, 19, 19, 18, 19, 50]
4.849[20, 21, 20, 18, 18, 18, 18, 29]
4.871[19, 19, 20, 19, 17, 16, 18, 27]
4.885[21, 20, 17, 18, 18, 17, 18, 26]
4.908[20, 21, 15, 19, 18, 17, 17, 22]
4.932[20, 21, 19, 21, 18, 17, 18, 21]
4.945[20, 21, 18, 21, 19, 19, 20, 22]
4.969[21, 21, 20, 21, 21, 18, 21, 21]
4.998[18, 20, 20, 21, 20, 19, 22, 22]
5.005[18, 20, 20, 23, 20, 20, 22, 22]
5.028[19, 18, 20, 23, 20, 20, 21, 21]
5.051[19, 17, 22, 22, 20, 18, 21, 20]
5.065[17, 18, 21, 23, 18, 19, 21, 22]
5.088[17, 17, 21, 23, 18, 20, 21, 19]
5.111[20, 16, 22, 22, 18, 21, 21, 20]
5.125[20, 18, 20, 21, 20, 21, 21, 19]
5.149[21, 20, 20, 20, 20, 21, 21, 18]
5.171[23, 20, 19, 20, 20, 21, 19, 18]
5.185[24, 21, 19, 20, 20, 19, 21, 17]
5.209[21, 22, 19, 18, 21, 18, 21, 16]
5.231[20, 21, 19, 19, 20, 17, 21, 16]
5.246[19, 21, 17, 19, 22, 16, 22, 16]
5.269[18, 19, 16, 20, 23, 16, 20, 16]
5.291[19, 17, 19, 20, 23, 18, 19, 19]
5.305[19, 17, 20, 22, 20, 17, 20, 19]
5.328[19, 18, 20, 23, 21, 18, 19, 21]
5.351[18, 16, 20, 23, 18, 19, 17, 21]
5.365[19, 17, 22, 22, 18, 22, 19, 21]
5.389[17, 18, 20, 21, 18, 20, 18, 19]
5.411[20, 18, 18, 21, 20, 25, 18, 20]
5.425[20, 17, 19, 20, 20, 24, 21, 19]
5.449[20, 18, 20, 20, 21, 24, 22, 19]
5.471[20, 19, 19, 19, 21, 21, 20, 18]
5.486[18, 20, 19, 19, 21, 23, 21, 19]
5.508[15, 19, 18, 19, 20, 18, 20, 18]
5.531[17, 20, 22, 20, 20, 18, 20, 21]
5.545[18, 20, 20, 18, 18, 18, 19, 21]
5.568[16, 19, 21, 19, 19, 20, 18, 22]
5.591[18, 19, 22, 20, 18, 19, 20, 21]
5.605[21, 19, 24, 20, 19, 19, 20, 21]
5.636[21, 21, 22, 20, 18, 20, 19, 18]
5.651[21, 21, 23, 22, 20, 22, 19, 19]
5.665[22, 21, 24, 22, 20, 20, 20, 17]
5.696[22, 21, 24, 21, 21, 22, 20, 18]
5.711[18, 21, 22, 22, 20, 22, 20, 18]
5.725[18, 19, 21, 19, 19, 22, 19, 17]
5.748[17, 19, 23, 18, 15, 20, 19, 17]
5.771[15, 20, 21, 19, 16, 19, 19, 18]
5.81[18, 18, 24, 20, 18, 19, 17, 17]
5.811[19, 18, 24, 20, 18, 19, 19, 18]
5.831[18, 19, 25, 20, 20, 19, 18, 18]
5.854[19, 20, 23, 20, 22, 19, 19, 20]
5.869[18, 20, 23, 18, 22, 20, 18, 21]
5.891[18, 21, 21, 18, 21, 20, 18, 21]
5.913[17, 22, 20, 17, 21, 20, 15, 19]
5.928[18, 23, 20, 17, 21, 19, 17, 19]
5.951[19, 20, 21, 16, 19, 18, 17, 17]
5.973[19, 19, 21, 18, 19, 21, 17, 18]
5.988[18, 20, 21, 17, 18, 20, 17, 19]
6.018[18, 18, 21, 21, 20, 19, 19, 18]
6.041[17, 16, 21, 21, 19, 20, 19, 19]
6.048[15, 16, 20, 23, 19, 21, 18, 18]
6.071[19, 18, 19, 22, 19, 16, 18, 18]
6.093[17, 19, 17, 23, 20, 17, 19, 16]
6.108[19, 18, 18, 20, 18, 17, 17, 19]
6.131[20, 20, 18, 20, 20, 18, 16, 19]
6.153[20, 19, 18, 20, 23, 18, 20, 19]
6.168[18, 19, 19, 20, 23, 18, 22, 19]
6.191[21, 18, 21, 18, 22, 17, 21, 19]
6.214[19, 17, 21, 18, 22, 17, 23, 17]
6.229[20, 17, 21, 17, 20, 17, 22, 17]
6.251[22, 18, 21, 19, 16, 17, 20, 17]
6.273[21, 18, 35, 19, 14, 18, 18, 16]
6.288[20, 22, 56, 25, 17, 19, 22, 19]
6.311[20, 22, 58, 28, 16, 19, 21, 18]
6.333[19, 23, 59, 28, 19, 18, 20, 19]
6.348[19, 24, 60, 26, 21, 19, 20, 18]
6.371[20, 25, 54, 28, 23, 19, 20, 18]
6.401[20, 24, 30, 23, 21, 19, 15, 17]
6.408[19, 24, 24, 20, 22, 19, 15, 19]
6.431[19, 23, 23, 20, 21, 20, 18, 18]
6.453[18, 23, 20, 22, 20, 20, 19, 18]
6.468[19, 21, 22, 18, 18, 21, 19, 19]
6.491[19, 20, 22, 21, 19, 19, 20, 18]
6.514[20, 21, 23, 21, 19, 20, 19, 18]
6.528[21, 21, 22, 22, 18, 20, 19, 18]
6.558[21, 22, 22, 20, 20, 20, 19, 18]
6.573[19, 21, 18, 21, 20, 19, 19, 17]
6.588[20, 20, 18, 18, 21, 20, 20, 18]
6.611[20, 20, 16, 20, 22, 21, 20, 18]
6.64[19, 18, 18, 19, 22, 20, 19, 19]
6.655[19, 17, 19, 20, 19, 20, 18, 19]
6.678[20, 17, 20, 19, 20, 20, 20, 19]
6.694[20, 19, 21, 19, 19, 19, 19, 18]
6.715[20, 20, 21, 20, 18, 20, 20, 18]
6.731[22, 20, 21, 20, 19, 19, 20, 18]
6.753[24, 20, 22, 18, 20, 19, 20, 17]
6.775[24, 23, 22, 19, 19, 21, 20, 17]
6.791[24, 22, 21, 18, 17, 23, 19, 19]
6.813[24, 19, 22, 15, 18, 21, 19, 20]
6.835[23, 20, 20, 18, 18, 22, 21, 18]
6.851[21, 21, 21, 20, 18, 23, 22, 19]
6.874[20, 21, 22, 20, 18, 20, 21, 20]
6.895[18, 20, 22, 23, 19, 19, 23, 18]
6.912[18, 20, 22, 23, 19, 18, 22, 19]
6.94[18, 20, 22, 20, 18, 18, 19, 20]
6.957[18, 19, 21, 19, 17, 17, 20, 20]
6.971[17, 17, 21, 18, 16, 22, 19, 20]
6.992[20, 17, 20, 17, 16, 21, 19, 22]
7.015[20, 18, 20, 19, 16, 22, 19, 21]
7.032[20, 18, 21, 19, 16, 24, 21, 20]
7.06[22, 18, 21, 19, 17, 24, 19, 19]
7.075[21, 20, 19, 20, 20, 21, 19, 18]
7.091[19, 21, 20, 21, 20, 21, 17, 17]
7.113[19, 21, 18, 20, 21, 23, 17, 17]
7.135[20, 21, 19, 21, 22, 21, 17, 17]
7.152[18, 23, 17, 21, 23, 21, 18, 17]
7.173[18, 20, 19, 20, 24, 20, 19, 17]
7.197[21, 20, 19, 19, 22, 20, 20, 17]
7.211[21, 20, 21, 22, 21, 18, 21, 17]
7.232[19, 22, 22, 22, 21, 19, 20, 17]
7.256[21, 20, 22, 22, 19, 19, 19, 17]
7.272[21, 19, 20, 23, 17, 20, 19, 18]
7.292[19, 20, 21, 24, 17, 21, 19, 17]
7.339[19, 21, 21, 22, 19, 20, 18, 18]
7.34[19, 19, 19, 22, 18, 19, 19, 18]
7.352[18, 20, 20, 22, 20, 20, 18, 19]
7.375[18, 21, 21, 21, 19, 18, 18, 20]
7.391[19, 20, 21, 18, 21, 17, 18, 20]
7.413[20, 18, 21, 19, 20, 16, 19, 19]
7.435[19, 18, 20, 19, 20, 18, 17, 22]
7.451[17, 21, 19, 19, 20, 16, 17, 23]
7.472[18, 20, 19, 18, 20, 16, 19, 21]
7.495[16, 21, 18, 19, 19, 17, 21, 22]
7.511[16, 22, 18, 18, 19, 19, 21, 23]
7.532[17, 23, 19, 18, 20, 17, 21, 20]
7.555[18, 21, 20, 17, 19, 17, 22, 18]
7.586[18, 21, 19, 18, 20, 18, 21, 19]
7.593[18, 21, 21, 17, 21, 19, 19, 19]
7.615[18, 21, 21, 19, 22, 18, 20, 18]
7.631[19, 21, 21, 20, 21, 18, 21, 17]
7.653[18, 20, 22, 19, 22, 18, 21, 18]
7.684[16, 21, 23, 22, 21, 18, 19, 18]
7.698[16, 21, 22, 23, 20, 18, 19, 17]
7.713[18, 21, 23, 21, 20, 18, 18, 18]
7.735[17, 21, 25, 20, 22, 19, 19, 18]
7.757[17, 22, 24, 21, 21, 18, 18, 19]
7.773[19, 21, 23, 20, 21, 19, 18, 18]
7.795[19, 22, 22, 19, 21, 18, 19, 19]
7.818[18, 23, 22, 20, 20, 17, 20, 19]
7.833[19, 24, 19, 20, 19, 17, 18, 19]
7.857[19, 23, 20, 19, 19, 18, 18, 18]
7.878[17, 24, 20, 17, 19, 18, 18, 17]
7.893[17, 22, 22, 19, 20, 17, 19, 16]
7.915[18, 22, 20, 17, 20, 20, 17, 19]
7.937[17, 20, 20, 17, 19, 20, 18, 18]
7.96[18, 20, 22, 18, 19, 19, 17, 19]
7.975[18, 20, 23, 18, 19, 20, 18, 20]
7.997[18, 20, 22, 17, 18, 20, 17, 22]
8.013[19, 20, 23, 19, 17, 18, 17, 19]
8.035[20, 17, 22, 21, 18, 17, 17, 19]
8.066[18, 18, 20, 36, 19, 20, 17, 19]
8.073[18, 19, 20, 38, 23, 20, 19, 20]
8.095[18, 20, 19, 38, 24, 20, 18, 19]
8.117[16, 20, 18, 39, 24, 22, 18, 19]
8.134[15, 22, 20, 38, 25, 22, 21, 19]
8.156[16, 22, 21, 26, 24, 20, 21, 18]
8.178[16, 21, 20, 23, 21, 19, 20, 17]
8.193[18, 22, 20, 24, 21, 19, 21, 15]
8.215[19, 21, 20, 21, 21, 18, 21, 17]
8.237[20, 19, 19, 21, 21, 18, 19, 16]
8.253[22, 20, 17, 18, 20, 18, 20, 18]
8.275[22, 19, 17, 17, 21, 19, 19, 19]
8.297[20, 17, 18, 17, 19, 20, 19, 19]
8.313[19, 18, 18, 17, 21, 18, 20, 19]
8.343[18, 20, 17, 18, 21, 20, 19, 21]
8.357[17, 18, 18, 20, 21, 19, 21, 21]
8.373[18, 18, 20, 20, 19, 20, 20, 22]
8.396[20, 18, 19, 21, 19, 18, 21, 21]
8.417[21, 21, 52, 24, 18, 21, 20, 21]
8.448[20, 19, 55, 23, 18, 19, 20, 20]
8.455[20, 19, 55, 24, 19, 19, 19, 20]
8.478[20, 20, 55, 24, 19, 19, 20, 18]
8.493[18, 23, 56, 23, 20, 21, 18, 20]
8.515[18, 20, 31, 20, 18, 18, 19, 18]
8.537[19, 20, 25, 21, 18, 18, 19, 19]
8.553[20, 21, 25, 20, 20, 20, 17, 18]
8.575[19, 21, 24, 21, 22, 18, 18, 19]
8.598[19, 20, 23, 23, 21, 18, 18, 16]
8.62[21, 21, 22, 23, 23, 18, 18, 16]
8.635[20, 22, 23, 23, 22, 19, 19, 16]
8.657[20, 21, 23, 23, 22, 17, 20, 16]
8.688[20, 22, 22, 21, 21, 19, 19, 16]
8.695[21, 21, 22, 22, 21, 18, 19, 17]
8.717[20, 20, 20, 21, 20, 18, 17, 18]
8.74[20, 22, 20, 22, 21, 17, 19, 17]
8.755[19, 21, 20, 20, 20, 17, 19, 17]
8.777[19, 22, 21, 21, 20, 17, 20, 19]
8.8[18, 22, 21, 19, 18, 18, 20, 22]
8.815[17, 21, 23, 19, 19, 20, 20, 22]
8.838[18, 20, 21, 19, 18, 19, 21, 22]
8.86[18, 20, 21, 18, 17, 20, 20, 23]
8.875[18, 19, 23, 20, 18, 19, 21, 22]
8.898[19, 20, 22, 19, 19, 20, 21, 21]
8.921[20, 20, 21, 18, 19, 20, 22, 22]
8.935[19, 18, 21, 18, 21, 20, 20, 22]
8.958[18, 20, 22, 19, 20, 18, 20, 20]
8.98[19, 21, 21, 19, 20, 18, 19, 21]
8.995[20, 20, 21, 18, 21, 17, 19, 19]
9.018[19, 21, 21, 17, 22, 17, 20, 17]
9.04[18, 21, 22, 17, 20, 17, 20, 18]
9.055[22, 21, 20, 17, 20, 18, 20, 18]
9.077[21, 20, 20, 17, 21, 19, 18, 17]
9.1[20, 20, 20, 19, 20, 18, 18, 17]
9.115[20, 19, 20, 19, 23, 19, 17, 17]
9.137[21, 19, 21, 19, 23, 20, 16, 16]
9.16[19, 18, 23, 19, 23, 19, 16, 17]
9.177[17, 19, 22, 17, 22, 19, 18, 16]
9.198[18, 20, 22, 17, 21, 20, 17, 19]
9.22[20, 20, 23, 17, 17, 18, 20, 19]
9.235[20, 21, 22, 16, 15, 18, 20, 19]
9.258[21, 22, 21, 17, 17, 20, 22, 18]
9.28[22, 21, 22, 17, 19, 20, 21, 19]
9.295[22, 21, 22, 18, 21, 20, 22, 17]
9.318[21, 20, 21, 18, 22, 20, 20, 19]
9.34[21, 19, 21, 18, 23, 19, 20, 19]
9.355[20, 19, 22, 17, 21, 19, 18, 20]
9.378[19, 19, 20, 18, 21, 19, 20, 21]
9.4[21, 19, 23, 17, 18, 19, 20, 20]
9.415[19, 21, 22, 18, 18, 18, 20, 18]
9.438[20, 20, 23, 21, 18, 18, 19, 17]
9.461[19, 19, 22, 22, 19, 18, 20, 16]
9.476[20, 20, 23, 22, 19, 18, 20, 15]
9.497[19, 21, 20, 23, 22, 19, 20, 15]
9.521[19, 23, 22, 30, 25, 22, 20, 14]
9.535[20, 25, 24, 39, 29, 26, 21, 18]
9.557[22, 26, 26, 43, 35, 29, 23, 20]
9.581[24, 28, 33, 60, 146, 40, 26, 22]
9.603[27, 27, 35, 66, 175, 51, 28, 28]
9.618[35, 32, 44, 82, 266, 93, 43, 39]
9.641[43, 42, 58, 99, 285, 117, 52, 48]
9.664[49, 48, 70, 153, 339, 199, 95, 75]
9.678[71, 79, 113, 179, 462, 284, 119, 110]
9.7[85, 104, 168, 290, 527, 310, 137, 143]
9.723[103, 132, 211, 317, 633, 331, 150, 153]
9.738[123, 165, 237, 422, 652, 375, 175, 164]
9.76[156, 208, 269, 579, 651, 368, 184, 173]
9.783[150, 202, 265, 609, 596, 327, 203, 157]
9.797[155, 207, 254, 645, 579, 326, 206, 133]
9.82[153, 205, 234, 704, 479, 303, 205, 123]
9.843[148, 190, 222, 668, 534, 255, 194, 133]
9.858[119, 147, 200, 580, 523, 229, 177, 132]
9.88[118, 143, 190, 582, 503, 206, 158, 138]
9.903[111, 132, 184, 546, 502, 183, 165, 144]
9.917[101, 113, 175, 536, 459, 177, 196, 152]
9.941[87, 102, 163, 552, 382, 209, 188, 128]
9.963[76, 97, 151, 526, 384, 197, 183, 104]
9.978[77, 105, 172, 498, 363, 219, 172, 92]
10.009[70, 112, 204, 483, 349, 238, 186, 82]
10.031[67, 106, 202, 473, 369, 241, 169, 76]
10.038[64, 99, 198, 443, 373, 211, 199, 81]
10.061[62, 93, 187, 444, 387, 221, 216, 115]
10.083[61, 85, 169, 497, 401, 207, 216, 136]
10.098[54, 58, 109, 473, 393, 176, 187, 134]
10.12[52, 65, 109, 450, 380, 180, 167, 127]
10.143[58, 71, 123, 452, 360, 176, 148, 124]
10.157[70, 86, 141, 524, 332, 165, 141, 106]
10.181[68, 95, 136, 474, 343, 195, 149, 82]
10.203[67, 98, 135, 482, 308, 203, 153, 76]
10.218[78, 103, 133, 452, 312, 203, 151, 81]
10.241[74, 110, 122, 441, 314, 200, 129, 83]
10.263[68, 106, 105, 354, 311, 240, 121, 74]
10.277[70, 103, 107, 356, 295, 216, 107, 68]
10.301[71, 100, 104, 355, 300, 207, 102, 83]
10.323[70, 108, 121, 356, 298, 217, 114, 83]
10.346[77, 105, 129, 356, 277, 217, 127, 85]
10.361[77, 102, 133, 325, 269, 171, 132, 105]
10.383[75, 97, 129, 302, 263, 174, 147, 123]
10.397[75, 95, 126, 334, 253, 178, 154, 123]
10.421[65, 79, 107, 311, 230, 186, 158, 132]
10.443[53, 64, 95, 363, 250, 199, 160, 128]
10.457[47, 57, 81, 378, 269, 226, 163, 111]
10.481[46, 53, 78, 407, 254, 222, 173, 91]
10.503[46, 53, 84, 376, 249, 223, 173, 82]
10.526[44, 45, 74, 394, 252, 197, 163, 60]
10.541[51, 49, 82, 375, 262, 186, 149, 77]
10.563[55, 55, 88, 377, 245, 179, 129, 85]
10.586[58, 60, 90, 348, 252, 187, 90, 89]
10.601[56, 58, 84, 331, 247, 185, 78, 87]
10.623[57, 66, 91, 325, 254, 195, 84, 96]
10.653[53, 66, 84, 293, 240, 189, 85, 82]
10.668[48, 62, 83, 259, 242, 180, 87, 89]
10.683[45, 62, 84, 257, 244, 193, 86, 87]
10.706[42, 59, 79, 249, 244, 201, 89, 94]
10.721[42, 52, 75, 219, 243, 200, 85, 94]
10.744[43, 53, 69, 211, 232, 227, 93, 97]
10.766[43, 55, 71, 309, 249, 221, 136, 83]
10.781[41, 52, 66, 327, 237, 200, 137, 79]
10.803[46, 54, 70, 331, 232, 188, 154, 75]
10.826[47, 56, 78, 347, 234, 177, 153, 62]
10.841[55, 61, 95, 359, 230, 147, 149, 71]
10.864[59, 63, 98, 290, 216, 138, 118, 76]
10.886[59, 65, 102, 279, 234, 136, 116, 76]
10.901[60, 66, 112, 304, 244, 149, 86, 72]
10.923[62, 74, 111, 298, 222, 170, 121, 73]
10.946[55, 69, 98, 281, 222, 181, 155, 65]
10.961[60, 78, 104, 274, 233, 187, 160, 80]
10.983[62, 81, 106, 292, 209, 260, 179, 90]
11.006[59, 80, 95, 278, 197, 274, 180, 88]
11.02[57, 76, 94, 280, 209, 263, 158, 94]
11.043[64, 82, 96, 304, 209, 252, 133, 97]
11.066[62, 78, 104, 377, 199, 247, 143, 91]
11.08[63, 75, 100, 374, 212, 162, 121, 97]
11.103[70, 81, 108, 417, 249, 168, 159, 117]
11.126[72, 80, 107, 409, 246, 177, 171, 121]
11.14[66, 74, 110, 420, 252, 186, 170, 123]
11.164[65, 66, 93, 376, 242, 206, 155, 117]
11.186[61, 63, 93, 362, 251, 210, 163, 115]
11.2[57, 53, 86, 345, 218, 180, 127, 102]
11.223[56, 49, 87, 378, 253, 186, 121, 104]
11.246[61, 52, 86, 359, 243, 183, 123, 119]
11.26[60, 58, 94, 348, 253, 160, 130, 123]
11.283[64, 62, 96, 348, 236, 172, 127, 139]
11.305[67, 69, 93, 323, 262, 190, 147, 162]
11.328[65, 68, 97, 344, 224, 172, 144, 160]
11.343[64, 71, 97, 339, 233, 168, 154, 154]
11.366[61, 67, 90, 336, 233, 174, 163, 170]
11.38[59, 62, 90, 356, 232, 164, 159, 163]
11.403[56, 62, 103, 355, 210, 140, 139, 142]
11.427[58, 68, 104, 314, 221, 144, 138, 139]
11.44[55, 72, 113, 365, 252, 148, 118, 132]
11.463[52, 70, 109, 381, 239, 157, 99, 115]
11.486[51, 71, 106, 441, 253, 153, 104, 104]
11.508[53, 68, 97, 429, 248, 154, 109, 151]
11.523[54, 66, 95, 432, 241, 198, 195, 149]
11.545[56, 62, 82, 411, 190, 200, 196, 150]
11.568[65, 72, 101, 406, 191, 192, 198, 146]
11.583[67, 73, 99, 346, 162, 195, 196, 144]
11.606[60, 69, 95, 351, 199, 220, 195, 88]
11.627[58, 68, 91, 336, 199, 181, 127, 108]
11.644[58, 68, 103, 320, 203, 182, 141, 108]
11.673[55, 60, 92, 319, 209, 179, 140, 106]
11.687[56, 63, 93, 316, 216, 218, 140, 104]
11.704[55, 62, 93, 309, 199, 206, 138, 103]
11.726[57, 63, 95, 309, 195, 208, 118, 98]
11.747[51, 56, 83, 301, 202, 204, 105, 92]
11.764[44, 53, 76, 295, 198, 200, 91, 92]
11.785[55, 60, 85, 297, 208, 192, 82, 89]
11.807[60, 65, 89, 312, 214, 179, 84, 94]
11.824[56, 63, 87, 341, 206, 176, 79, 87]
11.845[58, 61, 84, 330, 203, 174, 94, 92]
11.867[63, 65, 92, 349, 240, 198, 170, 103]
11.884[56, 55, 88, 332, 235, 170, 182, 106]
11.905[54, 52, 84, 316, 216, 177, 185, 102]
11.927[63, 63, 91, 325, 255, 208, 187, 92]
11.944[63, 64, 87, 334, 260, 209, 179, 83]
11.965[58, 60, 81, 293, 293, 197, 130, 88]
11.988[61, 66, 80, 274, 311, 193, 131, 116]
12.004[59, 66, 82, 297, 317, 185, 127, 121]
12.025[50, 54, 70, 302, 312, 179, 127, 123]
12.047[91, 57, 74, 292, 330, 223, 124, 130]
12.064[128, 60, 71, 298, 268, 236, 110, 123]
12.085[127, 61, 81, 320, 254, 237, 95, 105]
12.107[127, 58, 80, 323, 268, 251, 99, 109]
12.124[131, 81, 110, 270, 271, 292, 158, 121]
12.145[108, 84, 112, 298, 271, 261, 158, 117]
12.168[59, 83, 116, 286, 277, 246, 155, 109]
12.184[63, 87, 114, 284, 264, 242, 158, 104]
12.205[65, 92, 119, 263, 242, 236, 158, 91]
12.227[61, 76, 99, 284, 208, 159, 109, 96]
12.251[60, 72, 94, 277, 185, 181, 112, 92]
12.265[59, 70, 92, 317, 194, 171, 123, 103]
12.287[57, 69, 91, 330, 205, 168, 111, 103]
12.304[56, 69, 94, 330, 222, 162, 119, 102]
12.325[51, 66, 86, 303, 223, 169, 133, 78]
12.347[52, 68, 90, 301, 216, 162, 151, 78]
12.364[54, 73, 93, 271, 213, 163, 152, 67]
12.392[53, 65, 91, 250, 236, 184, 156, 77]
12.407[63, 68, 86, 266, 234, 261, 149, 79]
12.438[72, 68, 82, 293, 247, 275, 154, 116]
12.445[71, 66, 80, 279, 247, 262, 132, 117]
12.467[73, 63, 73, 284, 267, 269, 158, 119]
12.49[78, 74, 72, 299, 271, 299, 159, 108]
12.506[70, 67, 63, 276, 258, 266, 154, 105]
12.527[81, 79, 83, 315, 270, 253, 136, 98]
12.55[88, 79, 83, 314, 267, 258, 144, 104]
12.565[85, 79, 91, 320, 241, 255, 111, 103]
12.588[77, 67, 86, 295, 206, 224, 107, 103]
12.61[77, 70, 92, 311, 206, 192, 106, 108]
12.625[55, 56, 77, 270, 211, 210, 110, 86]
12.647[48, 60, 74, 356, 247, 216, 126, 94]
12.67[53, 63, 64, 365, 264, 240, 126, 100]
12.685[54, 64, 69, 385, 286, 222, 126, 100]
12.708[51, 60, 65, 389, 285, 213, 127, 97]
12.73[55, 63, 74, 416, 279, 203, 111, 90]
12.745[51, 55, 77, 352, 266, 193, 93, 83]
12.767[58, 63, 92, 354, 257, 158, 85, 72]
12.79[59, 63, 91, 329, 255, 169, 96, 90]
12.805[62, 62, 88, 315, 275, 181, 99, 98]
12.827[63, 63, 87, 275, 286, 172, 100, 100]
12.85[61, 65, 87, 283, 302, 184, 108, 104]
12.865[50, 51, 71, 288, 297, 182, 113, 109]
12.888[49, 49, 67, 313, 281, 179, 101, 102]
12.91[46, 52, 73, 366, 269, 162, 103, 96]
12.925[42, 46, 67, 379, 243, 147, 102, 92]
12.948[45, 52, 73, 395, 210, 148, 83, 76]
12.97[49, 54, 74, 364, 210, 165, 83, 78]
12.985[48, 53, 75, 358, 215, 166, 104, 86]
13.007[48, 55, 79, 342, 217, 175, 100, 84]
13.03[48, 55, 78, 306, 211, 182, 100, 83]
13.045[45, 52, 72, 277, 211, 163, 97, 87]
13.067[40, 51, 76, 319, 217, 142, 88, 79]
13.09[38, 50, 77, 307, 226, 134, 67, 62]
13.105[42, 46, 69, 263, 215, 154, 65, 63]
13.127[41, 49, 70, 274, 216, 154, 82, 67]
13.15[42, 49, 73, 323, 232, 169, 90, 66]
13.165[44, 49, 69, 298, 223, 166, 85, 66]
13.188[44, 50, 68, 298, 194, 164, 85, 65]
13.21[40, 49, 67, 292, 194, 158, 87, 75]
13.225[41, 48, 67, 306, 226, 155, 81, 80]
13.247[39, 45, 59, 246, 241, 139, 72, 75]
13.27[36, 43, 53, 266, 248, 142, 73, 76]
13.285[44, 52, 62, 286, 262, 136, 73, 76]
13.307[43, 53, 64, 291, 277, 121, 70, 63]
13.338[42, 53, 76, 339, 269, 114, 64, 52]
13.352[42, 55, 78, 341, 232, 117, 65, 52]
13.368[46, 60, 89, 330, 218, 118, 67, 53]
13.39[41, 54, 84, 301, 214, 133, 63, 49]
13.412[43, 56, 86, 385, 205, 125, 66, 51]
13.427[43, 54, 78, 353, 187, 126, 61, 52]
13.45[47, 54, 83, 394, 188, 147, 80, 60]
13.48[47, 44, 71, 388, 197, 142, 87, 56]
13.487[49, 47, 76, 393, 189, 138, 90, 63]
13.51[48, 50, 80, 327, 199, 134, 85, 61]
13.532[52, 52, 78, 342, 195, 206, 91, 67]
13.547[47, 49, 70, 310, 218, 199, 75, 63]
13.57[47, 58, 77, 304, 223, 205, 67, 66]
13.592[43, 56, 76, 308, 217, 217, 72, 73]
13.616[47, 56, 73, 320, 208, 278, 79, 79]
13.63[45, 59, 72, 314, 245, 239, 72, 76]
13.652[45, 58, 70, 295, 223, 232, 73, 77]
13.667[42, 50, 66, 316, 217, 226, 72, 73]
13.69[42, 50, 64, 320, 231, 211, 66, 62]
13.713[37, 44, 63, 290, 243, 123, 63, 61]
13.727[46, 51, 79, 246, 209, 112, 62, 58]
13.75[47, 52, 80, 231, 214, 131, 60, 54]
13.772[53, 56, 85, 191, 223, 133, 69, 71]
13.787[55, 61, 87, 208, 216, 160, 69, 70]
13.81[57, 63, 85, 221, 194, 165, 72, 70]
13.832[54, 56, 67, 240, 215, 164, 74, 71]
13.847[56, 55, 68, 258, 254, 157, 71, 79]
13.87[49, 51, 60, 268, 243, 189, 65, 64]
13.893[45, 46, 55, 279, 252, 174, 61, 64]
13.907[45, 44, 59, 273, 260, 165, 55, 66]
13.93[47, 48, 60, 282, 240, 158, 52, 69]
13.953[43, 49, 56, 260, 196, 154, 53, 63]
13.967[45, 50, 56, 258, 222, 117, 51, 62]
13.99[46, 50, 53, 232, 268, 107, 48, 61]
14.012[44, 52, 56, 278, 256, 121, 45, 56]
14.027[36, 43, 56, 257, 261, 121, 42, 56]
14.05[39, 43, 58, 261, 270, 137, 39, 51]
14.072[39, 44, 60, 259, 250, 142, 46, 55]
14.087[40, 44, 64, 326, 197, 139, 62, 56]
14.11[39, 44, 60, 298, 204, 162, 72, 55]
14.132[40, 46, 61, 294, 196, 168, 76, 53]
14.147[37, 42, 63, 332, 183, 153, 79, 51]
14.17[48, 54, 66, 355, 198, 145, 75, 55]
14.192[52, 55, 67, 279, 191, 144, 64, 61]
14.208[53, 56, 67, 279, 187, 124, 74, 70]
14.23[53, 56, 69, 323, 216, 118, 83, 75]
14.252[55, 59, 71, 277, 225, 117, 89, 85]
14.267[49, 51, 66, 249, 203, 137, 87, 86]
14.298[46, 48, 61, 253, 207, 171, 86, 84]
14.312[47, 48, 64, 250, 223, 166, 73, 78]
14.336[46, 45, 63, 231, 197, 174, 57, 69]
14.35[52, 51, 67, 242, 190, 175, 47, 62]
14.372[49, 51, 68, 240, 188, 179, 52, 51]
14.403[45, 51, 67, 262, 248, 152, 63, 57]
14.41[44, 55, 68, 248, 240, 146, 57, 54]
14.433[47, 60, 67, 230, 235, 137, 57, 57]
14.456[38, 54, 66, 241, 251, 137, 54, 52]
14.47[37, 53, 69, 244, 260, 125, 58, 55]
14.492[40, 56, 80, 234, 208, 127, 60, 53]
14.516[38, 49, 76, 245, 235, 160, 67, 51]
14.53[35, 42, 72, 243, 246, 163, 69, 50]
14.552[34, 40, 66, 251, 241, 173, 74, 51]
14.576[34, 40, 68, 280, 273, 175, 68, 55]
14.59[33, 38, 57, 275, 264, 179, 76, 47]
14.612[34, 41, 53, 278, 239, 170, 76, 48]
14.636[39, 51, 70, 268, 236, 166, 75, 51]
14.65[42, 52, 72, 264, 216, 155, 80, 63]
14.673[45, 53, 69, 253, 165, 144, 83, 59]
14.695[45, 53, 69, 263, 172, 194, 79, 57]
14.71[45, 51, 75, 285, 172, 193, 78, 61]
14.732[43, 43, 64, 298, 187, 196, 77, 64]
14.763[44, 47, 64, 305, 188, 198, 68, 54]
14.77[42, 44, 61, 280, 211, 200, 66, 54]
14.792[45, 47, 73, 309, 206, 167, 71, 55]
14.816[50, 55, 71, 279, 273, 161, 71, 57]
14.83[48, 55, 70, 272, 263, 157, 76, 48]
14.852[45, 51, 69, 258, 267, 161, 80, 50]
14.875[44, 50, 68, 267, 288, 172, 82, 51]
14.89[41, 45, 61, 245, 297, 177, 70, 50]
14.913[42, 43, 67, 260, 240, 170, 71, 45]
14.935[46, 51, 70, 252, 263, 187, 74, 54]
14.95[47, 52, 77, 302, 266, 189, 74, 50]
14.973[50, 54, 76, 312, 230, 202, 81, 57]
14.996[51, 55, 74, 295, 219, 177, 81, 66]
15.01[45, 50, 68, 280, 207, 173, 81, 68]
15.033[42, 46, 67, 292, 191, 154, 74, 68]
15.055[40, 45, 65, 234, 197, 154, 71, 68]
15.07[40, 45, 71, 237, 206, 210, 61, 70]
15.093[41, 46, 78, 251, 201, 216, 57, 64]
15.116[42, 49, 81, 270, 197, 216, 51, 61]
15.13[41, 45, 79, 256, 170, 217, 49, 60]
15.153[43, 45, 74, 264, 168, 219, 55, 72]
15.176[43, 43, 70, 289, 157, 158, 75, 68]
15.19[40, 37, 61, 284, 152, 186, 73, 64]
15.213[39, 36, 61, 270, 172, 190, 78, 68]
15.235[36, 39, 63, 266, 173, 195, 79, 65]
15.258[40, 43, 67, 263, 158, 192, 77, 64]
15.273[38, 45, 79, 254, 163, 181, 61, 62]
15.296[39, 48, 78, 245, 177, 142, 64, 69]
15.318[40, 45, 71, 237, 158, 140, 59, 66]
15.333[42, 46, 86, 241, 167, 136, 61, 70]
15.355[39, 48, 92, 253, 195, 138, 58, 57]
15.378[44, 50, 84, 207, 191, 150, 53, 56]
15.393[44, 48, 85, 202, 177, 155, 57, 55]
15.416[44, 52, 89, 211, 190, 159, 55, 54]
15.438[45, 53, 76, 206, 208, 150, 54, 50]
15.453[43, 48, 64, 169, 180, 148, 56, 54]
15.476[43, 46, 59, 190, 179, 158, 70, 58]
15.498[40, 48, 65, 225, 185, 159, 72, 51]
15.513[39, 44, 67, 223, 176, 163, 78, 54]
15.536[41, 46, 64, 250, 146, 171, 83, 53]
15.566[47, 49, 65, 254, 157, 188, 93, 60]
15.573[43, 49, 67, 274, 164, 161, 126, 61]
15.596[45, 48, 68, 276, 157, 170, 128, 66]
15.618[47, 48, 69, 320, 193, 157, 131, 67]
15.633[45, 42, 67, 301, 192, 153, 129, 69]
15.655[38, 36, 67, 322, 204, 131, 120, 62]
15.678[40, 35, 64, 305, 193, 126, 74, 62]
15.693[39, 34, 55, 285, 209, 101, 62, 59]
15.715[38, 35, 45, 244, 191, 104, 49, 55]
15.738[42, 41, 45, 273, 189, 106, 51, 52]
15.753[42, 44, 46, 250, 172, 102, 54, 50]
15.775[42, 42, 47, 240, 179, 106, 63, 59]
15.798[44, 46, 51, 241, 177, 126, 72, 66]
15.813[44, 46, 51, 222, 165, 134, 74, 68]
15.835[40, 42, 57, 185, 171, 134, 78, 73]
15.858[41, 45, 60, 229, 175, 127, 78, 74]
15.872[44, 57, 94, 261, 173, 125, 74, 72]
15.895[44, 55, 95, 293, 173, 116, 73, 73]
15.918[46, 55, 95, 297, 165, 129, 79, 81]
15.932[44, 54, 96, 308, 159, 136, 74, 79]
15.955[48, 53, 96, 283, 149, 138, 79, 88]
15.978[51, 57, 90, 267, 212, 155, 80, 80]
15.993[51, 55, 89, 244, 223, 167, 85, 85]
16.016[49, 54, 91, 238, 249, 158, 86, 78]
16.045[51, 57, 88, 237, 254, 154, 92, 80]
16.052[47, 56, 85, 262, 266, 163, 92, 69]
16.075[40, 43, 58, 245, 219, 153, 90, 69]
16.098[35, 42, 53, 216, 197, 152, 76, 52]
16.112[35, 42, 49, 208, 161, 151, 65, 47]
16.135[35, 38, 53, 195, 154, 160, 63, 54]
16.158[34, 37, 53, 146, 135, 144, 52, 61]
16.172[32, 33, 49, 157, 204, 150, 49, 59]
16.196[39, 40, 57, 201, 202, 151, 57, 64]
16.218[41, 40, 58, 206, 212, 152, 66, 81]
16.24[41, 41, 56, 195, 223, 165, 69, 85]
16.255[43, 43, 65, 214, 238, 181, 80, 84]
16.278[45, 47, 69, 222, 187, 187, 88, 97]
16.308[43, 44, 65, 211, 189, 176, 85, 98]
16.316[45, 50, 69, 233, 196, 171, 78, 86]
16.339[51, 58, 71, 280, 189, 164, 77, 104]
16.361[53, 59, 70, 285, 211, 197, 71, 117]
16.375[53, 60, 69, 300, 224, 194, 64, 111]
16.398[49, 59, 70, 299, 222, 198, 62, 108]
16.42[46, 53, 66, 280, 234, 213, 63, 108]
16.436[37, 48, 64, 264, 239, 220, 62, 86]
16.458[34, 46, 64, 279, 202, 182, 61, 64]
16.481[32, 41, 60, 271, 196, 175, 66, 57]
16.495[37, 45, 72, 281, 229, 170, 71, 62]
16.518[41, 45, 72, 289, 203, 154, 79, 92]
16.54[40, 43, 75, 276, 197, 138, 78, 93]
16.556[39, 42, 72, 260, 232, 138, 77, 90]
16.578[40, 42, 75, 244, 220, 149, 71, 94]
16.6[39, 39, 65, 231, 195, 144, 65, 95]
16.616[40, 40, 64, 224, 192, 149, 55, 71]
16.653[43, 47, 63, 209, 217, 136, 55, 66]
16.659[43, 50, 63, 183, 180, 143, 50, 69]
16.676[43, 50, 60, 195, 178, 136, 51, 70]
16.705[42, 50, 57, 166, 180, 135, 57, 71]
16.719[39, 50, 57, 184, 211, 132, 59, 66]
16.736[35, 43, 49, 187, 180, 132, 53, 58]
16.759[35, 39, 47, 190, 194, 130, 54, 54]
16.78[39, 44, 51, 212, 205, 161, 60, 53]
16.797[50, 52, 52, 278, 235, 174, 62, 85]
16.817[50, 53, 60, 278, 217, 174, 61, 89]
16.839[52, 54, 61, 284, 230, 192, 60, 92]
16.856[51, 53, 58, 306, 227, 199, 62, 93]
16.878[53, 59, 66, 293, 225, 184, 56, 88]
16.9[42, 52, 67, 251, 193, 185, 48, 55]
16.916[46, 51, 62, 245, 206, 179, 51, 61]
16.937[58, 60, 63, 288, 222, 184, 58, 71]
16.967[60, 66, 69, 262, 226, 198, 60, 69]
16.976[57, 63, 65, 257, 247, 191, 60, 71]
16.997[57, 63, 63, 263, 239, 191, 60, 73]
17.02[54, 63, 62, 265, 237, 196, 57, 64]
17.036[39, 52, 61, 230, 230, 174, 48, 57]
17.058[47, 50, 58, 235, 230, 150, 52, 63]
17.08[45, 46, 56, 246, 195, 141, 52, 67]
17.096[45, 45, 59, 235, 219, 132, 56, 65]
17.117[46, 46, 60, 234, 222, 140, 60, 66]
17.14[47, 47, 62, 231, 201, 148, 65, 61]
17.162[44, 44, 55, 232, 199, 169, 58, 58]
17.177[41, 42, 51, 206, 214, 195, 60, 58]
17.2[46, 43, 50, 291, 195, 199, 64, 66]
17.224[47, 44, 52, 294, 184, 207, 62, 63]
17.237[46, 43, 50, 274, 198, 225, 55, 64]
17.259[41, 41, 53, 274, 200, 217, 60, 61]
17.282[45, 43, 53, 278, 203, 217, 58, 61]
17.297[46, 45, 61, 183, 201, 211, 53, 58]
17.32[51, 48, 64, 161, 202, 200, 55, 62]
17.342[53, 49, 67, 174, 214, 173, 58, 64]
17.357[52, 49, 66, 160, 210, 162, 54, 69]
17.38[48, 47, 66, 164, 202, 140, 53, 61]
17.402[42, 45, 61, 189, 213, 134, 48, 56]
17.417[33, 37, 57, 211, 215, 125, 45, 55]
17.44[38, 40, 53, 213, 181, 148, 46, 61]
17.47[36, 40, 57, 223, 185, 139, 43, 56]
17.477[38, 40, 56, 224, 198, 134, 45, 57]
17.501[40, 40, 52, 189, 181, 169, 49, 56]
17.522[44, 46, 53, 172, 206, 196, 52, 57]
17.537[41, 44, 55, 175, 215, 182, 52, 57]
17.56[46, 49, 59, 181, 227, 197, 60, 66]
17.582[45, 51, 61, 176, 219, 225, 64, 68]
17.597[48, 54, 61, 235, 224, 205, 66, 68]
17.62[46, 51, 62, 247, 223, 184, 64, 66]
17.642[48, 51, 66, 240, 215, 176, 63, 63]
17.657[46, 46, 59, 239, 191, 155, 55, 53]
17.68[48, 49, 67, 255, 185, 146, 47, 51]
17.702[52, 56, 75, 212, 198, 159, 53, 61]
17.717[51, 56, 71, 195, 153, 159, 54, 61]
17.74[47, 55, 66, 191, 185, 159, 52, 57]
17.762[48, 58, 71, 180, 196, 183, 58, 63]
17.777[48, 55, 65, 196, 201, 178, 60, 64]
17.8[43, 48, 62, 217, 197, 189, 63, 56]
17.822[43, 48, 60, 225, 198, 191, 65, 60]
17.837[43, 48, 60, 227, 177, 195, 64, 63]
17.86[37, 44, 59, 249, 203, 193, 58, 61]
17.882[42, 47, 64, 230, 239, 201, 62, 64]
17.897[38, 42, 60, 215, 226, 176, 49, 61]
17.92[37, 44, 65, 210, 231, 167, 43, 58]
17.942[45, 52, 74, 205, 247, 163, 49, 60]
17.957[45, 53, 79, 234, 258, 141, 51, 64]
17.979[39, 50, 71, 242, 223, 101, 42, 64]
18.002[41, 51, 77, 241, 226, 106, 41, 66]
18.017[41, 47, 74, 257, 231, 107, 40, 69]
18.04[32, 35, 66, 270, 239, 131, 34, 68]
18.062[32, 35, 56, 242, 217, 124, 35, 60]
18.077[33, 33, 59, 224, 207, 146, 37, 54]
18.1[30, 31, 48, 210, 206, 150, 36, 53]
18.122[29, 32, 56, 210, 208, 148, 36, 46]
18.145[30, 30, 57, 198, 189, 130, 34, 38]
18.16[35, 40, 61, 191, 173, 138, 36, 38]
18.182[36, 42, 61, 185, 177, 123, 36, 37]
18.205[39, 45, 65, 212, 178, 113, 40, 39]
18.22[40, 46, 60, 193, 205, 112, 42, 45]
18.242[40, 47, 56, 204, 191, 142, 44, 49]
18.265[37, 40, 54, 194, 221, 167, 45, 50]
18.28[36, 37, 49, 199, 218, 161, 42, 51]
18.302[32, 35, 47, 191, 221, 160, 46, 59]
18.325[34, 37, 48, 209, 211, 161, 46, 57]
18.34[34, 38, 52, 200, 225, 134, 44, 53]
18.362[33, 37, 49, 215, 206, 94, 41, 55]
18.385[31, 36, 51, 219, 209, 81, 42, 53]
18.4[35, 37, 53, 225, 213, 86, 39, 59]
18.422[39, 37, 51, 201, 219, 155, 53, 66]
18.445[42, 40, 50, 196, 205, 156, 54, 68]
18.46[42, 40, 52, 207, 194, 157, 53, 67]
18.482[43, 42, 58, 222, 193, 159, 58, 72]
18.505[41, 39, 55, 200, 190, 158, 58, 59]
18.519[36, 37, 55, 213, 172, 104, 46, 54]
18.542[38, 35, 57, 220, 191, 109, 47, 60]
18.565[41, 38, 59, 187, 192, 110, 48, 64]
18.58[42, 41, 56, 158, 216, 136, 48, 63]
18.61[43, 43, 59, 161, 218, 131, 46, 63]
18.625[47, 46, 60, 163, 204, 121, 43, 59]
18.639[43, 45, 57, 159, 179, 119, 49, 62]
18.662[44, 46, 58, 149, 186, 132, 51, 59]
18.685[42, 44, 59, 180, 204, 104, 44, 55]
18.7[43, 44, 57, 189, 199, 119, 47, 55]
18.722[38, 41, 56, 181, 203, 129, 47, 51]
18.745[39, 41, 55, 185, 231, 145, 45, 55]
18.76[34, 37, 52, 199, 222, 134, 44, 57]
18.782[38, 41, 50, 172, 178, 132, 46, 60]
18.805[38, 43, 50, 183, 215, 120, 44, 63]
18.821[39, 41, 51, 181, 220, 112, 43, 65]
18.842[39, 40, 52, 180, 217, 91, 37, 61]
18.865[43, 43, 56, 210, 231, 101, 36, 56]
18.88[42, 39, 54, 251, 237, 111, 34, 52]
18.902[41, 35, 58, 241, 220, 120, 34, 52]
18.925[38, 37, 55, 245, 219, 121, 37, 51]
18.948[38, 38, 52, 239, 196, 154, 39, 50]
18.962[34, 39, 55, 217, 179, 146, 38, 51]
18.985[33, 43, 55, 187, 166, 136, 38, 55]
19.0[37, 44, 51, 192, 163, 146, 39, 58]
19.022[40, 45, 53, 191, 170, 147, 38, 63]
19.053[41, 46, 53, 191, 185, 108, 38, 62]
19.068[40, 42, 44, 186, 190, 115, 42, 62]
19.082[40, 43, 44, 185, 209, 118, 43, 61]
19.105[39, 44, 47, 168, 205, 94, 42, 60]
19.128[35, 42, 45, 160, 195, 118, 42, 55]
19.15[31, 41, 48, 173, 226, 116, 42, 48]
19.165[33, 45, 57, 168, 231, 141, 42, 48]
19.189[36, 43, 56, 180, 222, 149, 41, 48]
19.202[35, 40, 58, 222, 204, 152, 41, 45]
19.225[37, 42, 62, 227, 206, 137, 45, 52]
19.249[40, 42, 60, 221, 161, 150, 44, 54]
19.263[38, 38, 56, 224, 162, 126, 41, 54]
19.285[37, 34, 56, 225, 169, 124, 49, 62]
19.308[38, 36, 56, 193, 203, 120, 48, 62]
19.322[40, 37, 57, 197, 213, 121, 45, 55]
19.345[40, 39, 62, 216, 223, 110, 45, 57]
19.368[47, 41, 58, 215, 207, 99, 45, 63]
19.382[46, 45, 61, 179, 211, 93, 37, 58]
19.405[44, 43, 59, 185, 180, 101, 35, 54]
19.428[41, 41, 56, 191, 183, 101, 34, 55]
19.442[39, 40, 50, 164, 171, 100, 35, 49]
19.465[36, 41, 53, 176, 172, 107, 35, 47]
19.488[33, 37, 51, 201, 154, 106, 36, 44]
19.502[37, 43, 54, 212, 158, 108, 41, 48]
19.525[38, 42, 49, 200, 173, 103, 47, 55]
19.548[55, 52, 60, 217, 180, 125, 55, 72]
19.562[53, 51, 59, 203, 187, 126, 59, 70]
19.585[54, 51, 58, 189, 190, 122, 58, 69]
19.608[52, 49, 58, 192, 223, 141, 58, 66]
19.622[52, 50, 62, 198, 221, 144, 73, 61]
19.645[38, 46, 57, 292, 220, 123, 76, 41]
19.668[40, 44, 58, 304, 214, 115, 80, 40]
19.682[40, 46, 58, 306, 206, 127, 145, 52]
19.705[41, 50, 68, 307, 178, 100, 179, 58]
19.728[43, 55, 70, 307, 173, 95, 219, 75]
19.743[43, 53, 70, 208, 160, 116, 265, 94]
19.765[41, 54, 73, 187, 159, 136, 319, 97]
19.788[52, 54, 73, 173, 157, 127, 309, 105]
19.81[54, 49, 59, 133, 146, 128, 329, 108]
19.825[53, 45, 56, 140, 120, 130, 347, 106]
19.848[52, 40, 51, 124, 115, 112, 321, 101]
19.862[51, 37, 42, 116, 108, 86, 269, 98]
19.885[37, 33, 38, 114, 124, 86, 256, 84]
19.908[36, 30, 35, 105, 119, 87, 213, 86]
19.922[33, 24, 26, 55, 90, 77, 126, 75]
19.945[30, 24, 25, 40, 86, 73, 98, 57]
19.968[29, 24, 24, 29, 84, 73, 89, 56]
19.99[28, 24, 23, 26, 50, 65, 80, 55]
20.005[23, 22, 22, 25, 45, 42, 50, 40]
20.028[26, 21, 22, 24, 34, 36, 52, 58]
20.05[28, 21, 22, 26, 31, 47, 88, 64]
20.065[30, 20, 23, 23, 27, 46, 88, 68]
20.088[33, 22, 23, 24, 26, 47, 93, 80]
20.11[32, 23, 25, 22, 26, 48, 93, 85]
20.125[30, 23, 25, 21, 26, 45, 87, 72]
20.148[28, 23, 24, 19, 24, 28, 49, 68]
20.17[26, 22, 25, 20, 27, 27, 44, 64]
20.185[23, 20, 24, 20, 25, 26, 31, 51]
20.208[25, 19, 23, 22, 25, 23, 31, 45]
20.23[23, 21, 22, 21, 24, 22, 28, 42]
20.245[23, 20, 23, 21, 22, 22, 26, 42]
20.275[22, 21, 22, 21, 21, 23, 25, 39]
20.29[20, 21, 22, 21, 21, 20, 24, 35]
20.305[18, 21, 21, 20, 20, 19, 22, 25]
20.329[18, 20, 21, 21, 21, 21, 21, 26]
20.35[18, 20, 21, 21, 21, 20, 19, 24]
20.365[16, 20, 20, 20, 21, 19, 22, 23]
20.388[17, 19, 19, 21, 20, 19, 20, 22]
20.41[17, 19, 19, 21, 20, 19, 22, 24]
20.426[19, 19, 18, 20, 20, 16, 21, 21]
20.448[18, 19, 18, 21, 19, 16, 21, 20]
20.47[19, 19, 18, 21, 20, 19, 17, 20]
20.485[19, 19, 18, 20, 20, 19, 17, 22]
20.508[18, 18, 18, 20, 20, 18, 16, 20]
20.53[19, 18, 19, 19, 19, 20, 15, 22]
20.545[19, 18, 19, 19, 20, 20, 18, 23]
20.568[18, 19, 19, 18, 19, 17, 19, 23]
20.59[19, 19, 20, 22, 17, 17, 20, 22]
20.605[19, 18, 22, 22, 17, 18, 19, 21]
20.628[17, 17, 22, 22, 17, 18, 18, 21]
20.65[18, 17, 23, 20, 17, 18, 16, 20]
20.665[18, 15, 23, 21, 19, 18, 15, 19]
20.688[20, 16, 23, 18, 20, 18, 15, 19]
20.71[20, 19, 20, 21, 22, 18, 16, 21]
20.724[23, 18, 20, 20, 21, 17, 17, 20]
20.748[23, 19, 19, 21, 21, 19, 18, 21]
20.77[22, 20, 19, 21, 20, 19, 19, 21]
20.785[20, 21, 19, 21, 19, 19, 19, 20]
20.808[19, 18, 22, 20, 17, 21, 18, 20]
20.83[16, 20, 20, 20, 19, 21, 19, 20]
20.853[16, 19, 21, 19, 20, 19, 19, 18]
20.868[18, 21, 23, 20, 18, 20, 19, 18]
20.89[17, 19, 21, 21, 20, 20, 18, 19]
20.905[17, 19, 21, 18, 20, 18, 19, 18]
20.928[17, 19, 21, 17, 20, 19, 18, 18]
20.95[19, 19, 21, 17, 19, 19, 18, 19]
20.973[16, 19, 20, 16, 21, 18, 18, 19]
20.995[20, 21, 21, 15, 19, 19, 18, 18]
21.01[19, 21, 21, 17, 18, 19, 17, 20]
21.033[20, 22, 20, 20, 20, 18, 18, 19]
21.048[20, 22, 20, 21, 21, 19, 18, 18]
21.07[21, 22, 19, 23, 21, 20, 21, 16]
21.093[18, 21, 19, 23, 22, 20, 21, 17]
21.108[19, 22, 18, 22, 22, 19, 22, 16]
21.13[17, 20, 18, 20, 21, 19, 21, 16]
21.153[16, 21, 19, 20, 22, 19, 22, 17]
21.168[20, 20, 21, 17, 20, 18, 20, 17]
21.19[20, 20, 20, 19, 20, 17, 20, 17]
21.213[22, 19, 21, 19, 20, 17, 19, 16]
21.228[23, 20, 21, 19, 18, 19, 19, 17]
21.25[23, 20, 21, 20, 17, 19, 19, 16]
21.273[20, 19, 20, 21, 19, 19, 17, 18]
21.288[22, 19, 21, 20, 17, 19, 16, 18]
21.31[20, 20, 19, 21, 19, 20, 17, 19]
21.333[19, 21, 19, 21, 20, 17, 18, 17]
21.349[21, 20, 17, 20, 21, 18, 19, 18]
21.371[20, 20, 17, 20, 21, 18, 21, 18]
21.393[19, 19, 18, 21, 23, 19, 20, 19]
21.408[20, 22, 19, 21, 22, 20, 21, 21]
21.43[20, 22, 19, 22, 22, 20, 21, 23]
21.453[18, 21, 20, 23, 22, 20, 22, 21]
21.467[18, 23, 21, 23, 21, 20, 20, 21]
21.49[17, 24, 19, 22, 20, 18, 20, 21]
21.513[20, 22, 19, 22, 20, 18, 20, 21]
21.527[19, 22, 21, 21, 21, 18, 18, 19]
21.55[19, 22, 20, 22, 21, 17, 17, 19]
21.572[20, 21, 23, 22, 21, 17, 17, 19]
21.595[22, 21, 23, 24, 20, 18, 18, 20]
21.611[20, 20, 23, 22, 22, 17, 19, 17]
21.632[22, 19, 22, 21, 19, 17, 20, 19]
21.654[22, 21, 22, 19, 20, 18, 19, 19]
21.671[22, 21, 19, 19, 19, 16, 20, 20]
21.692[20, 21, 20, 18, 19, 16, 20, 21]
21.714[20, 20, 20, 19, 17, 17, 18, 21]
21.731[20, 21, 19, 19, 18, 16, 17, 21]
21.752[21, 18, 21, 21, 16, 16, 19, 23]
21.774[22, 18, 21, 21, 18, 17, 18, 21]
21.791[21, 18, 20, 19, 19, 19, 17, 20]
21.813[21, 20, 19, 20, 20, 18, 19, 21]
21.834[22, 19, 20, 21, 23, 23, 20, 22]
21.857[20, 21, 17, 19, 22, 28, 19, 21]
21.872[20, 21, 19, 22, 22, 30, 19, 21]
21.895[20, 22, 21, 22, 21, 30, 21, 23]
21.911[20, 21, 24, 21, 22, 31, 20, 23]
21.934[17, 21, 23, 21, 19, 28, 20, 21]
21.955[20, 20, 24, 21, 21, 22, 20, 21]
21.971[17, 20, 23, 18, 20, 21, 20, 23]
21.992[18, 20, 22, 20, 22, 19, 19, 20]
22.015[18, 20, 19, 22, 20, 19, 18, 19]
22.038[20, 20, 20, 20, 20, 21, 18, 20]
22.052[18, 23, 19, 19, 19, 22, 17, 19]
22.075[20, 22, 21, 21, 20, 20, 18, 18]
22.091[19, 23, 22, 20, 20, 21, 15, 19]
22.112[22, 23, 22, 18, 20, 21, 17, 20]
22.135[21, 23, 23, 20, 21, 19, 17, 22]
22.151[24, 21, 23, 21, 22, 18, 19, 23]
22.172[25, 21, 22, 19, 22, 16, 19, 22]
22.194[28, 19, 22, 21, 20, 20, 20, 22]
22.217[27, 23, 23, 21, 21, 20, 19, 21]
22.232[27, 21, 22, 21, 20, 19, 21, 19]
22.255[23, 21, 22, 20, 20, 19, 19, 17]
22.269[22, 23, 22, 20, 21, 20, 20, 21]
22.292[18, 23, 21, 17, 23, 17, 21, 21]
22.314[18, 20, 22, 18, 22, 18, 22, 20]
22.33[19, 21, 22, 19, 23, 18, 19, 20]
22.352[18, 20, 23, 18, 22, 18, 21, 21]
22.375[19, 19, 22, 19, 20, 21, 20, 19]
22.389[19, 18, 23, 21, 19, 21, 21, 18]
22.412[19, 20, 21, 20, 18, 18, 20, 19]
22.434[19, 19, 19, 19, 19, 22, 20, 21]
22.457[19, 18, 19, 22, 22, 24, 18, 22]
22.472[19, 21, 20, 21, 22, 21, 19, 20]
22.495[20, 21, 19, 21, 23, 23, 16, 20]
22.509[20, 19, 19, 21, 24, 23, 18, 20]
22.532[19, 20, 20, 22, 22, 19, 18, 18]
22.554[21, 21, 20, 20, 18, 18, 20, 17]
22.569[23, 19, 20, 21, 19, 19, 19, 18]
22.592[22, 20, 18, 20, 19, 17, 20, 19]
22.614[24, 20, 19, 20, 20, 17, 20, 16]
22.629[24, 21, 22, 20, 20, 17, 20, 17]
22.652[24, 22, 22, 20, 20, 16, 20, 18]
22.675[22, 21, 21, 24, 19, 16, 22, 16]
22.689[24, 20, 21, 24, 22, 18, 22, 16]
22.712[25, 21, 22, 24, 20, 20, 22, 17]
22.743[24, 22, 21, 23, 20, 19, 22, 20]
22.749[26, 20, 21, 24, 22, 21, 20, 19]
22.773[27, 22, 22, 18, 21, 21, 21, 20]
22.794[28, 21, 23, 19, 19, 19, 21, 21]
22.809[25, 21, 24, 18, 20, 18, 20, 22]
22.832[28, 19, 22, 18, 21, 20, 20, 19]
22.855[32, 21, 21, 18, 20, 20, 22, 20]
22.877[34, 21, 20, 18, 21, 20, 20, 18]
22.892[32, 22, 20, 18, 22, 21, 18, 19]
22.915[33, 21, 20, 18, 22, 20, 18, 18]
22.937[30, 22, 20, 19, 23, 18, 20, 20]
22.953[24, 20, 21, 22, 21, 17, 18, 19]
22.984[18, 21, 23, 21, 23, 18, 19, 23]
23.005[18, 18, 20, 21, 22, 17, 18, 23]
23.012[17, 20, 19, 21, 23, 18, 21, 23]
23.036[17, 20, 19, 22, 25, 18, 19, 23]
23.057[15, 21, 17, 18, 27, 19, 20, 23]
23.072[19, 21, 17, 19, 25, 17, 21, 22]
23.095[20, 22, 18, 19, 25, 17, 20, 21]
23.117[25, 21, 17, 19, 23, 17, 19, 21]
23.14[27, 20, 18, 18, 21, 18, 18, 20]
23.155[28, 20, 20, 19, 20, 18, 18, 20]
23.177[26, 19, 19, 21, 20, 18, 18, 18]
23.192[27, 20, 20, 21, 20, 19, 19, 16]
23.216[23, 19, 20, 21, 20, 20, 19, 16]
23.237[23, 20, 20, 21, 20, 21, 19, 15]
23.252[25, 19, 21, 19, 19, 21, 18, 14]
23.274[25, 21, 20, 19, 21, 22, 18, 15]
23.297[23, 19, 21, 18, 21, 21, 19, 17]
23.312[23, 20, 21, 18, 21, 21, 20, 17]
23.334[20, 19, 22, 18, 23, 18, 19, 19]
23.357[18, 22, 21, 19, 24, 18, 21, 19]
23.372[18, 21, 20, 19, 23, 19, 20, 18]
23.395[19, 21, 19, 19, 23, 19, 19, 17]
23.417[18, 22, 19, 20, 24, 20, 19, 20]
23.432[18, 23, 18, 20, 20, 21, 19, 21]
23.456[20, 21, 19, 19, 20, 20, 18, 20]
23.477[20, 21, 22, 19, 19, 19, 19, 22]
23.492[21, 22, 20, 19, 20, 19, 19, 22]
23.523[23, 20, 20, 19, 20, 20, 20, 21]
23.537[22, 20, 21, 19, 20, 19, 19, 20]
23.552[21, 22, 20, 20, 22, 19, 19, 21]
23.574[22, 21, 18, 19, 21, 20, 19, 19]
23.605[20, 21, 19, 17, 19, 19, 19, 19]
23.612[20, 23, 19, 18, 17, 18, 19, 18]
23.634[22, 22, 19, 19, 18, 18, 20, 19]
23.657[21, 22, 19, 20, 16, 17, 21, 18]
23.672[20, 22, 18, 20, 18, 18, 21, 20]
23.703[21, 22, 18, 20, 21, 20, 20, 22]
23.717[20, 23, 18, 18, 21, 20, 18, 21]
23.732[21, 24, 18, 20, 21, 20, 18, 20]
23.754[20, 23, 19, 19, 23, 20, 17, 20]
23.777[20, 22, 20, 21, 21, 18, 17, 20]
23.8[19, 23, 21, 21, 19, 18, 18, 21]
23.815[19, 21, 23, 20, 20, 20, 20, 21]
23.837[19, 19, 22, 19, 21, 20, 19, 21]
23.859[20, 22, 23, 18, 19, 20, 20, 22]
23.875[21, 21, 22, 18, 20, 19, 20, 21]
23.905[21, 20, 22, 21, 20, 19, 21, 19]
23.92[24, 19, 22, 23, 20, 18, 20, 20]
23.934[22, 20, 23, 23, 21, 18, 21, 20]
23.957[22, 20, 21, 23, 19, 19, 19, 19]
23.98[21, 22, 21, 23, 18, 20, 19, 19]
23.994[21, 23, 22, 22, 19, 18, 18, 19]
24.017[18, 22, 22, 22, 20, 20, 18, 17]
24.04[20, 22, 20, 22, 19, 20, 17, 18]
24.054[20, 20, 20, 22, 22, 21, 17, 21]
24.077[23, 19, 23, 22, 23, 22, 16, 21]
24.101[23, 17, 22, 21, 22, 22, 16, 21]
24.114[25, 19, 23, 22, 21, 20, 15, 21]
24.137[23, 18, 23, 22, 21, 19, 15, 22]
24.16[22, 20, 26, 25, 20, 19, 16, 18]
24.174[19, 19, 23, 23, 18, 18, 19, 18]
24.197[17, 20, 23, 22, 18, 17, 19, 17]
24.22[16, 21, 22, 20, 19, 18, 19, 18]
24.235[15, 20, 22, 21, 19, 19, 20, 17]
24.257[18, 19, 21, 19, 19, 18, 20, 19]
24.28[17, 23, 20, 20, 18, 20, 17, 19]
24.294[18, 22, 19, 22, 20, 20, 17, 19]
24.317[18, 21, 18, 23, 19, 19, 18, 19]
24.341[19, 24, 17, 22, 19, 19, 17, 19]
24.355[16, 23, 17, 21, 22, 18, 18, 17]
24.377[19, 20, 19, 20, 24, 19, 18, 19]
24.4[19, 20, 19, 19, 23, 20, 21, 18]
24.414[18, 18, 19, 19, 24, 19, 21, 19]
24.437[18, 16, 22, 18, 24, 21, 21, 20]
24.46[19, 18, 22, 19, 22, 22, 22, 19]
24.474[18, 20, 20, 20, 20, 20, 22, 19]
24.497[20, 22, 22, 21, 20, 19, 21, 20]
24.52[21, 21, 22, 22, 19, 22, 21, 18]
24.534[20, 22, 20, 21, 18, 20, 22, 19]
24.558[22, 22, 21, 20, 18, 20, 22, 18]
24.58[21, 21, 21, 21, 19, 20, 20, 18]
24.594[20, 21, 20, 20, 21, 19, 20, 19]
24.617[19, 24, 21, 20, 21, 17, 20, 20]
24.64[18, 22, 20, 20, 21, 17, 21, 20]
24.655[16, 22, 21, 20, 21, 18, 21, 20]
24.677[18, 23, 22, 18, 20, 18, 22, 20]
24.7[18, 22, 23, 18, 19, 19, 22, 19]
24.723[18, 20, 21, 16, 18, 20, 23, 18]
24.737[17, 21, 22, 17, 18, 20, 20, 18]
24.76[17, 21, 21, 20, 18, 21, 18, 18]
24.783[16, 21, 21, 21, 19, 22, 20, 18]
24.797[19, 23, 20, 22, 19, 21, 21, 18]
24.821[19, 24, 23, 23, 20, 21, 21, 19]
24.843[21, 23, 22, 23, 20, 21, 21, 18]
24.857[22, 23, 21, 21, 19, 18, 22, 19]
24.88[22, 21, 21, 22, 19, 19, 20, 18]
24.902[19, 19, 22, 20, 19, 21, 19, 19]
24.917[20, 18, 20, 19, 20, 20, 20, 21]
24.948[20, 18, 21, 19, 20, 20, 19, 20]
24.963[19, 19, 21, 20, 21, 21, 20, 19]
24.977[19, 20, 21, 21, 20, 19, 19, 20]
25.0[19, 20, 20, 20, 20, 21, 20, 17]
25.023[18, 20, 20, 19, 20, 21, 19, 17]
25.037[19, 20, 20, 19, 20, 22, 21, 19]
25.06[20, 19, 21, 18, 19, 21, 18, 18]
25.083[20, 18, 21, 17, 19, 21, 19, 19]
25.097[21, 19, 22, 17, 19, 17, 19, 20]
25.12[20, 22, 22, 17, 18, 18, 19, 19]
25.143[19, 23, 24, 18, 16, 16, 20, 18]
25.157[16, 23, 23, 19, 17, 18, 19, 16]
25.18[16, 24, 23, 20, 18, 17, 20, 16]
25.203[14, 24, 23, 21, 19, 19, 19, 18]
25.217[15, 20, 22, 22, 19, 18, 19, 19]
25.24[17, 20, 21, 21, 21, 19, 19, 20]
25.263[18, 21, 22, 19, 22, 17, 23, 21]
25.277[18, 20, 22, 20, 20, 19, 22, 22]
25.3[19, 19, 20, 20, 21, 17, 22, 20]
25.323[19, 19, 19, 19, 23, 19, 23, 19]
25.337[18, 21, 19, 20, 21, 19, 23, 18]
25.36[18, 20, 16, 19, 20, 19, 20, 18]
25.383[19, 20, 19, 18, 20, 19, 21, 16]
25.397[19, 22, 21, 19, 18, 19, 21, 17]
25.421[20, 20, 21, 21, 14, 18, 21, 18]
25.443[20, 20, 22, 22, 15, 18, 21, 17]
25.465[20, 21, 24, 22, 17, 18, 21, 18]
25.48[23, 22, 22, 23, 20, 19, 20, 19]
25.503[22, 22, 21, 22, 22, 18, 21, 18]
25.517[21, 22, 21, 21, 22, 19, 19, 19]
25.54[20, 18, 22, 19, 24, 21, 19, 19]
25.563[37, 18, 21, 21, 23, 20, 19, 18]
25.577[50, 18, 21, 21, 21, 19, 18, 19]
25.6[58, 16, 21, 20, 19, 20, 18, 21]
25.623[60, 19, 21, 19, 19, 19, 20, 19]
25.638[60, 19, 19, 21, 20, 19, 20, 20]
25.66[51, 19, 19, 19, 21, 19, 20, 20]
25.683[36, 19, 18, 19, 21, 18, 20, 20]
25.705[21, 18, 17, 19, 23, 17, 19, 18]
25.721[16, 17, 17, 18, 23, 20, 17, 19]
25.743[15, 17, 18, 17, 21, 17, 17, 18]
25.765[18, 20, 19, 18, 22, 19, 18, 18]
25.78[19, 20, 20, 19, 23, 18, 20, 18]
25.803[20, 22, 19, 17, 23, 18, 20, 19]
25.825[20, 21, 20, 19, 23, 17, 22, 19]
25.84[21, 22, 19, 19, 21, 18, 23, 19]
25.863[19, 19, 18, 18, 19, 17, 21, 21]
25.885[18, 19, 19, 18, 19, 18, 20, 21]
25.901[17, 20, 19, 18, 17, 18, 22, 22]
25.923[18, 20, 19, 16, 17, 17, 20, 22]
25.945[18, 20, 20, 17, 20, 19, 21, 23]
25.96[18, 20, 19, 18, 21, 19, 21, 24]
25.983[18, 20, 18, 17, 21, 20, 21, 24]
26.006[19, 19, 19, 16, 20, 18, 20, 21]
26.02[18, 18, 19, 16, 20, 19, 21, 21]
26.043[19, 18, 18, 19, 20, 19, 18, 20]
26.065[19, 18, 19, 19, 20, 20, 19, 17]
26.08[20, 18, 20, 19, 20, 19, 19, 18]
26.103[19, 17, 19, 21, 23, 19, 19, 18]
26.125[18, 19, 21, 21, 23, 19, 19, 18]
26.141[19, 19, 20, 19, 23, 19, 19, 19]
26.163[19, 19, 19, 19, 23, 17, 18, 20]
26.185[18, 19, 17, 21, 24, 17, 20, 18]
26.199[20, 20, 19, 19, 22, 21, 19, 18]
26.222[21, 20, 18, 20, 22, 20, 20, 17]
26.245[20, 21, 20, 19, 22, 19, 20, 16]
26.259[19, 19, 20, 18, 22, 21, 21, 14]
26.283[19, 20, 22, 16, 21, 23, 20, 17]
26.305[20, 20, 21, 18, 21, 20, 19, 17]
26.319[20, 21, 20, 16, 21, 21, 18, 17]
26.343[20, 21, 21, 15, 20, 22, 21, 17]
26.365[21, 21, 21, 17, 20, 20, 22, 19]
26.379[22, 20, 20, 19, 20, 20, 21, 19]
26.403[19, 20, 19, 18, 20, 19, 21, 19]
26.425[19, 17, 22, 20, 19, 19, 21, 20]
26.44[19, 17, 23, 22, 20, 18, 20, 20]
26.463[17, 17, 23, 20, 20, 19, 19, 19]
26.486[16, 19, 23, 22, 21, 17, 20, 21]
26.499[17, 19, 24, 23, 22, 18, 21, 20]
26.523[17, 20, 22, 22, 22, 18, 20, 22]
26.546[17, 20, 20, 20, 22, 20, 21, 23]
26.567[18, 20, 19, 20, 20, 19, 20, 25]
26.583[19, 19, 18, 16, 19, 18, 19, 22]
26.604[19, 19, 18, 16, 18, 17, 19, 23]
26.627[19, 19, 19, 18, 17, 19, 20, 21]
26.643[20, 17, 20, 19, 17, 17, 19, 18]
26.665[21, 19, 19, 20, 19, 17, 17, 18]
26.687[20, 17, 20, 20, 20, 19, 18, 18]
26.703[20, 17, 19, 20, 19, 20, 18, 19]
26.725[20, 17, 19, 20, 19, 19, 17, 19]
26.747[18, 19, 17, 18, 20, 19, 19, 20]
26.764[21, 19, 17, 18, 20, 19, 21, 20]
26.785[21, 20, 18, 19, 18, 17, 21, 20]
26.807[20, 21, 18, 22, 19, 16, 21, 19]
26.823[21, 20, 19, 21, 19, 15, 21, 19]
26.844[22, 20, 19, 21, 17, 14, 20, 19]
26.868[20, 20, 20, 22, 18, 17, 18, 16]
26.883[19, 19, 19, 21, 18, 18, 19, 17]
26.905[20, 17, 21, 19, 20, 19, 18, 17]
26.927[17, 22, 20, 19, 20, 18, 19, 17]
26.943[15, 20, 21, 19, 21, 19, 20, 16]
26.964[16, 20, 19, 18, 22, 17, 19, 17]
26.987[17, 21, 19, 20, 23, 17, 21, 16]
27.003[18, 22, 17, 20, 21, 16, 20, 15]
27.024[19, 17, 18, 21, 23, 19, 19, 16]
27.047[19, 21, 18, 23, 23, 19, 19, 16]
27.063[19, 20, 18, 23, 21, 21, 20, 18]
27.084[20, 21, 18, 20, 20, 21, 18, 18]
27.107[17, 21, 19, 20, 20, 21, 19, 19]
27.123[17, 21, 19, 19, 18, 19, 19, 19]
27.145[20, 21, 19, 16, 17, 22, 19, 18]
27.167[19, 21, 19, 16, 18, 20, 18, 18]
27.183[16, 19, 19, 19, 20, 20, 18, 18]
27.205[17, 20, 17, 19, 20, 21, 19, 17]
27.227[19, 21, 17, 19, 19, 20, 19, 17]
27.243[17, 20, 17, 20, 19, 18, 19, 18]
27.265[16, 22, 17, 20, 21, 19, 20, 18]
27.287[18, 23, 18, 17, 21, 19, 20, 19]
27.304[19, 24, 21, 17, 22, 20, 19, 18]
27.324[18, 24, 19, 20, 23, 21, 18, 18]
27.347[18, 24, 21, 19, 24, 20, 18, 18]
27.364[19, 24, 21, 20, 22, 19, 18, 17]
27.384[20, 23, 21, 20, 22, 19, 19, 16]
27.407[21, 22, 22, 20, 20, 19, 20, 17]
27.424[22, 22, 22, 18, 19, 19, 20, 19]
27.445[21, 21, 22, 19, 18, 19, 21, 18]
27.467[22, 21, 22, 18, 17, 19, 20, 19]
27.483[21, 20, 21, 21, 17, 18, 19, 18]
27.505[20, 21, 20, 21, 18, 17, 19, 19]
27.527[20, 21, 19, 20, 19, 16, 19, 18]
27.543[20, 19, 20, 19, 20, 15, 20, 19]
27.565[21, 21, 19, 18, 21, 16, 22, 20]
27.587[20, 22, 19, 16, 20, 15, 21, 20]
27.609[21, 22, 20, 17, 20, 16, 21, 18]
27.625[22, 21, 18, 17, 19, 16, 21, 18]
27.647[21, 20, 19, 18, 17, 16, 21, 19]
27.669[22, 18, 19, 20, 18, 17, 18, 19]
27.685[22, 17, 18, 20, 19, 19, 20, 20]
27.707[22, 16, 19, 20, 19, 18, 22, 20]
27.729[21, 18, 21, 22, 19, 17, 21, 20]
27.744[21, 21, 20, 22, 21, 19, 18, 20]
27.767[19, 21, 21, 21, 20, 17, 20, 18]
27.789[19, 21, 22, 20, 20, 17, 19, 18]
27.805[17, 20, 22, 20, 20, 18, 17, 18]
27.827[18, 20, 21, 19, 21, 17, 18, 17]
27.849[20, 18, 23, 20, 20, 18, 17, 17]
27.865[20, 18, 22, 22, 20, 20, 15, 18]
27.887[20, 19, 22, 22, 18, 20, 16, 18]
27.909[19, 20, 20, 23, 20, 20, 17, 18]
27.925[19, 19, 21, 22, 20, 21, 17, 18]
27.947[17, 21, 20, 22, 21, 20, 19, 18]
27.969[18, 22, 20, 20, 22, 19, 19, 17]
27.984[20, 22, 22, 20, 23, 18, 18, 17]
28.007[21, 22, 21, 19, 22, 18, 16, 17]
28.029[21, 21, 21, 20, 21, 16, 17, 17]
28.046[22, 21, 20, 19, 21, 16, 19, 17]
28.067[20, 19, 21, 17, 23, 18, 21, 17]
28.089[19, 18, 19, 18, 22, 18, 21, 19]
28.104[19, 18, 20, 18, 20, 17, 21, 18]
28.127[19, 18, 22, 19, 21, 20, 22, 19]
28.149[18, 17, 21, 19, 22, 20, 20, 20]
28.164[20, 19, 21, 21, 21, 18, 20, 20]
28.187[19, 20, 22, 20, 21, 18, 19, 19]
28.209[19, 19, 22, 20, 21, 18, 20, 20]
28.225[19, 21, 21, 18, 21, 16, 19, 19]
28.247[20, 21, 22, 18, 19, 17, 19, 20]
28.269[19, 20, 20, 18, 19, 17, 19, 20]
28.285[19, 21, 20, 17, 18, 19, 19, 19]
28.307[18, 23, 20, 20, 19, 19, 18, 18]
28.329[22, 21, 20, 23, 19, 19, 19, 17]
28.345[21, 20, 20, 23, 22, 20, 19, 17]
28.367[20, 21, 20, 22, 22, 20, 19, 18]
28.389[22, 20, 19, 23, 23, 19, 20, 18]
28.404[24, 18, 20, 22, 24, 20, 19, 19]
28.427[20, 20, 21, 19, 25, 19, 17, 19]
28.449[19, 20, 20, 17, 23, 16, 18, 17]
28.464[21, 21, 21, 20, 22, 16, 19, 18]
28.487[19, 20, 21, 21, 22, 16, 19, 18]
28.509[18, 22, 20, 21, 21, 15, 17, 16]
28.532[20, 22, 19, 20, 20, 16, 17, 19]
28.547[20, 24, 19, 21, 22, 17, 17, 20]
28.569[19, 23, 19, 19, 22, 19, 15, 18]
28.592[19, 23, 19, 18, 21, 18, 16, 20]
28.607[20, 22, 18, 19, 23, 18, 18, 21]
28.629[19, 22, 18, 19, 23, 19, 19, 20]
28.652[19, 22, 19, 20, 22, 19, 18, 18]
28.667[20, 21, 21, 20, 23, 19, 19, 20]
28.689[21, 21, 20, 20, 22, 21, 18, 19]
28.712[19, 21, 21, 21, 21, 21, 16, 19]
28.727[18, 21, 22, 22, 20, 21, 18, 19]
28.749[19, 21, 22, 22, 20, 22, 18, 20]
28.772[17, 22, 20, 21, 20, 20, 16, 18]
28.787[18, 24, 21, 23, 21, 19, 16, 18]
28.81[20, 23, 21, 22, 22, 20, 17, 17]
28.832[21, 24, 21, 20, 23, 20, 16, 17]
28.847[21, 23, 21, 21, 23, 20, 18, 16]
28.87[21, 21, 22, 20, 23, 20, 18, 17]
28.892[19, 21, 20, 19, 22, 18, 18, 17]
28.907[20, 22, 20, 18, 23, 18, 19, 17]
28.929[19, 20, 21, 19, 22, 18, 19, 17]
28.952[18, 20, 19, 18, 21, 18, 17, 18]
28.967[18, 21, 18, 19, 23, 18, 21, 17]
28.989[18, 20, 19, 20, 21, 19, 20, 20]
29.012[15, 20, 19, 21, 19, 19, 20, 21]
29.027[17, 20, 19, 21, 19, 18, 21, 19]
29.049[17, 19, 21, 19, 19, 17, 22, 20]
29.072[20, 21, 20, 18, 20, 15, 19, 22]
29.087[21, 21, 20, 17, 20, 16, 20, 21]
29.109[20, 20, 20, 19, 20, 16, 19, 19]
29.132[20, 21, 20, 19, 20, 17, 20, 22]
29.148[20, 22, 18, 23, 21, 17, 18, 20]
29.169[20, 20, 19, 25, 19, 18, 18, 18]
29.192[19, 20, 20, 24, 20, 20, 18, 18]
29.207[19, 21, 23, 21, 19, 19, 18, 18]
29.229[18, 20, 23, 24, 21, 18, 17, 15]
29.26[19, 21, 26, 20, 20, 20, 18, 17]
29.267[18, 22, 25, 19, 20, 20, 19, 16]
29.289[19, 24, 26, 22, 19, 18, 18, 17]
29.312[20, 24, 24, 24, 23, 19, 17, 19]
29.327[20, 24, 25, 23, 22, 21, 18, 20]
29.349[20, 24, 23, 23, 22, 20, 18, 19]
29.372[20, 23, 23, 21, 22, 20, 16, 20]
29.387[20, 22, 21, 23, 23, 21, 17, 19]
29.409[21, 22, 22, 23, 20, 19, 18, 18]
29.432[22, 25, 27, 39, 33, 21, 19, 18]
29.456[21, 24, 33, 60, 83, 28, 21, 20]
29.469[22, 27, 42, 112, 122, 36, 24, 22]
29.493[21, 28, 45, 136, 129, 55, 27, 21]
29.515[22, 28, 48, 144, 144, 63, 31, 25]
29.529[23, 27, 48, 174, 189, 67, 31, 27]
29.553[25, 32, 47, 177, 209, 77, 32, 35]
29.575[26, 29, 42, 169, 224, 88, 42, 41]
29.589[33, 33, 45, 159, 255, 126, 51, 57]
29.613[38, 34, 45, 178, 287, 142, 99, 111]
29.635[43, 33, 45, 171, 290, 164, 124, 142]
29.649[43, 33, 51, 176, 294, 190, 125, 145]
29.673[52, 36, 56, 208, 282, 247, 140, 157]
29.695[69, 47, 70, 257, 319, 254, 194, 211]
29.71[68, 58, 87, 268, 365, 253, 181, 197]
29.733[71, 66, 107, 315, 369, 253, 171, 185]
29.755[81, 73, 119, 394, 368, 243, 181, 189]
29.769[85, 91, 146, 486, 403, 197, 184, 187]
29.793[78, 97, 149, 519, 393, 168, 127, 119]
29.815[83, 105, 150, 536, 379, 170, 137, 130]
29.829[87, 101, 139, 533, 373, 167, 130, 129]
29.852[80, 99, 134, 484, 408, 174, 120, 123]
29.875[76, 95, 122, 456, 391, 184, 100, 115]
29.889[83, 111, 143, 425, 349, 218, 117, 129]
29.913[90, 112, 152, 410, 316, 261, 124, 127]
29.935[85, 114, 161, 406, 351, 285, 124, 139]
29.95[105, 130, 176, 429, 331, 283, 130, 173]
29.972[107, 126, 171, 378, 347, 289, 131, 185]
29.995[98, 112, 158, 464, 398, 302, 140, 190]
30.009[97, 108, 147, 472, 397, 279, 134, 202]
30.033[102, 110, 145, 455, 388, 290, 150, 202]
30.055[79, 88, 121, 442, 398, 302, 160, 176]
30.069[75, 87, 117, 463, 370, 290, 159, 166]
30.093[78, 83, 114, 402, 339, 270, 137, 153]
30.115[69, 81, 118, 399, 324, 268, 138, 132]
30.129[59, 77, 116, 419, 306, 232, 137, 113]
30.153[64, 83, 119, 425, 283, 239, 131, 114]
30.175[62, 79, 118, 387, 301, 231, 141, 116]
30.189[58, 76, 117, 328, 290, 210, 142, 129]
30.213[59, 70, 111, 341, 321, 207, 131, 135]
30.235[65, 75, 110, 322, 323, 243, 151, 142]
30.249[61, 72, 113, 343, 345, 223, 141, 140]
30.273[60, 75, 118, 344, 369, 229, 133, 133]
30.295[61, 74, 113, 355, 386, 225, 142, 139]
30.309[62, 76, 115, 345, 369, 216, 145, 153]
30.333[57, 69, 109, 348, 388, 163, 122, 163]
30.355[53, 63, 102, 321, 368, 157, 130, 176]
30.369[52, 58, 90, 309, 346, 153, 148, 185]
30.393[55, 67, 113, 312, 341, 164, 143, 191]
30.415[52, 65, 104, 297, 361, 184, 137, 180]
30.438[55, 66, 104, 275, 326, 191, 131, 171]
30.453[61, 73, 120, 293, 318, 208, 125, 155]
30.475[62, 79, 125, 327, 314, 199, 100, 173]
30.498[63, 68, 99, 321, 294, 205, 128, 201]
30.513[60, 64, 96, 303, 253, 180, 126, 192]
30.535[57, 65, 100, 304, 267, 184, 126, 191]
30.558[52, 61, 86, 287, 260, 161, 119, 195]
30.572[51, 53, 83, 267, 269, 169, 116, 174]
30.595[49, 57, 100, 257, 268, 162, 85, 119]
30.618[51, 66, 110, 260, 303, 168, 84, 134]
30.633[56, 68, 111, 268, 294, 165, 80, 141]
30.655[63, 70, 110, 248, 290, 157, 90, 148]
30.678[64, 73, 107, 220, 280, 160, 95, 148]
30.693[59, 69, 92, 234, 297, 146, 98, 159]
30.715[59, 61, 83, 243, 262, 134, 94, 142]
30.738[51, 54, 78, 243, 248, 137, 103, 165]
30.753[41, 48, 73, 261, 245, 156, 100, 153]
30.775[40, 44, 70, 249, 257, 177, 98, 155]
30.798[42, 47, 76, 285, 248, 179, 92, 141]
30.813[47, 52, 79, 278, 270, 186, 106, 147]
30.835[56, 51, 77, 283, 304, 187, 105, 119]
30.858[58, 53, 75, 290, 301, 174, 100, 124]
30.873[54, 51, 76, 300, 263, 153, 96, 121]
30.895[55, 52, 76, 276, 319, 177, 99, 127]
30.918[55, 49, 76, 272, 320, 200, 93, 145]
30.932[48, 50, 77, 265, 330, 193, 80, 139]
30.955[48, 45, 78, 268, 329, 202, 83, 145]
30.977[52, 45, 75, 259, 346, 200, 87, 158]
30.992[49, 39, 67, 229, 288, 187, 78, 148]
31.015[43, 36, 67, 220, 298, 152, 72, 134]
31.038[44, 35, 64, 199, 257, 146, 84, 145]
31.052[45, 41, 67, 188, 285, 157, 81, 134]
31.075[44, 40, 69, 180, 281, 162, 80, 161]
31.098[43, 41, 68, 193, 321, 169, 98, 190]
31.112[47, 44, 68, 228, 322, 179, 96, 192]
31.135[44, 45, 71, 241, 324, 189, 87, 194]
31.158[47, 46, 72, 205, 306, 176, 92, 213]
31.172[46, 50, 76, 208, 319, 169, 94, 183]
31.195[53, 51, 80, 195, 265, 196, 100, 175]
31.218[64, 61, 80, 170, 227, 200, 106, 178]
31.232[65, 61, 85, 193, 225, 189, 101, 168]
31.255[64, 64, 91, 230, 217, 186, 97, 141]
31.277[66, 63, 88, 233, 213, 196, 103, 151]
31.292[63, 60, 88, 258, 224, 156, 86, 141]
31.316[49, 49, 85, 268, 212, 201, 86, 133]
31.338[49, 50, 78, 257, 201, 206, 97, 146]
31.36[47, 46, 67, 253, 226, 211, 102, 156]
31.375[44, 46, 67, 294, 201, 210, 91, 142]
31.397[41, 51, 66, 273, 226, 230, 110, 171]
31.42[41, 48, 64, 274, 243, 182, 108, 178]
31.435[40, 45, 65, 266, 257, 170, 100, 170]
31.457[37, 41, 65, 248, 234, 166, 98, 167]
31.481[35, 41, 70, 235, 243, 192, 111, 169]
31.495[39, 38, 65, 236, 223, 175, 100, 142]
31.518[37, 38, 66, 232, 209, 204, 107, 139]
31.54[38, 38, 66, 246, 250, 215, 111, 138]
31.556[42, 37, 66, 254, 274, 223, 115, 138]
31.577[61, 56, 72, 260, 278, 199, 148, 172]
31.607[65, 59, 77, 272, 293, 192, 151, 179]
31.616[66, 60, 81, 264, 309, 167, 147, 163]
31.637[66, 61, 79, 259, 295, 161, 144, 161]
31.659[65, 64, 78, 262, 290, 163, 142, 167]
31.676[51, 52, 74, 247, 296, 154, 101, 128]
31.697[42, 46, 70, 262, 282, 166, 94, 100]
31.719[46, 55, 85, 298, 273, 180, 92, 123]
31.736[51, 63, 95, 306, 258, 199, 96, 132]
31.758[48, 62, 99, 296, 265, 191, 110, 120]
31.78[54, 70, 112, 347, 270, 188, 110, 125]
31.796[62, 73, 113, 346, 289, 185, 122, 151]
31.817[64, 81, 113, 345, 314, 203, 139, 143]
31.839[83, 114, 154, 376, 320, 189, 143, 149]
31.856[89, 119, 156, 390, 298, 189, 131, 148]
31.877[88, 123, 176, 430, 297, 196, 140, 149]
31.899[85, 124, 181, 462, 322, 218, 198, 167]
31.916[82, 121, 190, 525, 320, 188, 190, 163]
31.937[68, 102, 179, 510, 312, 223, 192, 149]
31.96[69, 103, 183, 514, 315, 268, 208, 165]
31.976[71, 93, 157, 448, 303, 308, 211, 196]
31.997[73, 93, 151, 439, 282, 292, 148, 162]
32.02[75, 92, 133, 362, 270, 352, 163, 165]
32.036[74, 81, 101, 370, 276, 347, 167, 166]
32.059[67, 78, 95, 372, 278, 319, 152, 153]
32.079[65, 80, 99, 382, 299, 288, 159, 134]
32.096[69, 84, 112, 354, 288, 287, 166, 153]
32.117[69, 82, 114, 358, 278, 226, 155, 149]
32.139[64, 78, 121, 351, 262, 201, 153, 156]
32.156[69, 89, 134, 400, 292, 202, 148, 160]
32.177[71, 94, 138, 386, 296, 210, 130, 159]
32.2[70, 94, 131, 421, 291, 214, 135, 177]
32.222[69, 92, 126, 421, 279, 189, 130, 179]
32.237[66, 88, 114, 411, 292, 191, 123, 181]
32.259[62, 74, 102, 384, 291, 177, 146, 208]
32.276[55, 64, 88, 381, 272, 155, 139, 194]
32.297[56, 66, 86, 332, 275, 181, 134, 184]
32.319[57, 73, 105, 349, 273, 197, 132, 183]
32.342[57, 72, 112, 345, 272, 188, 125, 183]
32.357[58, 74, 110, 293, 239, 193, 108, 152]
32.38[62, 72, 107, 287, 214, 200, 127, 164]
32.402[66, 76, 128, 278, 233, 174, 136, 161]
32.417[69, 76, 126, 210, 247, 170, 134, 159]
32.439[72, 81, 125, 198, 236, 169, 137, 151]
32.462[72, 79, 124, 200, 244, 159, 142, 154]
32.477[73, 84, 128, 220, 257, 147, 139, 177]
32.5[62, 72, 101, 214, 237, 132, 124, 152]
32.522[58, 67, 94, 273, 260, 137, 139, 165]
32.537[58, 71, 99, 276, 281, 145, 146, 170]
32.559[64, 83, 111, 287, 268, 142, 141, 179]
32.582[66, 83, 116, 267, 266, 148, 128, 155]
32.597[71, 88, 125, 286, 271, 145, 122, 164]
32.619[70, 83, 116, 232, 235, 137, 103, 152]
32.642[66, 75, 110, 225, 203, 132, 91, 145]
32.657[57, 61, 95, 222, 214, 133, 72, 125]
32.679[48, 54, 83, 222, 208, 121, 74, 116]
32.702[47, 52, 74, 236, 184, 128, 101, 128]
32.717[54, 56, 85, 293, 227, 140, 116, 133]
32.74[64, 65, 86, 328, 227, 131, 112, 132]
32.762[64, 66, 85, 327, 217, 128, 119, 128]
32.777[64, 67, 87, 383, 230, 141, 116, 123]
32.799[61, 62, 86, 385, 260, 134, 93, 123]
32.822[60, 63, 81, 340, 252, 105, 73, 132]
32.837[50, 56, 83, 330, 254, 134, 79, 134]
32.859[50, 54, 91, 344, 253, 147, 73, 134]
32.882[52, 59, 104, 327, 244, 134, 72, 133]
32.897[47, 58, 102, 305, 234, 140, 69, 105]
32.92[45, 56, 99, 340, 216, 139, 70, 81]
32.942[50, 53, 91, 328, 246, 121, 82, 134]
32.957[54, 55, 82, 350, 275, 124, 85, 144]
32.979[56, 60, 76, 343, 272, 129, 96, 152]
33.002[61, 64, 84, 340, 257, 126, 127, 155]
33.017[59, 67, 95, 392, 260, 126, 130, 155]
33.04[56, 74, 105, 390, 225, 132, 124, 106]
33.062[51, 71, 104, 374, 215, 122, 131, 100]
33.077[52, 66, 101, 353, 230, 127, 125, 120]
33.1[48, 64, 95, 383, 254, 137, 112, 121]
33.122[54, 68, 90, 348, 259, 141, 109, 125]
33.137[54, 61, 81, 347, 267, 133, 112, 137]
33.159[62, 72, 87, 334, 250, 131, 109, 136]
33.182[60, 74, 97, 321, 246, 146, 125, 119]
33.197[61, 77, 106, 304, 228, 128, 107, 112]
33.22[61, 78, 107, 244, 269, 125, 107, 110]
33.25[59, 80, 107, 236, 279, 126, 97, 91]
33.264[59, 73, 103, 244, 275, 130, 96, 157]
33.28[65, 75, 96, 257, 275, 110, 75, 159]
33.302[69, 77, 94, 224, 267, 169, 88, 168]
33.324[63, 67, 88, 280, 237, 189, 102, 167]
33.34[62, 63, 87, 332, 244, 186, 102, 168]
33.362[58, 63, 92, 351, 258, 185, 116, 144]
33.385[47, 53, 83, 343, 252, 184, 116, 135]
33.399[49, 49, 78, 370, 252, 134, 109, 141]
33.422[61, 68, 108, 353, 235, 123, 103, 150]
33.445[64, 72, 113, 314, 204, 122, 111, 152]
33.46[60, 71, 110, 274, 244, 115, 94, 115]
33.482[65, 71, 112, 273, 240, 112, 95, 114]
33.512[62, 71, 111, 284, 260, 114, 92, 97]
33.519[48, 56, 81, 258, 263, 88, 91, 86]
33.55[48, 57, 78, 245, 278, 90, 89, 97]
33.564[49, 57, 87, 299, 240, 93, 89, 102]
33.579[49, 61, 96, 349, 242, 101, 87, 111]
33.602[47, 61, 96, 309, 226, 105, 90, 134]
33.625[48, 55, 92, 321, 213, 111, 87, 141]
33.639[43, 51, 93, 344, 201, 113, 79, 129]
33.662[50, 61, 93, 338, 208, 123, 76, 127]
33.684[47, 61, 92, 324, 203, 113, 72, 113]
33.699[44, 59, 90, 344, 189, 105, 79, 102]
33.722[43, 60, 91, 348, 193, 100, 102, 147]
33.744[49, 65, 89, 325, 219, 109, 113, 157]
33.759[48, 60, 89, 315, 217, 95, 115, 156]
33.782[48, 56, 82, 310, 214, 95, 114, 157]
33.805[47, 57, 87, 324, 222, 95, 107, 152]
33.82[53, 61, 93, 310, 272, 108, 91, 115]
33.842[51, 57, 94, 329, 250, 91, 81, 117]
33.872[46, 52, 87, 310, 234, 112, 76, 127]
33.879[45, 49, 79, 288, 248, 125, 81, 131]
33.902[50, 56, 86, 250, 246, 135, 84, 125]
33.933[67, 77, 101, 257, 189, 146, 74, 120]
33.939[70, 82, 103, 230, 180, 152, 77, 112]
33.962[93, 113, 140, 318, 200, 152, 84, 129]
33.984[97, 118, 148, 312, 247, 145, 84, 131]
34.001[97, 117, 144, 346, 255, 143, 80, 133]
34.022[83, 102, 130, 336, 256, 121, 79, 124]
34.044[80, 102, 131, 338, 252, 113, 76, 124]
34.059[53, 64, 87, 259, 230, 122, 63, 91]
34.082[42, 57, 84, 290, 163, 119, 58, 78]
34.104[38, 51, 76, 244, 135, 110, 53, 65]
34.119[36, 51, 74, 237, 120, 108, 50, 62]
34.142[40, 48, 73, 285, 142, 113, 61, 84]
34.165[39, 48, 73, 265, 153, 86, 63, 89]
34.179[40, 46, 63, 220, 150, 104, 65, 100]
34.202[38, 46, 64, 248, 168, 116, 67, 104]
34.225[44, 52, 80, 294, 187, 122, 69, 108]
34.247[44, 49, 73, 249, 174, 131, 75, 103]
34.262[54, 58, 81, 332, 180, 133, 81, 103]
34.284[58, 65, 85, 349, 191, 121, 80, 92]
34.308[59, 67, 88, 340, 171, 120, 80, 90]
34.322[62, 69, 81, 328, 154, 118, 84, 100]
34.345[59, 67, 83, 334, 150, 106, 81, 102]
34.368[52, 57, 73, 266, 156, 101, 73, 100]
34.382[48, 52, 70, 249, 155, 101, 72, 100]
34.404[50, 55, 71, 254, 181, 92, 72, 100]
34.427[43, 47, 71, 253, 191, 104, 65, 88]
34.45[42, 47, 70, 253, 197, 102, 45, 63]
34.464[39, 46, 67, 236, 182, 96, 50, 59]
34.488[39, 47, 67, 227, 202, 115, 52, 62]
34.502[34, 42, 63, 247, 191, 124, 54, 58]
34.524[36, 40, 61, 235, 186, 120, 52, 70]
34.547[38, 49, 69, 229, 187, 128, 56, 70]
34.562[41, 51, 75, 237, 195, 130, 53, 72]
34.584[39, 47, 72, 234, 176, 116, 50, 71]
34.608[38, 49, 85, 205, 174, 105, 48, 74]
34.622[34, 48, 83, 173, 206, 96, 47, 65]
34.644[46, 54, 88, 183, 221, 114, 75, 93]
34.668[48, 58, 87, 190, 222, 120, 80, 96]
34.682[55, 71, 103, 211, 251, 123, 85, 98]
34.705[59, 77, 104, 198, 241, 123, 86, 97]
34.728[66, 81, 107, 241, 226, 128, 102, 128]
34.742[65, 77, 104, 229, 212, 121, 103, 148]
34.764[72, 84, 109, 225, 208, 119, 102, 149]
34.787[67, 76, 100, 238, 164, 109, 100, 150]
34.802[64, 67, 87, 232, 185, 118, 97, 149]
34.824[65, 70, 92, 220, 162, 118, 86, 130]
34.848[57, 64, 81, 228, 174, 105, 66, 99]
34.862[49, 53, 72, 221, 171, 106, 65, 112]
34.884[52, 56, 70, 196, 169, 107, 65, 114]
34.908[54, 61, 87, 232, 161, 97, 67, 117]
34.922[49, 54, 78, 232, 191, 102, 64, 112]
34.945[49, 55, 80, 252, 186, 108, 80, 110]
34.968[45, 52, 83, 264, 206, 106, 77, 92]
34.982[45, 55, 84, 260, 197, 109, 81, 92]
35.005[44, 49, 65, 231, 201, 108, 79, 92]
35.028[44, 49, 67, 200, 182, 109, 79, 92]
35.042[47, 52, 67, 162, 186, 108, 63, 87]
35.065[48, 55, 68, 138, 170, 128, 68, 84]
35.087[47, 55, 69, 149, 181, 137, 68, 80]
35.102[46, 55, 71, 159, 189, 138, 68, 78]
35.125[45, 56, 79, 223, 206, 139, 70, 71]
35.147[44, 57, 78, 258, 198, 130, 67, 59]
35.17[43, 55, 77, 283, 192, 111, 60, 60]
35.185[42, 54, 79, 288, 198, 103, 59, 62]
35.215[41, 55, 79, 293, 173, 103, 59, 60]
35.23[40, 58, 80, 266, 167, 126, 63, 88]
35.245[46, 63, 90, 325, 185, 159, 70, 129]
35.268[47, 62, 89, 311, 191, 166, 69, 134]
35.29[45, 63, 91, 310, 207, 170, 64, 134]
35.305[52, 71, 98, 312, 232, 173, 81, 152]
35.328[55, 72, 98, 306, 215, 146, 85, 166]
35.35[51, 67, 91, 226, 196, 123, 82, 141]
35.365[52, 72, 99, 232, 222, 135, 86, 141]
35.387[51, 66, 92, 248, 200, 145, 93, 144]
35.41[45, 57, 84, 234, 220, 150, 85, 128]
35.425[44, 54, 77, 266, 226, 157, 80, 91]
35.448[49, 56, 73, 270, 226, 149, 93, 108]
35.47[57, 58, 66, 278, 201, 150, 106, 116]
35.485[57, 58, 63, 266, 221, 151, 114, 134]
35.507[64, 66, 68, 367, 190, 143, 114, 138]
35.53[64, 65, 65, 338, 186, 135, 121, 145]
35.545[73, 89, 103, 376, 195, 143, 117, 136]
35.567[68, 86, 104, 369, 229, 118, 110, 146]
35.598[69, 94, 117, 364, 209, 91, 96, 132]
35.605[64, 89, 117, 281, 207, 96, 92, 129]
35.628[66, 92, 121, 308, 218, 102, 84, 124]
35.65[48, 65, 91, 266, 217, 99, 78, 125]
35.665[45, 60, 85, 272, 190, 108, 75, 123]
35.687[40, 47, 71, 304, 222, 120, 75, 116]
35.71[43, 48, 71, 335, 251, 126, 72, 113]
35.724[38, 41, 69, 337, 251, 124, 78, 118]
35.748[42, 48, 75, 337, 270, 116, 80, 141]
35.77[45, 51, 79, 336, 268, 114, 75, 142]
35.784[48, 59, 87, 308, 287, 113, 96, 144]
35.808[47, 55, 84, 324, 267, 100, 113, 165]
35.837[49, 58, 85, 304, 280, 100, 113, 165]
35.844[48, 52, 81, 295, 266, 101, 118, 141]
35.868[44, 50, 82, 311, 262, 121, 118, 122]
35.89[49, 44, 73, 321, 229, 117, 109, 158]
35.905[47, 45, 72, 291, 246, 120, 99, 140]
35.928[46, 38, 68, 300, 253, 116, 90, 140]
35.95[44, 37, 64, 317, 239, 129, 86, 145]
35.965[46, 37, 58, 292, 245, 116, 112, 155]
35.987[44, 41, 57, 306, 261, 114, 121, 128]
36.01[42, 40, 61, 320, 238, 108, 114, 127]
36.024[43, 47, 61, 332, 217, 107, 115, 122]
36.048[48, 58, 69, 343, 244, 103, 115, 125]
36.07[52, 64, 81, 349, 260, 96, 93, 115]
36.093[52, 70, 90, 367, 241, 96, 74, 100]
36.107[60, 77, 97, 369, 244, 105, 79, 109]
36.13[61, 77, 98, 373, 237, 113, 80, 113]
36.153[59, 73, 95, 340, 237, 99, 81, 104]
36.168[55, 66, 86, 391, 221, 98, 76, 100]
36.197[53, 60, 83, 370, 213, 93, 73, 102]
36.213[46, 54, 75, 334, 235, 93, 87, 109]
36.228[43, 53, 77, 320, 234, 87, 87, 116]
36.25[45, 53, 79, 324, 221, 103, 91, 160]
36.273[50, 63, 85, 273, 236, 105, 89, 160]
36.288[49, 64, 83, 266, 238, 106, 89, 158]
36.31[48, 64, 79, 257, 215, 106, 73, 143]
36.333[50, 66, 83, 239, 228, 123, 73, 146]
36.348[46, 63, 78, 266, 218, 114, 62, 93]
36.37[48, 62, 75, 251, 204, 120, 66, 105]
36.393[50, 63, 81, 243, 211, 125, 69, 111]
36.408[67, 80, 95, 282, 219, 119, 83, 146]
36.431[69, 82, 97, 305, 242, 100, 85, 148]
36.453[69, 84, 103, 286, 245, 93, 82, 148]
36.468[71, 83, 106, 283, 282, 82, 85, 152]
36.49[71, 81, 102, 302, 304, 73, 85, 153]
36.513[57, 68, 97, 282, 347, 91, 73, 122]
36.528[52, 61, 86, 271, 329, 95, 67, 104]
36.551[53, 59, 79, 262, 343, 95, 67, 107]
36.572[46, 54, 73, 279, 318, 98, 62, 93]
36.594[42, 55, 76, 242, 289, 106, 76, 101]
36.611[40, 51, 69, 250, 259, 98, 74, 101]
36.648[41, 52, 76, 233, 269, 92, 73, 102]
36.649[39, 51, 79, 232, 259, 100, 72, 95]
36.671[39, 59, 86, 246, 263, 102, 69, 90]
36.692[45, 62, 85, 272, 268, 110, 64, 85]
36.708[48, 65, 90, 246, 237, 103, 67, 105]
36.731[49, 70, 94, 245, 227, 104, 67, 109]
36.752[49, 69, 91, 242, 248, 100, 64, 106]
36.769[49, 65, 87, 301, 221, 149, 72, 107]
36.789[46, 63, 85, 294, 226, 143, 59, 97]
36.812[43, 57, 80, 303, 254, 148, 53, 77]
36.828[46, 57, 83, 334, 239, 160, 63, 81]
36.849[46, 57, 85, 353, 213, 160, 66, 78]
36.872[41, 52, 78, 293, 235, 109, 57, 76]
36.888[40, 54, 83, 375, 257, 107, 55, 76]
36.909[46, 64, 87, 386, 231, 104, 59, 76]
36.932[51, 60, 74, 360, 256, 135, 62, 114]
36.948[53, 60, 79, 352, 275, 142, 67, 126]
36.969[54, 68, 88, 349, 274, 143, 69, 126]
36.992[58, 70, 89, 260, 256, 144, 71, 126]
37.008[58, 69, 98, 308, 291, 148, 72, 124]
37.029[51, 70, 106, 307, 278, 110, 66, 89]
37.052[52, 69, 103, 331, 254, 103, 67, 81]
37.074[57, 73, 106, 348, 264, 105, 67, 85]
37.089[55, 69, 99, 353, 263, 97, 67, 84]
37.112[56, 74, 113, 311, 267, 88, 67, 99]
37.134[55, 74, 114, 310, 287, 83, 61, 93]
37.149[53, 78, 119, 298, 334, 85, 56, 85]
37.172[49, 71, 114, 269, 354, 87, 61, 122]
37.203[45, 69, 115, 255, 352, 84, 62, 127]
37.209[43, 63, 98, 346, 379, 96, 62, 117]
37.232[47, 69, 98, 349, 371, 106, 73, 118]
37.254[53, 73, 95, 384, 425, 114, 75, 130]
37.269[51, 68, 93, 383, 394, 113, 70, 103]
37.292[54, 71, 92, 382, 402, 115, 68, 97]
37.314[51, 68, 87, 319, 362, 113, 63, 96]
37.329[51, 66, 91, 331, 364, 104, 51, 93]
37.352[47, 62, 92, 305, 234, 87, 55, 77]
37.374[49, 63, 90, 319, 238, 88, 65, 78]
37.389[50, 61, 90, 322, 267, 94, 73, 94]
37.412[51, 59, 91, 351, 265, 93, 80, 102]
37.434[53, 53, 90, 388, 335, 95, 84, 108]
37.45[54, 51, 91, 364, 371, 96, 81, 112]
37.472[55, 54, 96, 372, 386, 92, 77, 103]
37.494[53, 56, 102, 391, 357, 86, 70, 91]
37.509[53, 62, 104, 343, 349, 78, 64, 81]
37.532[49, 64, 101, 335, 343, 83, 56, 72]
37.554[47, 64, 99, 345, 317, 93, 59, 67]
37.569[52, 70, 112, 348, 327, 122, 78, 97]
37.592[51, 66, 105, 355, 328, 124, 77, 94]
37.614[54, 67, 101, 359, 345, 136, 78, 95]
37.629[59, 71, 97, 323, 361, 147, 80, 98]
37.652[58, 69, 99, 357, 384, 145, 81, 103]
37.674[55, 66, 87, 354, 387, 126, 59, 73]
37.689[58, 70, 93, 354, 386, 134, 58, 72]
37.712[55, 68, 108, 344, 382, 137, 59, 74]
37.734[49, 64, 113, 364, 313, 138, 59, 75]
37.757[55, 72, 117, 343, 299, 136, 51, 72]
37.772[57, 76, 126, 319, 314, 145, 50, 77]
37.794[62, 86, 131, 333, 322, 145, 58, 81]
37.809[61, 84, 145, 448, 331, 141, 56, 79]
37.832[69, 92, 153, 441, 323, 130, 68, 83]
37.854[66, 87, 150, 428, 301, 127, 68, 86]
37.877[61, 80, 138, 464, 257, 111, 69, 81]
37.892[62, 85, 142, 487, 255, 98, 66, 78]
37.914[61, 83, 115, 450, 256, 93, 68, 74]
37.929[58, 83, 110, 451, 260, 92, 59, 65]
37.953[57, 82, 110, 443, 272, 90, 58, 48]
37.974[69, 105, 142, 441, 287, 100, 67, 54]
37.997[64, 96, 135, 387, 289, 111, 66, 51]
38.012[68, 99, 140, 343, 284, 111, 64, 55]
38.034[68, 99, 143, 341, 292, 120, 63, 60]
38.057[72, 106, 150, 341, 279, 132, 73, 76]
38.072[67, 92, 126, 293, 307, 142, 71, 79]
38.095[64, 88, 123, 295, 329, 135, 68, 82]
38.117[68, 94, 124, 298, 313, 132, 69, 82]
38.131[62, 83, 109, 298, 297, 117, 70, 88]
38.154[59, 75, 98, 337, 327, 111, 62, 80]
38.177[57, 66, 88, 340, 268, 85, 54, 72]
38.192[58, 69, 91, 334, 226, 82, 53, 70]
38.214[51, 57, 83, 345, 229, 74, 49, 67]
38.245[52, 64, 87, 319, 240, 88, 53, 57]
38.251[52, 69, 97, 286, 215, 103, 54, 66]
38.274[48, 69, 101, 326, 226, 116, 53, 74]
38.297[52, 69, 100, 349, 227, 118, 58, 77]
38.311[52, 71, 108, 306, 214, 121, 60, 79]
38.334[53, 74, 111, 319, 195, 110, 56, 83]
38.357[61, 82, 131, 325, 244, 104, 53, 81]
38.372[60, 83, 135, 292, 247, 90, 57, 75]
38.402[58, 86, 142, 247, 259, 85, 58, 75]
38.417[58, 83, 131, 243, 313, 108, 63, 76]
38.432[61, 80, 127, 264, 318, 117, 66, 103]
38.454[57, 79, 120, 269, 329, 114, 71, 103]
38.477[58, 79, 116, 289, 335, 116, 70, 104]
38.492[61, 81, 117, 323, 332, 118, 70, 103]
38.514[61, 83, 123, 324, 289, 93, 65, 107]
38.537[55, 78, 119, 340, 310, 88, 66, 83]
38.552[49, 70, 103, 324, 274, 82, 57, 81]
38.574[45, 65, 99, 331, 289, 88, 54, 83]
38.597[41, 60, 84, 322, 301, 87, 54, 87]
38.612[41, 57, 81, 339, 307, 89, 58, 84]
38.634[42, 58, 82, 351, 303, 88, 56, 79]
38.657[47, 63, 85, 400, 298, 87, 59, 73]
38.672[51, 65, 83, 363, 293, 82, 59, 68]
38.694[50, 61, 88, 346, 270, 84, 54, 61]
38.717[58, 74, 107, 342, 248, 87, 53, 59]
38.732[60, 76, 104, 285, 236, 93, 55, 60]
38.754[55, 66, 94, 215, 210, 90, 54, 71]
38.776[56, 66, 95, 244, 169, 89, 57, 73]
38.792[57, 68, 93, 242, 172, 100, 59, 81]
38.814[50, 67, 97, 248, 203, 109, 56, 82]
38.836[46, 65, 98, 271, 192, 99, 57, 78]
38.852[45, 64, 100, 280, 208, 100, 65, 76]
38.874[47, 68, 103, 256, 228, 100, 66, 84]
38.897[53, 72, 116, 366, 253, 91, 65, 81]
38.912[50, 59, 94, 380, 239, 72, 64, 80]
38.934[53, 63, 101, 374, 239, 76, 60, 79]
38.957[54, 69, 101, 400, 243, 72, 55, 78]
38.98[53, 67, 99, 474, 263, 80, 53, 79]
38.994[50, 60, 83, 394, 239, 75, 54, 94]
39.017[51, 61, 84, 370, 236, 93, 59, 92]
39.04[55, 69, 104, 397, 250, 96, 60, 94]
39.054[56, 70, 113, 365, 264, 98, 54, 88]
39.077[55, 67, 114, 276, 238, 93, 53, 79]
39.1[53, 71, 112, 278, 238, 108, 76, 92]
39.114[54, 77, 126, 277, 246, 107, 75, 98]
39.137[51, 69, 106, 309, 251, 103, 78, 106]
39.16[46, 63, 93, 306, 232, 104, 77, 107]
39.174[48, 68, 93, 321, 226, 100, 76, 108]
39.197[44, 67, 93, 334, 260, 96, 49, 73]
39.22[44, 67, 90, 332, 254, 89, 48, 66]
39.234[48, 71, 102, 273, 231, 93, 51, 57]
39.257[52, 74, 110, 307, 255, 113, 62, 80]
39.28[52, 69, 110, 287, 260, 120, 72, 95]
39.294[54, 72, 114, 332, 236, 116, 75, 98]
39.317[60, 77, 120, 317, 243, 126, 81, 101]
39.34[56, 74, 109, 294, 269, 126, 75, 97]
39.354[56, 79, 111, 289, 249, 128, 65, 85]
39.377[54, 82, 117, 289, 289, 129, 55, 66]
39.4[50, 78, 112, 276, 278, 125, 51, 64]
39.414[44, 68, 93, 294, 279, 114, 46, 61]
39.437[43, 67, 93, 335, 259, 113, 45, 61]
39.461[39, 59, 85, 319, 259, 87, 46, 51]
39.474[38, 55, 81, 317, 206, 80, 46, 52]
39.497[42, 55, 79, 276, 208, 78, 49, 52]
39.52[43, 58, 95, 296, 281, 84, 44, 50]
39.534[45, 60, 104, 265, 273, 89, 53, 57]
39.557[46, 59, 106, 257, 326, 107, 52, 64]
39.58[66, 92, 134, 285, 358, 123, 64, 73]
39.594[70, 100, 140, 289, 364, 124, 64, 73]
39.617[70, 97, 128, 285, 313, 117, 64, 73]
39.64[72, 102, 138, 277, 337, 113, 58, 70]
39.654[73, 104, 144, 308, 283, 102, 57, 63]
39.677[56, 77, 117, 294, 253, 81, 53, 72]
39.7[52, 71, 111, 280, 263, 93, 55, 73]
39.714[54, 86, 143, 283, 267, 102, 56, 72]
39.737[57, 86, 130, 273, 243, 128, 75, 75]
39.76[57, 82, 120, 227, 248, 127, 77, 74]
39.774[57, 87, 125, 233, 257, 123, 71, 58]
39.797[58, 87, 129, 235, 248, 116, 70, 56]
39.82[61, 78, 104, 212, 233, 111, 80, 75]
39.834[54, 69, 100, 245, 233, 78, 62, 70]
39.857[52, 69, 100, 257, 247, 74, 61, 78]
39.88[57, 69, 102, 241, 247, 100, 71, 80]
39.903[54, 64, 97, 246, 240, 103, 74, 81]
39.917[43, 53, 88, 267, 251, 105, 72, 78]
39.94[47, 57, 95, 235, 259, 108, 73, 78]
39.962[53, 66, 100, 230, 243, 110, 76, 78]
39.977[62, 84, 132, 244, 251, 124, 73, 76]
40.0[67, 93, 142, 283, 243, 129, 72, 76]
40.022[69, 93, 137, 245, 228, 124, 62, 63]
40.045[70, 94, 138, 272, 207, 121, 62, 64]
40.06[79, 112, 160, 335, 202, 133, 69, 60]
40.082[67, 98, 134, 330, 174, 107, 66, 61]
40.105[65, 92, 125, 302, 210, 101, 67, 69]
40.12[67, 96, 134, 321, 218, 111, 68, 68]
40.142[66, 96, 139, 321, 252, 121, 70, 68]
40.157[54, 69, 109, 297, 258, 103, 69, 75]
40.18[56, 65, 101, 282, 270, 112, 80, 94]
40.202[53, 67, 107, 290, 263, 132, 82, 96]
40.217[66, 83, 116, 277, 254, 135, 92, 106]
40.24[73, 92, 109, 312, 233, 130, 91, 104]
40.262[74, 95, 115, 269, 215, 135, 89, 99]
40.277[79, 99, 120, 289, 231, 127, 83, 97]
40.3[78, 98, 114, 282, 233, 115, 82, 89]
40.322[67, 89, 111, 291, 231, 103, 71, 84]
40.337[59, 77, 101, 280, 225, 105, 69, 90]
40.36[55, 71, 92, 277, 228, 106, 63, 86]
40.382[47, 66, 87, 271, 197, 107, 65, 69]
40.397[47, 63, 88, 269, 171, 93, 62, 71]
40.42[53, 61, 88, 271, 182, 99, 67, 85]
40.45[51, 61, 96, 216, 188, 93, 67, 91]
40.457[58, 67, 101, 258, 223, 93, 71, 95]
40.48[65, 79, 106, 241, 224, 111, 64, 102]
40.503[66, 79, 103, 230, 235, 126, 63, 99]
40.517[58, 71, 83, 201, 221, 120, 59, 83]
40.54[58, 75, 79, 215, 223, 139, 85, 98]
40.562[54, 73, 74, 160, 182, 139, 90, 97]
40.577[49, 65, 74, 175, 162, 127, 86, 84]
40.6[47, 65, 78, 164, 139, 115, 96, 84]
40.622[49, 67, 76, 164, 142, 114, 94, 85]
40.637[44, 58, 69, 136, 116, 85, 69, 46]
40.66[39, 51, 64, 153, 107, 74, 60, 35]
40.682[32, 44, 51, 133, 110, 63, 60, 38]
40.697[31, 39, 44, 145, 106, 53, 43, 44]
40.72[30, 40, 51, 128, 115, 62, 110, 46]
40.742[31, 40, 49, 138, 122, 66, 137, 49]
40.757[31, 41, 52, 116, 131, 70, 140, 52]
40.78[30, 38, 47, 118, 128, 67, 143, 51]
40.802[29, 38, 47, 100, 126, 66, 143, 63]
40.825[26, 30, 38, 98, 114, 52, 107, 60]
40.84[25, 31, 37, 79, 99, 45, 69, 58]
40.862[25, 29, 30, 67, 83, 33, 61, 56]
40.885[23, 28, 31, 51, 67, 29, 51, 54]
40.9[22, 26, 27, 44, 50, 26, 48, 30]
40.922[26, 25, 26, 36, 40, 22, 41, 48]
40.945[27, 24, 25, 28, 34, 21, 40, 54]
40.96[33, 27, 29, 34, 32, 22, 58, 65]
40.982[33, 27, 26, 31, 27, 25, 67, 69]
41.005[34, 29, 26, 31, 27, 26, 69, 72]
41.02[34, 30, 26, 31, 27, 26, 64, 81]
41.042[34, 28, 24, 31, 25, 29, 68, 84]
41.065[30, 23, 22, 23, 22, 28, 53, 78]
41.087[29, 23, 23, 23, 23, 25, 44, 76]
41.103[29, 21, 23, 23, 24, 29, 61, 75]
41.125[26, 21, 24, 22, 23, 30, 63, 58]
41.139[24, 23, 24, 21, 23, 27, 60, 45]
41.162[26, 23, 22, 20, 22, 29, 59, 44]
41.185[25, 23, 22, 24, 23, 30, 57, 42]
41.199[23, 21, 21, 24, 19, 23, 34, 39]
41.222[22, 22, 19, 24, 19, 24, 27, 30]
41.245[23, 20, 18, 23, 20, 23, 25, 28]
41.259[23, 22, 19, 23, 21, 23, 25, 24]
41.282[23, 21, 18, 19, 20, 20, 21, 22]
41.306[23, 23, 19, 21, 20, 22, 20, 21]
41.319[23, 21, 20, 21, 20, 20, 19, 22]
41.343[22, 22, 20, 23, 22, 21, 20, 22]
41.365[18, 21, 19, 24, 22, 18, 19, 20]
41.379[18, 22, 20, 25, 22, 20, 19, 18]
41.402[20, 21, 22, 25, 25, 21, 20, 21]
41.425[20, 21, 22, 26, 25, 21, 20, 19]
41.439[21, 19, 23, 25, 23, 21, 21, 19]
41.47[22, 18, 22, 25, 22, 21, 20, 20]
41.485[21, 18, 22, 25, 23, 20, 20, 21]
41.499[20, 18, 20, 25, 21, 18, 18, 19]
41.523[19, 18, 22, 24, 23, 19, 19, 20]
41.544[19, 20, 21, 24, 22, 18, 17, 21]
41.567[19, 21, 20, 21, 23, 18, 18, 20]
41.583[19, 21, 20, 19, 21, 19, 19, 20]
41.604[20, 21, 19, 18, 21, 20, 19, 22]
41.627[20, 22, 19, 17, 20, 19, 20, 20]
41.643[20, 20, 18, 18, 21, 18, 20, 20]
41.664[18, 20, 20, 20, 22, 20, 22, 19]
41.687[20, 21, 19, 20, 22, 20, 21, 18]
41.703[19, 21, 20, 18, 22, 19, 24, 16]
41.724[20, 20, 18, 20, 21, 19, 22, 18]
41.747[20, 22, 19, 22, 19, 18, 21, 19]
41.763[21, 21, 18, 22, 17, 17, 21, 20]
41.785[20, 20, 19, 23, 21, 17, 22, 20]
41.807[19, 19, 18, 22, 22, 18, 22, 19]
41.823[19, 20, 18, 21, 22, 18, 23, 18]
41.844[19, 19, 18, 20, 23, 19, 23, 18]
41.867[17, 19, 19, 20, 23, 19, 22, 19]
41.883[17, 18, 18, 20, 19, 20, 22, 18]
41.904[19, 18, 21, 21, 20, 20, 21, 21]
41.927[17, 18, 21, 22, 19, 19, 20, 22]
41.943[24, 16, 21, 21, 18, 19, 24, 54]
41.965[29, 18, 23, 23, 20, 20, 29, 64]
41.987[32, 19, 23, 21, 21, 18, 28, 68]
42.003[30, 20, 22, 21, 20, 19, 28, 68]
42.024[31, 20, 23, 20, 21, 18, 29, 70]
42.047[25, 22, 23, 21, 22, 20, 27, 49]
42.063[20, 21, 22, 19, 20, 19, 20, 36]
42.084[16, 21, 24, 19, 20, 19, 19, 28]
42.107[17, 23, 22, 20, 19, 18, 19, 29]
42.124[16, 24, 22, 20, 18, 20, 17, 28]
42.152[18, 22, 22, 18, 19, 19, 16, 28]
42.167[18, 22, 21, 17, 18, 18, 15, 29]
42.183[18, 22, 20, 18, 19, 17, 17, 29]
42.204[19, 21, 22, 16, 19, 19, 18, 28]
42.227[20, 19, 22, 16, 19, 17, 19, 23]
42.242[20, 19, 21, 19, 19, 17, 20, 21]
42.264[21, 19, 21, 19, 20, 19, 21, 20]
42.287[23, 19, 19, 18, 20, 20, 20, 19]
42.302[31, 19, 19, 20, 19, 19, 28, 70]
42.324[30, 20, 18, 20, 20, 19, 27, 75]
42.347[29, 22, 19, 18, 19, 20, 28, 75]
42.362[30, 22, 18, 17, 21, 19, 27, 76]
42.384[28, 22, 20, 18, 21, 19, 28, 77]
42.407[19, 22, 21, 18, 22, 18, 20, 40]
42.422[19, 21, 20, 18, 21, 20, 20, 26]
42.444[20, 20, 21, 20, 20, 20, 20, 26]
42.467[19, 20, 22, 20, 18, 21, 20, 22]
42.482[18, 20, 20, 20, 17, 20, 18, 21]
42.504[18, 19, 20, 20, 21, 20, 18, 18]
42.527[18, 19, 21, 19, 21, 18, 20, 20]
42.542[17, 19, 21, 17, 20, 17, 19, 21]
42.564[17, 19, 21, 18, 21, 15, 19, 22]
42.587[17, 19, 21, 17, 21, 17, 20, 20]
42.602[18, 19, 21, 15, 19, 18, 20, 20]
42.624[17, 18, 21, 16, 18, 17, 17, 20]
42.647[21, 18, 20, 15, 19, 19, 17, 19]
42.662[21, 19, 20, 14, 20, 19, 16, 17]
42.685[23, 19, 23, 15, 20, 18, 19, 19]
42.707[22, 22, 21, 17, 19, 18, 18, 18]
42.729[22, 22, 22, 17, 20, 19, 20, 18]
42.746[20, 24, 22, 19, 20, 18, 19, 17]
42.767[19, 23, 24, 20, 18, 18, 19, 18]
42.789[19, 23, 23, 19, 19, 19, 18, 18]
42.804[20, 21, 24, 20, 19, 18, 20, 18]
42.826[19, 22, 23, 19, 19, 17, 18, 18]
42.85[19, 21, 23, 17, 22, 17, 20, 19]
42.865[21, 22, 23, 20, 23, 16, 22, 20]
42.887[20, 23, 23, 22, 21, 16, 21, 19]
42.909[19, 24, 21, 21, 21, 17, 20, 19]
42.924[20, 23, 26, 23, 20, 18, 20, 20]
42.947[19, 23, 25, 22, 18, 17, 20, 20]
42.969[17, 23, 23, 22, 17, 18, 19, 19]
42.984[19, 21, 22, 21, 18, 18, 19, 19]
43.007[18, 19, 22, 21, 19, 18, 20, 20]
43.029[18, 20, 19, 20, 19, 18, 20, 20]
43.044[19, 20, 19, 21, 19, 19, 19, 19]
43.067[18, 19, 19, 19, 19, 19, 18, 18]
43.089[16, 19, 19, 21, 19, 19, 19, 17]
43.104[18, 21, 21, 22, 19, 20, 19, 16]
43.127[17, 20, 22, 22, 20, 20, 19, 18]
43.149[18, 23, 23, 22, 20, 19, 18, 17]
43.164[18, 24, 24, 23, 20, 18, 17, 21]
43.187[19, 24, 24, 21, 21, 19, 16, 21]
43.209[19, 22, 23, 19, 20, 18, 15, 21]
43.224[19, 23, 21, 18, 19, 17, 18, 19]
43.247[19, 21, 21, 19, 20, 18, 17, 20]
43.269[20, 20, 21, 18, 19, 18, 18, 19]
43.284[20, 21, 20, 19, 20, 16, 19, 20]
43.307[20, 20, 20, 18, 21, 18, 20, 20]
43.329[21, 19, 21, 18, 21, 19, 18, 22]
43.344[22, 20, 20, 17, 20, 20, 19, 23]
43.366[23, 21, 20, 19, 21, 19, 19, 21]
43.389[24, 20, 21, 19, 20, 19, 18, 20]
43.412[23, 21, 20, 20, 19, 19, 19, 20]
43.427[22, 21, 22, 21, 21, 18, 18, 18]
43.449[20, 20, 23, 21, 20, 16, 19, 16]
43.464[19, 22, 23, 21, 20, 17, 18, 16]
43.487[17, 21, 22, 20, 21, 17, 19, 17]
43.509[15, 21, 22, 19, 21, 15, 18, 19]
43.524[19, 22, 21, 18, 19, 17, 18, 19]
43.546[18, 23, 20, 20, 19, 18, 18, 19]
43.569[20, 23, 19, 18, 19, 18, 19, 18]
43.586[22, 22, 19, 17, 18, 18, 20, 17]
43.607[23, 22, 20, 18, 18, 19, 20, 16]
43.629[20, 22, 17, 18, 19, 18, 20, 17]
43.644[23, 21, 19, 19, 18, 17, 19, 17]
43.666[21, 20, 20, 19, 19, 19, 18, 18]
43.689[22, 21, 22, 20, 20, 19, 16, 18]
43.712[23, 21, 20, 22, 20, 18, 16, 20]
43.727[24, 21, 22, 22, 19, 20, 17, 21]
43.749[22, 21, 21, 22, 19, 19, 18, 22]
43.772[22, 22, 21, 23, 18, 19, 19, 21]
43.787[20, 21, 20, 25, 19, 18, 22, 21]
43.809[22, 21, 22, 22, 19, 19, 22, 21]
43.832[21, 20, 23, 27, 20, 18, 21, 19]
43.846[21, 22, 23, 30, 21, 19, 19, 17]
43.869[21, 21, 24, 46, 28, 20, 19, 18]
43.892[22, 23, 28, 55, 36, 20, 19, 19]
43.906[21, 23, 29, 61, 39, 20, 21, 19]
43.929[22, 24, 29, 63, 41, 20, 21, 18]
43.952[22, 23, 28, 63, 41, 20, 23, 18]
43.967[22, 21, 27, 52, 38, 18, 23, 18]
43.989[20, 20, 23, 47, 30, 19, 22, 19]
44.012[20, 19, 23, 44, 28, 19, 19, 18]
44.026[20, 19, 23, 46, 26, 18, 19, 18]
44.049[19, 20, 23, 48, 27, 18, 18, 21]
44.072[19, 20, 24, 50, 29, 19, 19, 21]
44.086[20, 21, 25, 57, 29, 20, 17, 19]
44.109[18, 21, 24, 60, 30, 19, 18, 19]
44.132[17, 22, 23, 55, 28, 19, 18, 20]
44.147[19, 22, 25, 53, 29, 20, 20, 19]
44.169[18, 22, 24, 57, 29, 19, 19, 19]
44.2[20, 23, 23, 45, 27, 18, 20, 21]
44.206[21, 23, 23, 39, 24, 18, 21, 20]
44.229[21, 22, 23, 39, 23, 19, 21, 21]
44.252[20, 23, 20, 39, 23, 18, 19, 22]
44.267[19, 22, 19, 35, 21, 19, 18, 22]
44.289[18, 21, 19, 34, 23, 19, 19, 21]
44.312[17, 21, 20, 32, 23, 22, 18, 22]
44.327[17, 22, 19, 32, 22, 21, 19, 20]
44.349[19, 20, 19, 29, 21, 21, 19, 19]
44.373[18, 22, 20, 19, 20, 21, 20, 18]
44.387[17, 22, 21, 20, 20, 21, 18, 18]
44.417[17, 21, 20, 21, 22, 19, 16, 18]
44.432[17, 21, 22, 18, 24, 19, 17, 17]
44.446[16, 21, 22, 18, 23, 19, 19, 18]
44.469[18, 22, 23, 20, 23, 20, 19, 17]
44.492[18, 22, 22, 18, 21, 20, 19, 15]
44.506[19, 23, 21, 16, 19, 20, 20, 17]
44.529[19, 22, 21, 17, 19, 20, 19, 19]
44.552[20, 22, 22, 17, 19, 20, 19, 18]
44.567[19, 20, 20, 17, 19, 20, 19, 18]
44.589[20, 21, 23, 17, 19, 19, 19, 19]
44.613[20, 20, 23, 18, 19, 19, 18, 18]
44.635[19, 21, 22, 19, 18, 19, 19, 16]
44.649[18, 21, 22, 20, 17, 18, 19, 17]
44.673[18, 21, 22, 18, 19, 20, 20, 17]
44.695[17, 21, 20, 19, 20, 21, 21, 18]
44.709[17, 22, 23, 20, 18, 20, 20, 17]
44.732[18, 22, 24, 19, 18, 20, 19, 17]
44.755[18, 21, 23, 19, 19, 20, 21, 18]
44.769[19, 23, 23, 19, 15, 17, 19, 19]
44.793[19, 23, 24, 18, 17, 16, 17, 18]
44.815[19, 24, 23, 16, 18, 17, 17, 18]
44.829[19, 21, 22, 15, 18, 19, 17, 17]
44.852[20, 22, 22, 14, 19, 19, 16, 17]
44.875[20, 21, 22, 18, 19, 19, 16, 17]
44.889[20, 20, 22, 19, 19, 19, 17, 16]
44.913[20, 19, 20, 19, 20, 19, 19, 18]
44.935[18, 20, 20, 19, 21, 17, 19, 19]
44.949[20, 19, 21, 20, 19, 17, 20, 18]
44.973[19, 18, 22, 17, 21, 17, 19, 19]
44.995[20, 18, 21, 16, 21, 18, 19, 18]
45.009[20, 17, 22, 18, 21, 17, 21, 18]
45.033[20, 19, 23, 21, 22, 17, 20, 19]
45.055[19, 19, 22, 22, 22, 18, 19, 20]
45.069[18, 19, 21, 22, 21, 19, 19, 21]
45.092[17, 20, 22, 24, 20, 19, 20, 20]
45.115[19, 20, 23, 23, 19, 20, 19, 21]
45.129[20, 18, 22, 20, 16, 20, 19, 21]
45.153[20, 18, 22, 21, 17, 19, 19, 20]
45.175[20, 18, 22, 20, 20, 19, 18, 17]
45.189[20, 18, 23, 20, 19, 17, 20, 18]
45.213[19, 19, 22, 20, 19, 17, 16, 15]
45.235[19, 19, 22, 20, 19, 18, 17, 14]
45.249[27, 20, 21, 18, 18, 18, 18, 16]
45.273[33, 21, 22, 18, 16, 19, 18, 18]
45.295[37, 21, 19, 17, 16, 19, 20, 18]
45.309[37, 23, 20, 16, 17, 21, 21, 20]
45.332[39, 23, 19, 17, 18, 20, 20, 20]
45.355[34, 23, 18, 18, 19, 22, 19, 20]
45.369[28, 22, 17, 20, 19, 20, 22, 19]
45.392[23, 21, 17, 20, 20, 21, 20, 19]
45.415[20, 19, 18, 19, 19, 19, 19, 17]
45.429[16, 17, 19, 19, 21, 19, 20, 16]
45.452[14, 16, 20, 17, 20, 17, 23, 15]
45.475[16, 17, 21, 17, 20, 17, 21, 16]
45.489[16, 17, 20, 20, 21, 16, 20, 15]
45.512[21, 18, 20, 23, 21, 19, 21, 17]
45.535[21, 20, 19, 22, 19, 19, 21, 18]
45.549[22, 20, 20, 24, 19, 18, 18, 19]
45.572[21, 18, 20, 23, 17, 21, 19, 18]
45.595[23, 18, 20, 22, 16, 22, 19, 19]
45.617[20, 18, 19, 20, 15, 21, 17, 17]
45.632[20, 19, 19, 21, 16, 21, 17, 18]
45.655[20, 21, 18, 20, 20, 20, 16, 19]
45.677[20, 21, 19, 21, 21, 19, 17, 19]
45.692[17, 22, 20, 22, 22, 19, 19, 19]
45.715[18, 23, 19, 29, 23, 17, 18, 22]
45.737[18, 20, 21, 30, 24, 17, 19, 21]
45.752[20, 19, 21, 30, 22, 19, 19, 20]
45.775[21, 20, 21, 29, 22, 18, 19, 20]
45.797[22, 20, 19, 28, 21, 17, 17, 22]
45.812[21, 21, 21, 21, 21, 18, 19, 20]
45.835[21, 22, 19, 21, 20, 19, 19, 19]
45.857[19, 20, 19, 20, 20, 18, 19, 21]
45.872[20, 20, 19, 21, 20, 18, 19, 20]
45.896[19, 21, 20, 22, 20, 19, 19, 19]
45.917[19, 19, 20, 22, 20, 18, 19, 19]
45.932[17, 19, 21, 22, 20, 19, 20, 19]
45.955[20, 19, 20, 22, 22, 19, 22, 18]
45.977[17, 22, 20, 22, 21, 19, 20, 19]
45.992[19, 21, 20, 20, 21, 19, 21, 19]
46.015[18, 21, 20, 20, 21, 20, 20, 19]
46.037[20, 21, 21, 19, 22, 21, 19, 20]
46.052[17, 20, 23, 20, 20, 20, 18, 20]
46.075[18, 18, 23, 19, 20, 20, 20, 19]
46.097[19, 19, 24, 20, 20, 19, 20, 20]
46.12[22, 19, 24, 19, 21, 18, 19, 22]
46.135[21, 19, 23, 18, 19, 18, 20, 21]
46.157[21, 19, 21, 18, 20, 19, 22, 20]
46.171[20, 20, 21, 17, 21, 21, 21, 21]
46.195[19, 20, 22, 19, 22, 22, 23, 21]
46.217[25, 19, 22, 19, 22, 23, 23, 19]
46.232[36, 21, 22, 21, 22, 23, 24, 18]
46.259[49, 21, 22, 21, 22, 24, 21, 23]
46.277[55, 21, 21, 23, 22, 27, 32, 23]
46.292[56, 20, 22, 23, 20, 27, 31, 23]
46.315[53, 20, 21, 22, 19, 27, 32, 23]
46.337[47, 19, 21, 21, 19, 26, 31, 23]
46.36[33, 19, 22, 21, 18, 26, 33, 17]
46.377[24, 21, 23, 21, 21, 21, 23, 16]
46.397[21, 21, 23, 21, 21, 21, 23, 17]
46.412[19, 20, 23, 21, 22, 21, 21, 15]
46.435[19, 22, 22, 20, 24, 21, 20, 17]
46.457[17, 21, 22, 20, 25, 24, 18, 17]
46.472[16, 19, 22, 20, 23, 24, 17, 18]
46.495[16, 20, 22, 19, 22, 23, 17, 18]
46.517[17, 19, 23, 18, 21, 23, 17, 20]
46.539[28, 19, 22, 20, 19, 24, 20, 19]
46.555[34, 20, 22, 20, 17, 20, 19, 19]
46.577[34, 19, 23, 20, 17, 20, 18, 18]
46.599[33, 19, 22, 19, 17, 20, 18, 18]
46.615[33, 20, 21, 20, 16, 19, 18, 18]
46.637[23, 18, 21, 19, 16, 17, 18, 19]
46.659[15, 20, 22, 20, 17, 18, 18, 20]
46.676[15, 20, 18, 20, 16, 18, 17, 19]
46.698[17, 20, 18, 18, 17, 17, 17, 19]
46.719[19, 20, 18, 19, 20, 16, 19, 20]
46.741[19, 20, 19, 20, 20, 17, 20, 21]
46.756[22, 18, 20, 18, 22, 16, 22, 21]
46.779[23, 19, 20, 18, 21, 18, 23, 23]
46.796[23, 20, 21, 20, 21, 22, 22, 22]
46.817[22, 20, 21, 18, 19, 23, 20, 21]
46.839[21, 20, 21, 18, 20, 23, 18, 20]
46.855[18, 20, 21, 18, 18, 24, 18, 21]
46.877[14, 21, 22, 20, 20, 23, 17, 17]
46.899[14, 21, 20, 20, 20, 22, 17, 17]
46.915[17, 21, 19, 20, 19, 21, 20, 17]
46.937[17, 22, 20, 19, 20, 22, 21, 17]
46.959[19, 21, 18, 19, 20, 21, 22, 17]
46.976[20, 20, 19, 19, 19, 20, 22, 17]
46.997[21, 19, 20, 19, 17, 20, 24, 20]
47.02[18, 19, 20, 20, 17, 22, 23, 19]
47.035[19, 18, 20, 20, 17, 21, 23, 20]
47.057[18, 18, 21, 21, 19, 21, 21, 20]
47.086[19, 19, 21, 20, 22, 21, 22, 22]
47.095[19, 19, 20, 20, 22, 20, 21, 19]
47.117[19, 18, 19, 20, 23, 17, 20, 19]
47.14[20, 20, 17, 22, 21, 18, 21, 18]
47.155[19, 22, 17, 22, 21, 19, 21, 19]
47.177[18, 21, 16, 23, 18, 19, 21, 18]
47.199[19, 22, 16, 23, 21, 19, 22, 19]
47.215[20, 22, 17, 23, 23, 20, 22, 19]
47.237[20, 20, 19, 22, 24, 17, 21, 19]
47.261[20, 19, 19, 21, 23, 16, 21, 19]
47.276[20, 20, 20, 19, 24, 17, 18, 19]
47.297[20, 18, 20, 19, 22, 18, 17, 20]
47.319[21, 20, 20, 19, 19, 18, 18, 20]
47.343[20, 20, 19, 19, 21, 17, 19, 19]
47.356[20, 20, 19, 20, 22, 19, 18, 20]
47.379[21, 20, 18, 21, 21, 18, 19, 21]
47.396[20, 21, 18, 21, 22, 17, 19, 19]
47.417[20, 20, 18, 23, 23, 17, 18, 20]
47.439[21, 19, 17, 24, 22, 17, 18, 21]
47.463[22, 19, 17, 24, 21, 15, 19, 18]
47.477[21, 19, 18, 23, 21, 15, 18, 17]
47.499[21, 18, 21, 23, 21, 18, 17, 18]
47.521[21, 19, 21, 21, 23, 18, 17, 22]
47.536[19, 19, 20, 20, 22, 21, 19, 21]
47.559[17, 21, 22, 19, 22, 22, 19, 22]
47.581[17, 20, 22, 20, 22, 24, 21, 21]
47.597[18, 21, 21, 20, 20, 22, 20, 22]
47.619[17, 20, 21, 20, 17, 21, 21, 16]
47.641[20, 21, 22, 20, 17, 19, 20, 16]
47.656[21, 19, 21, 20, 17, 18, 18, 17]
47.679[22, 18, 20, 19, 18, 16, 19, 18]
47.701[22, 18, 21, 19, 18, 16, 18, 16]
47.717[20, 17, 19, 21, 18, 17, 20, 19]
47.747[20, 16, 22, 21, 20, 21, 18, 20]
47.761[18, 16, 21, 22, 20, 20, 20, 19]
47.776[17, 19, 21, 23, 21, 21, 19, 20]
47.799[17, 19, 20, 22, 22, 21, 22, 21]
47.822[18, 20, 21, 19, 22, 20, 19, 20]
47.837[17, 20, 19, 19, 21, 19, 21, 20]
47.861[18, 21, 20, 16, 20, 17, 19, 20]
47.882[19, 21, 20, 18, 21, 16, 18, 18]
47.897[19, 21, 21, 19, 21, 18, 17, 18]
47.919[20, 21, 22, 20, 22, 19, 18, 19]
47.942[21, 22, 22, 20, 21, 17, 16, 17]
47.956[21, 21, 23, 21, 23, 19, 17, 18]
47.979[22, 24, 24, 20, 20, 20, 18, 19]
48.001[20, 24, 23, 21, 20, 18, 17, 18]
48.017[23, 24, 22, 21, 20, 19, 16, 19]
48.039[23, 25, 22, 21, 20, 19, 16, 20]
48.061[22, 25, 21, 21, 20, 21, 16, 21]
48.076[21, 23, 22, 21, 21, 19, 15, 19]
48.099[22, 23, 20, 21, 22, 21, 14, 20]
48.121[21, 23, 21, 20, 21, 21, 16, 18]
48.137[21, 20, 21, 20, 21, 21, 18, 19]
48.159[21, 21, 23, 23, 19, 19, 17, 18]
48.182[20, 20, 22, 21, 20, 20, 18, 18]
48.197[20, 20, 23, 20, 18, 20, 19, 17]
48.227[17, 20, 21, 20, 18, 19, 19, 19]
48.241[17, 20, 23, 20, 18, 19, 18, 17]
48.256[17, 19, 23, 21, 18, 20, 19, 18]
48.279[17, 21, 21, 21, 17, 20, 19, 18]
48.303[17, 19, 20, 21, 17, 20, 18, 21]
48.317[21, 19, 22, 21, 19, 19, 17, 21]
48.339[22, 20, 22, 21, 19, 19, 16, 22]
48.362[22, 22, 20, 18, 19, 18, 16, 21]
48.376[22, 21, 21, 20, 19, 18, 17, 21]
48.399[21, 21, 22, 19, 19, 17, 16, 20]
48.421[19, 20, 21, 19, 18, 19, 17, 19]
48.444[18, 19, 19, 17, 19, 20, 18, 18]
48.459[18, 19, 19, 19, 20, 21, 17, 18]
48.481[19, 19, 21, 19, 19, 21, 17, 19]
48.504[19, 20, 19, 20, 21, 21, 18, 17]
48.519[19, 22, 20, 20, 20, 21, 18, 17]
48.541[18, 24, 22, 19, 19, 20, 18, 16]
48.564[18, 23, 23, 21, 21, 19, 19, 17]
48.579[19, 23, 22, 19, 22, 21, 20, 16]
48.601[19, 24, 23, 20, 21, 21, 20, 16]
48.624[19, 25, 22, 18, 22, 21, 20, 18]
48.639[19, 23, 20, 20, 22, 21, 21, 20]
48.661[20, 23, 21, 19, 21, 22, 21, 18]
48.684[19, 23, 21, 19, 21, 20, 21, 20]
48.699[20, 21, 20, 18, 20, 20, 21, 19]
48.721[20, 19, 20, 20, 20, 18, 22, 19]
48.744[20, 19, 19, 20, 22, 18, 21, 19]
48.759[19, 19, 17, 18, 21, 17, 23, 20]
48.781[20, 19, 18, 20, 20, 17, 22, 21]
48.804[20, 19, 17, 20, 20, 18, 21, 22]
48.819[20, 20, 20, 20, 18, 20, 20, 22]
48.841[20, 20, 20, 21, 16, 19, 19, 21]
48.864[19, 19, 22, 22, 18, 19, 16, 20]
48.879[18, 20, 22, 20, 17, 20, 18, 20]
48.901[20, 20, 23, 20, 18, 20, 17, 20]
48.925[21, 19, 21, 20, 22, 19, 17, 18]
48.939[22, 20, 21, 19, 21, 21, 18, 20]
48.962[22, 21, 19, 19, 21, 21, 18, 19]
48.984[22, 19, 18, 18, 23, 20, 17, 19]
48.999[20, 19, 20, 20, 22, 20, 17, 21]
49.03[18, 19, 19, 18, 20, 20, 18, 21]
49.052[16, 19, 22, 21, 20, 21, 18, 20]
49.059[17, 19, 22, 21, 21, 21, 19, 20]
49.081[17, 20, 21, 22, 20, 21, 19, 19]
49.104[18, 19, 21, 20, 22, 20, 23, 17]
49.119[19, 19, 22, 22, 21, 19, 21, 19]
49.142[20, 18, 20, 21, 21, 15, 20, 20]
49.164[20, 20, 21, 22, 22, 15, 20, 20]
49.179[20, 20, 20, 23, 21, 15, 20, 20]
49.201[19, 20, 19, 23, 21, 15, 16, 21]
49.224[20, 20, 18, 21, 22, 17, 17, 20]
49.247[19, 21, 16, 20, 22, 19, 18, 18]
49.262[19, 20, 17, 19, 19, 17, 18, 19]
49.284[20, 20, 18, 20, 19, 19, 18, 18]
49.299[21, 22, 19, 20, 19, 18, 20, 16]
49.321[21, 22, 19, 21, 19, 16, 21, 16]
49.344[22, 21, 20, 21, 18, 15, 22, 16]
49.367[23, 21, 20, 22, 20, 17, 22, 18]
49.381[22, 20, 21, 20, 21, 18, 22, 18]
49.404[21, 20, 19, 21, 22, 20, 21, 20]
49.428[20, 21, 20, 21, 23, 20, 20, 20]
49.441[20, 21, 21, 21, 23, 22, 19, 21]
49.464[18, 20, 23, 20, 22, 23, 18, 20]
49.487[18, 22, 21, 21, 20, 22, 21, 20]
49.501[20, 23, 23, 20, 20, 20, 20, 19]
49.524[19, 22, 24, 20, 20, 22, 20, 18]
49.547[19, 22, 23, 20, 20, 21, 21, 19]
49.561[20, 21, 21, 19, 22, 19, 21, 18]
49.585[20, 22, 22, 19, 24, 20, 18, 18]
49.607[20, 20, 22, 18, 23, 21, 19, 17]
49.621[20, 21, 21, 17, 22, 20, 18, 18]
49.645[20, 21, 22, 17, 23, 19, 18, 17]
49.667[18, 23, 22, 17, 21, 20, 19, 18]
49.681[16, 20, 21, 17, 20, 19, 18, 17]
49.705[15, 21, 21, 18, 21, 19, 19, 17]
49.727[16, 20, 21, 19, 21, 19, 18, 17]
49.741[16, 19, 21, 19, 21, 19, 18, 17]
49.765[18, 17, 21, 19, 23, 18, 18, 17]
49.787[18, 20, 23, 19, 23, 16, 19, 19]
49.802[19, 20, 23, 19, 23, 18, 19, 19]
49.825[17, 21, 22, 19, 22, 17, 20, 20]
49.847[19, 22, 22, 19, 21, 18, 19, 19]
49.862[18, 23, 21, 18, 18, 17, 19, 20]
49.885[19, 21, 20, 18, 19, 21, 20, 20]
49.907[19, 19, 20, 18, 18, 19, 20, 20]
49.921[20, 20, 20, 18, 19, 19, 21, 20]
49.945[19, 20, 20, 18, 19, 19, 22, 20]
49.967[20, 21, 22, 19, 20, 19, 21, 20]
49.981[20, 20, 23, 18, 18, 15, 21, 19]
50.005[20, 24, 21, 20, 18, 15, 20, 19]
50.027[20, 22, 22, 20, 18, 16, 19, 18]
50.041[20, 20, 23, 19, 20, 15, 19, 17]
50.065[19, 20, 22, 21, 18, 16, 19, 16]
50.087[20, 21, 20, 23, 21, 17, 17, 17]
50.11[20, 17, 22, 20, 21, 18, 18, 17]
50.125[19, 19, 20, 21, 20, 17, 18, 16]
50.155[19, 21, 21, 20, 19, 17, 18, 17]
50.161[18, 23, 22, 17, 20, 16, 19, 16]
50.185[19, 23, 21, 15, 18, 16, 20, 17]
50.207[19, 23, 21, 17, 17, 17, 19, 16]
50.221[18, 22, 22, 19, 18, 18, 19, 17]
50.245[17, 21, 21, 19, 18, 19, 18, 18]
50.267[17, 21, 22, 19, 18, 19, 19, 17]
50.281[15, 20, 22, 21, 19, 22, 19, 18]
50.305[17, 21, 21, 18, 20, 20, 20, 21]
50.327[18, 23, 21, 17, 19, 21, 20, 19]
50.35[19, 25, 19, 17, 21, 21, 20, 18]
50.365[19, 22, 20, 16, 20, 22, 19, 21]
50.389[19, 22, 20, 19, 20, 20, 19, 19]
50.409[18, 22, 21, 20, 20, 22, 19, 20]
50.425[19, 20, 20, 20, 20, 21, 20, 21]
50.447[21, 18, 23, 21, 18, 20, 19, 22]
50.47[21, 18, 21, 23, 18, 20, 20, 20]
50.485[21, 19, 21, 20, 20, 20, 20, 24]
50.507[21, 19, 22, 21, 18, 18, 20, 23]
50.53[19, 18, 22, 21, 19, 18, 18, 22]
50.545[19, 17, 19, 20, 20, 19, 18, 21]
50.567[19, 18, 19, 20, 19, 19, 17, 22]
50.59[18, 17, 21, 19, 18, 21, 18, 18]
50.605[20, 16, 19, 20, 20, 21, 18, 17]
50.627[19, 17, 18, 22, 19, 21, 19, 17]
50.65[18, 17, 18, 21, 18, 20, 19, 19]
50.665[18, 19, 21, 22, 17, 20, 19, 20]
50.687