[17, 19, 19, 20, 18, 22, 25, 23]
0.924[20, 22, 23, 19, 30, 26, 23, 29]
0.948[25, 24, 28, 21, 32, 25, 20, 29]
0.97[27, 25, 31, 20, 33, 26, 24, 29]
0.985[26, 24, 32, 21, 33, 28, 26, 29]
1.007[28, 23, 33, 20, 33, 27, 25, 30]
1.03[27, 23, 30, 20, 25, 23, 27, 25]
1.046[23, 23, 27, 19, 22, 24, 29, 24]
1.067[22, 24, 23, 20, 21, 22, 27, 24]
1.09[22, 25, 22, 20, 22, 21, 26, 22]
1.105[20, 25, 18, 20, 21, 21, 23, 18]
1.127[18, 25, 17, 20, 18, 20, 23, 18]
1.15[19, 22, 15, 20, 22, 19, 21, 18]
1.165[19, 19, 16, 20, 22, 18, 19, 19]
1.187[20, 18, 17, 21, 21, 18, 19, 20]
1.21[20, 19, 17, 22, 19, 18, 20, 23]
1.225[21, 16, 19, 22, 21, 20, 19, 23]
1.247[21, 17, 20, 21, 19, 21, 19, 24]
1.27[19, 16, 19, 21, 20, 22, 20, 25]
1.285[19, 17, 20, 21, 21, 22, 22, 24]
1.307[19, 17, 22, 23, 24, 22, 22, 21]
1.331[20, 17, 21, 23, 23, 20, 22, 22]
1.345[17, 16, 23, 24, 22, 20, 22, 20]
1.368[19, 17, 23, 23, 21, 20, 21, 18]
1.391[17, 17, 24, 22, 21, 19, 24, 17]
1.405[17, 16, 22, 16, 18, 18, 22, 18]
1.428[15, 19, 23, 17, 19, 18, 21, 18]
1.451[16, 18, 21, 17, 18, 17, 21, 19]
1.466[16, 18, 20, 19, 18, 18, 22, 19]
1.488[17, 17, 17, 19, 18, 18, 18, 20]
1.511[17, 18, 17, 20, 20, 20, 18, 22]
1.532[17, 16, 17, 22, 19, 19, 17, 21]
1.548[19, 17, 18, 23, 18, 20, 18, 22]
1.571[19, 19, 19, 22, 19, 17, 18, 22]
1.586[18, 20, 20, 25, 20, 18, 19, 20]
1.608[19, 19, 18, 27, 19, 20, 20, 18]
1.631[20, 19, 19, 24, 21, 21, 21, 19]
1.646[18, 19, 19, 23, 21, 21, 20, 17]
1.668[17, 18, 20, 25, 20, 22, 19, 18]
1.69[19, 20, 20, 22, 20, 22, 19, 19]
1.705[19, 21, 22, 20, 18, 19, 20, 21]
1.728[19, 22, 21, 20, 17, 18, 21, 20]
1.75[19, 24, 20, 22, 19, 17, 22, 19]
1.771[19, 23, 20, 20, 18, 18, 23, 20]
1.787[17, 22, 20, 19, 18, 20, 25, 20]
1.81[18, 20, 20, 18, 19, 19, 26, 19]
1.831[16, 20, 21, 18, 18, 19, 24, 19]
1.855[16, 19, 21, 18, 17, 20, 25, 19]
1.87[16, 19, 21, 17, 18, 20, 24, 18]
1.891[17, 20, 22, 18, 19, 19, 22, 18]
1.914[17, 20, 25, 20, 19, 19, 22, 17]
1.93[18, 20, 23, 20, 21, 19, 22, 18]
1.951[18, 23, 23, 22, 20, 21, 21, 18]
1.974[17, 24, 23, 21, 22, 18, 21, 19]
1.99[16, 23, 21, 21, 20, 18, 19, 20]
2.011[18, 24, 16, 19, 22, 20, 17, 20]
2.033[17, 24, 17, 19, 21, 20, 17, 20]
2.05[18, 21, 17, 20, 22, 21, 16, 19]
2.072[19, 22, 17, 21, 20, 21, 17, 20]
2.094[19, 22, 20, 23, 21, 21, 17, 19]
2.11[17, 22, 21, 21, 19, 19, 18, 19]
2.131[20, 22, 22, 23, 19, 20, 19, 18]
2.154[20, 22, 22, 20, 19, 17, 19, 20]
2.17[21, 22, 22, 18, 20, 17, 19, 19]
2.191[22, 22, 20, 18, 20, 19, 19, 20]
2.221[23, 21, 20, 19, 22, 19, 21, 21]
2.23[22, 24, 19, 20, 21, 18, 22, 20]
2.251[21, 23, 18, 20, 22, 19, 22, 21]
2.274[19, 22, 20, 21, 21, 19, 22, 21]
2.296[17, 22, 21, 20, 21, 16, 21, 21]
2.311[15, 23, 19, 21, 22, 18, 19, 20]
2.334[15, 19, 19, 18, 22, 18, 17, 20]
2.356[16, 19, 20, 18, 21, 18, 19, 18]
2.371[18, 18, 19, 19, 21, 19, 19, 16]
2.393[17, 17, 18, 18, 21, 19, 22, 16]
2.416[18, 15, 19, 18, 21, 19, 21, 17]
2.431[17, 18, 20, 20, 22, 19, 22, 17]
2.453[18, 18, 21, 20, 23, 18, 21, 19]
2.476[18, 19, 21, 21, 23, 19, 20, 20]
2.491[20, 20, 22, 21, 22, 18, 17, 19]
2.514[20, 21, 20, 23, 20, 18, 19, 19]
2.537[21, 19, 20, 23, 19, 19, 18, 18]
2.551[21, 20, 19, 24, 19, 20, 18, 18]
2.573[20, 19, 19, 22, 18, 21, 19, 17]
2.596[19, 19, 20, 23, 17, 22, 20, 18]
2.611[18, 18, 21, 20, 19, 21, 19, 19]
2.633[17, 20, 21, 22, 19, 21, 18, 19]
2.656[19, 18, 22, 20, 19, 21, 17, 21]
2.671[18, 19, 21, 19, 20, 18, 18, 22]
2.693[19, 18, 20, 20, 21, 17, 17, 23]
2.716[21, 18, 20, 20, 18, 19, 17, 23]
2.731[21, 16, 20, 19, 20, 19, 18, 25]
2.753[19, 19, 21, 20, 20, 21, 18, 22]
2.776[19, 20, 22, 21, 21, 23, 18, 21]
2.799[20, 21, 21, 21, 21, 23, 19, 21]
2.814[19, 22, 20, 21, 21, 22, 19, 20]
2.836[19, 23, 22, 21, 20, 24, 18, 20]
2.851[20, 21, 21, 20, 20, 22, 18, 20]
2.873[19, 21, 19, 20, 20, 21, 16, 21]
2.896[20, 20, 20, 19, 19, 22, 16, 20]
2.911[20, 20, 20, 19, 20, 21, 16, 22]
2.933[20, 21, 18, 20, 20, 20, 16, 21]
2.956[20, 22, 19, 19, 21, 23, 18, 21]
2.971[20, 23, 19, 19, 20, 22, 19, 22]
2.994[18, 23, 20, 18, 21, 21, 20, 22]
3.016[17, 22, 21, 19, 21, 21, 19, 22]
3.033[16, 24, 23, 19, 21, 21, 20, 22]
3.054[16, 23, 21, 20, 19, 18, 20, 21]
3.076[17, 21, 23, 20, 18, 19, 19, 20]
3.091[18, 20, 22, 19, 18, 19, 19, 20]
3.113[18, 21, 23, 20, 18, 18, 19, 19]
3.136[19, 19, 22, 19, 21, 18, 18, 16]
3.151[20, 19, 23, 18, 23, 19, 18, 19]
3.174[19, 19, 21, 20, 24, 20, 19, 18]
3.196[20, 21, 21, 20, 23, 21, 19, 19]
3.218[21, 20, 20, 19, 23, 22, 21, 19]
3.234[21, 18, 19, 20, 21, 22, 24, 20]
3.256[21, 19, 19, 20, 21, 22, 24, 20]
3.279[22, 19, 19, 19, 20, 20, 23, 18]
3.294[22, 19, 20, 21, 22, 19, 22, 20]
3.316[22, 20, 20, 22, 23, 20, 21, 20]
3.339[21, 22, 22, 22, 23, 20, 17, 20]
3.354[20, 21, 21, 22, 23, 19, 19, 20]
3.376[21, 22, 23, 23, 23, 18, 19, 22]
3.399[20, 21, 23, 22, 21, 18, 19, 20]
3.413[19, 21, 23, 20, 21, 20, 20, 19]
3.436[19, 19, 22, 20, 19, 18, 21, 19]
3.459[18, 19, 24, 22, 20, 19, 18, 19]
3.474[17, 19, 23, 21, 22, 21, 17, 16]
3.496[17, 19, 24, 23, 22, 21, 16, 16]
3.519[17, 20, 23, 22, 24, 21, 18, 17]
3.533[18, 23, 22, 22, 24, 21, 17, 18]
3.556[18, 23, 20, 22, 23, 21, 18, 17]
3.579[17, 23, 18, 22, 21, 20, 19, 19]
3.593[21, 24, 18, 20, 23, 22, 19, 20]
3.616[21, 24, 17, 21, 20, 19, 17, 20]
3.639[21, 22, 18, 20, 21, 23, 18, 20]
3.653[23, 22, 18, 21, 21, 27, 17, 20]
3.676[24, 24, 21, 20, 22, 27, 19, 22]
3.699[22, 23, 20, 19, 20, 27, 20, 21]
3.713[20, 21, 21, 18, 19, 27, 20, 22]
3.736[22, 22, 20, 18, 20, 24, 20, 22]
3.758[21, 24, 22, 18, 19, 19, 21, 21]
3.774[20, 24, 20, 18, 20, 18, 20, 18]
3.796[21, 25, 22, 19, 20, 16, 18, 20]
3.827[20, 25, 21, 20, 21, 15, 17, 18]
3.834[20, 25, 20, 20, 21, 16, 17, 18]
3.856[20, 25, 21, 21, 21, 18, 16, 21]
3.878[22, 24, 22, 20, 21, 19, 17, 21]
3.894[22, 22, 21, 20, 20, 19, 21, 19]
3.916[24, 22, 23, 21, 19, 21, 22, 20]
3.939[22, 22, 22, 22, 19, 20, 22, 20]
3.969[22, 22, 21, 20, 22, 23, 23, 18]
3.976[21, 22, 20, 21, 23, 22, 23, 20]
3.999[20, 23, 20, 20, 24, 22, 22, 22]
4.014[17, 22, 21, 20, 24, 21, 21, 21]
4.036[19, 21, 22, 18, 24, 22, 21, 21]
4.058[18, 19, 20, 19, 20, 18, 23, 23]
4.073[18, 20, 20, 20, 20, 18, 21, 20]
4.096[19, 19, 22, 20, 19, 18, 20, 19]
4.119[20, 20, 19, 21, 19, 16, 20, 20]
4.133[20, 20, 19, 22, 20, 16, 18, 20]
4.156[20, 20, 22, 22, 21, 15, 18, 17]
4.179[21, 17, 21, 22, 19, 16, 19, 16]
4.202[21, 19, 20, 22, 19, 17, 18, 17]
4.216[20, 18, 22, 21, 18, 18, 19, 17]
4.238[20, 19, 21, 20, 18, 19, 20, 17]
4.262[21, 20, 20, 20, 20, 19, 19, 18]
4.276[19, 20, 20, 19, 21, 18, 19, 18]
4.299[18, 20, 18, 18, 21, 18, 20, 18]
4.322[17, 20, 18, 17, 21, 17, 18, 19]
4.337[16, 19, 19, 18, 20, 16, 17, 18]
4.359[19, 20, 20, 17, 19, 17, 15, 18]
4.382[19, 20, 20, 16, 20, 19, 16, 18]
4.396[19, 20, 23, 15, 20, 18, 17, 19]
4.419[21, 21, 21, 15, 20, 19, 18, 17]
4.442[21, 21, 21, 16, 20, 19, 18, 17]
4.456[18, 20, 20, 18, 18, 19, 17, 17]
4.479[19, 21, 20, 18, 17, 18, 17, 19]
4.502[19, 23, 18, 20, 16, 19, 14, 18]
4.516[18, 23, 21, 21, 17, 18, 15, 18]
4.539[21, 22, 22, 20, 20, 19, 16, 19]
4.562[20, 25, 23, 19, 20, 21, 16, 19]
4.577[20, 23, 22, 20, 22, 22, 16, 18]
4.599[21, 22, 21, 20, 23, 21, 18, 18]
4.622[21, 22, 19, 19, 23, 22, 21, 21]
4.636[18, 24, 19, 22, 21, 22, 19, 20]
4.66[20, 22, 19, 23, 23, 20, 21, 21]
4.682[20, 20, 19, 25, 22, 18, 21, 21]
4.696[20, 19, 21, 24, 22, 19, 20, 22]
4.719[21, 19, 24, 25, 24, 20, 18, 21]
4.749[21, 18, 23, 22, 23, 19, 19, 20]
4.756[20, 16, 24, 21, 23, 19, 16, 20]
4.779[18, 19, 24, 17, 23, 19, 15, 20]
4.801[18, 19, 25, 19, 23, 19, 16, 19]
4.816[18, 18, 23, 19, 18, 17, 16, 19]
4.847[19, 20, 24, 20, 19, 23, 16, 19]
4.862[18, 22, 21, 20, 18, 23, 20, 18]
4.876[19, 20, 21, 20, 18, 23, 21, 18]
4.899[20, 22, 20, 29, 18, 23, 21, 17]
4.922[20, 22, 21, 31, 19, 24, 21, 16]
4.936[19, 20, 20, 32, 18, 19, 22, 16]
4.959[22, 19, 24, 33, 19, 18, 19, 17]
4.982[21, 20, 26, 34, 18, 18, 22, 16]
4.997[20, 20, 27, 27, 20, 18, 21, 15]
5.019[20, 20, 25, 24, 21, 17, 20, 17]
5.042[21, 20, 25, 22, 24, 17, 19, 18]
5.056[18, 21, 24, 21, 24, 17, 21, 19]
5.079[20, 22, 21, 21, 24, 17, 18, 20]
5.103[20, 20, 20, 18, 22, 18, 19, 21]
5.124[20, 21, 21, 19, 22, 16, 20, 21]
5.139[20, 21, 21, 19, 20, 17, 22, 20]
5.162[20, 22, 21, 19, 20, 16, 21, 20]
5.184[19, 19, 20, 20, 19, 18, 20, 20]
5.199[18, 19, 20, 20, 19, 16, 23, 20]
5.222[19, 20, 19, 18, 19, 17, 22, 21]
5.244[20, 21, 20, 21, 18, 18, 23, 22]
5.259[20, 20, 19, 21, 18, 18, 21, 22]
5.282[19, 20, 19, 20, 21, 16, 22, 22]
5.304[20, 20, 21, 23, 23, 17, 18, 23]
5.319[19, 18, 20, 23, 22, 17, 19, 21]
5.342[19, 20, 20, 21, 24, 17, 17, 21]
5.364[19, 20, 21, 21, 23, 17, 19, 19]
5.38[19, 19, 21, 19, 24, 17, 19, 20]
5.402[18, 21, 20, 19, 22, 17, 20, 20]
5.424[17, 21, 21, 18, 24, 18, 21, 19]
5.447[15, 21, 20, 20, 22, 18, 19, 19]
5.462[15, 21, 19, 20, 23, 19, 18, 20]
5.484[17, 21, 18, 21, 23, 21, 20, 19]
5.499[18, 21, 19, 21, 23, 20, 21, 18]
5.522[18, 21, 18, 22, 22, 20, 21, 19]
5.544[18, 19, 18, 20, 21, 20, 20, 19]
5.559[17, 19, 20, 19, 21, 20, 19, 17]
5.582[19, 20, 21, 19, 19, 17, 19, 15]
5.604[17, 18, 18, 19, 19, 19, 19, 17]
5.619[18, 18, 20, 19, 21, 18, 18, 18]
5.642[19, 21, 22, 19, 22, 18, 20, 18]
5.664[19, 20, 21, 19, 20, 19, 20, 19]
5.679[19, 21, 21, 17, 21, 19, 19, 20]
5.702[21, 21, 24, 18, 21, 18, 19, 19]
5.724[20, 20, 23, 19, 17, 19, 17, 19]
5.739[20, 19, 22, 20, 17, 20, 19, 19]
5.762[22, 19, 22, 21, 18, 18, 20, 19]
5.784[20, 17, 23, 21, 18, 19, 19, 19]
5.799[18, 18, 21, 20, 20, 20, 19, 18]
5.821[19, 19, 20, 19, 20, 18, 20, 19]
5.844[19, 19, 20, 18, 21, 18, 18, 17]
5.859[17, 18, 21, 18, 21, 18, 18, 18]
5.882[17, 18, 20, 20, 20, 19, 19, 19]
5.904[18, 17, 20, 20, 20, 17, 18, 19]
5.919[18, 17, 21, 20, 20, 17, 19, 18]
5.942[17, 18, 20, 20, 20, 16, 20, 20]
5.964[18, 18, 19, 20, 20, 17, 20, 20]
5.979[17, 19, 19, 19, 21, 16, 19, 20]
6.001[20, 23, 21, 20, 21, 19, 19, 20]
6.024[22, 24, 21, 21, 22, 19, 18, 18]
6.038[24, 23, 21, 21, 20, 20, 16, 18]
6.062[23, 22, 21, 20, 21, 20, 15, 19]
6.084[23, 23, 21, 19, 20, 20, 16, 20]
6.107[22, 21, 20, 18, 19, 18, 17, 21]
6.122[19, 22, 21, 17, 18, 18, 18, 21]
6.144[17, 21, 22, 18, 20, 17, 18, 20]
6.167[16, 23, 22, 18, 19, 17, 19, 20]
6.182[17, 21, 22, 19, 19, 18, 19, 21]
6.204[15, 20, 22, 20, 20, 18, 21, 18]
6.227[18, 19, 21, 19, 21, 19, 21, 18]
6.242[18, 20, 20, 19, 21, 20, 21, 19]
6.264[19, 19, 21, 19, 20, 19, 20, 18]
6.287[19, 20, 19, 18, 19, 18, 21, 17]
6.301[20, 20, 20, 18, 19, 18, 20, 17]
6.324[17, 21, 21, 18, 17, 18, 17, 18]
6.346[18, 21, 20, 19, 16, 20, 19, 17]
6.37[19, 20, 20, 18, 16, 21, 20, 18]
6.383[19, 21, 22, 20, 18, 21, 20, 17]
6.406[18, 21, 20, 19, 17, 21, 21, 17]
6.422[20, 19, 19, 22, 19, 23, 22, 19]
6.443[28, 19, 21, 22, 19, 20, 23, 20]
6.466[30, 19, 19, 22, 20, 21, 23, 18]
6.482[30, 17, 18, 20, 20, 22, 22, 18]
6.504[31, 17, 19, 21, 21, 22, 22, 18]
6.527[31, 21, 19, 19, 19, 20, 22, 15]
6.542[24, 23, 18, 17, 22, 21, 21, 15]
6.563[22, 23, 19, 20, 21, 21, 21, 17]
6.586[23, 24, 18, 19, 21, 21, 20, 17]
6.602[23, 25, 18, 21, 22, 19, 19, 18]
6.623[22, 23, 20, 21, 22, 19, 18, 19]
6.646[23, 24, 20, 22, 19, 21, 20, 18]
6.662[22, 23, 20, 22, 19, 20, 20, 17]
6.691[20, 22, 22, 21, 20, 20, 19, 18]
6.706[20, 20, 24, 19, 20, 19, 20, 17]
6.722[20, 21, 22, 21, 21, 19, 21, 19]
6.744[19, 20, 22, 21, 21, 18, 19, 20]
6.766[20, 20, 21, 19, 22, 18, 19, 20]
6.782[18, 21, 22, 21, 20, 18, 18, 19]
6.803[17, 20, 20, 21, 19, 18, 17, 21]
6.826[17, 20, 22, 18, 21, 19, 18, 20]
6.842[18, 19, 22, 20, 21, 18, 19, 22]
6.871[16, 20, 23, 19, 22, 19, 21, 22]
6.886[18, 19, 23, 18, 22, 19, 20, 24]
6.903[18, 22, 22, 20, 24, 19, 20, 22]
6.924[18, 22, 20, 22, 22, 18, 21, 24]
6.946[20, 23, 22, 21, 22, 20, 20, 21]
6.962[20, 22, 20, 22, 21, 18, 18, 23]
6.983[19, 24, 18, 22, 21, 18, 20, 20]
7.006[18, 23, 19, 21, 21, 18, 22, 20]
7.028[17, 22, 21, 21, 23, 19, 21, 16]
7.043[15, 21, 21, 21, 23, 19, 24, 18]
7.066[16, 21, 21, 20, 22, 18, 23, 18]
7.088[17, 20, 23, 22, 22, 19, 22, 20]
7.103[19, 21, 24, 21, 20, 17, 22, 20]
7.126[19, 22, 23, 20, 20, 18, 22, 21]
7.149[19, 21, 21, 23, 19, 16, 19, 19]
7.163[18, 21, 23, 21, 18, 17, 20, 20]
7.186[19, 24, 22, 19, 20, 16, 20, 21]
7.209[18, 33, 21, 21, 20, 17, 21, 21]
7.231[19, 34, 21, 20, 17, 15, 21, 21]
7.247[21, 34, 23, 16, 18, 17, 21, 22]
7.269[21, 34, 21, 19, 18, 17, 22, 21]
7.291[21, 31, 20, 18, 16, 16, 23, 20]
7.306[20, 21, 21, 17, 17, 16, 22, 21]
7.328[21, 17, 21, 20, 18, 18, 23, 21]
7.343[20, 18, 19, 20, 17, 19, 22, 20]
7.366[20, 18, 19, 18, 18, 21, 20, 19]
7.388[21, 19, 19, 19, 18, 21, 19, 20]
7.403[19, 19, 20, 19, 19, 21, 16, 21]
7.426[19, 21, 19, 17, 20, 21, 15, 20]
7.448[18, 21, 20, 16, 19, 19, 18, 21]
7.463[19, 21, 20, 18, 21, 19, 19, 23]
7.494[18, 21, 20, 18, 21, 20, 20, 21]
7.508[20, 21, 19, 17, 20, 22, 20, 20]
7.525[20, 21, 20, 17, 20, 22, 22, 19]
7.546[21, 21, 20, 18, 23, 22, 20, 18]
7.579[20, 21, 22, 17, 21, 22, 20, 16]
7.584[21, 21, 21, 16, 20, 20, 19, 18]
7.614[22, 20, 22, 16, 22, 19, 19, 16]
7.628[21, 20, 22, 17, 21, 17, 17, 17]
7.643[22, 19, 20, 18, 20, 16, 17, 15]
7.666[21, 21, 18, 17, 22, 16, 18, 17]
7.688[20, 21, 19, 19, 23, 16, 20, 16]
7.711[19, 21, 20, 20, 22, 16, 21, 17]
7.727[18, 20, 20, 20, 23, 17, 19, 17]
7.757[16, 20, 21, 20, 22, 17, 19, 19]
7.764[18, 18, 21, 21, 21, 17, 19, 17]
7.786[18, 20, 21, 21, 21, 17, 17, 17]
7.808[17, 21, 22, 21, 20, 17, 18, 18]
7.823[16, 22, 22, 22, 21, 18, 18, 20]
7.847[19, 24, 21, 20, 22, 19, 19, 19]
7.868[17, 24, 21, 20, 21, 18, 21, 19]
7.899[18, 23, 22, 17, 21, 19, 19, 21]
7.906[20, 23, 20, 19, 21, 19, 21, 21]
7.944[21, 23, 20, 19, 21, 21, 20, 19]
7.951[19, 21, 20, 19, 18, 21, 19, 19]
7.966[19, 20, 19, 21, 19, 22, 19, 21]
7.99[18, 19, 19, 22, 19, 22, 20, 19]
8.011[18, 17, 19, 20, 18, 23, 19, 19]
8.026[18, 18, 19, 21, 19, 20, 20, 18]
8.049[19, 17, 20, 20, 20, 21, 20, 20]
8.071[20, 17, 20, 19, 20, 21, 19, 19]
8.086[20, 19, 21, 18, 19, 21, 20, 20]
8.108[20, 20, 20, 18, 20, 21, 18, 20]
8.131[21, 21, 19, 17, 17, 21, 18, 22]
8.146[19, 22, 18, 19, 17, 21, 19, 21]
8.176[18, 23, 19, 20, 19, 20, 19, 21]
8.199[18, 23, 19, 20, 19, 19, 18, 21]
8.206[17, 23, 22, 20, 20, 19, 20, 21]
8.228[16, 20, 23, 19, 22, 19, 22, 20]
8.251[16, 21, 22, 19, 21, 18, 20, 19]
8.266[16, 20, 22, 21, 20, 17, 19, 20]
8.288[18, 32, 20, 20, 19, 18, 20, 19]
8.311[19, 40, 17, 20, 19, 17, 20, 20]
8.326[19, 43, 16, 21, 19, 17, 20, 20]
8.348[20, 43, 21, 22, 20, 17, 24, 20]
8.371[21, 44, 20, 20, 20, 19, 25, 20]
8.386[20, 37, 23, 20, 21, 21, 25, 19]
8.408[19, 27, 24, 20, 20, 19, 25, 19]
8.431[19, 23, 24, 20, 19, 19, 24, 18]
8.446[19, 22, 21, 17, 19, 18, 21, 19]
8.468[20, 21, 21, 18, 20, 18, 19, 18]
8.491[21, 19, 21, 19, 19, 17, 19, 19]
8.506[20, 18, 21, 20, 19, 19, 18, 18]
8.528[22, 20, 20, 21, 20, 18, 18, 19]
8.551[23, 21, 20, 20, 20, 19, 18, 19]
8.566[20, 20, 21, 21, 20, 19, 20, 21]
8.597[19, 21, 20, 20, 21, 19, 21, 21]
8.611[20, 20, 21, 19, 21, 20, 19, 20]
8.626[17, 18, 21, 20, 21, 20, 20, 19]
8.648[16, 18, 21, 20, 21, 21, 19, 20]
8.679[16, 19, 20, 18, 19, 20, 18, 18]
8.686[19, 19, 20, 20, 19, 21, 16, 17]
8.708[18, 19, 19, 20, 18, 20, 18, 16]
8.731[21, 19, 19, 18, 17, 21, 18, 17]
8.746[21, 19, 20, 19, 18, 20, 17, 17]
8.776[23, 24, 21, 20, 18, 19, 18, 19]
8.791[20, 23, 20, 19, 18, 19, 21, 18]
8.806[21, 24, 20, 18, 20, 19, 21, 19]
8.828[19, 25, 21, 19, 21, 18, 22, 20]
8.851[18, 26, 22, 19, 20, 19, 23, 20]
8.867[17, 21, 22, 19, 21, 19, 22, 20]
8.888[17, 21, 21, 20, 21, 19, 20, 22]
8.919[17, 21, 22, 20, 20, 17, 21, 23]
8.934[15, 20, 21, 20, 20, 21, 18, 21]
8.948[17, 19, 19, 20, 20, 20, 17, 21]
8.972[17, 21, 19, 20, 20, 18, 19, 20]
8.994[18, 20, 19, 20, 19, 20, 19, 19]
9.008[18, 21, 17, 21, 19, 22, 17, 19]
9.031[18, 21, 17, 22, 18, 18, 18, 19]
9.054[17, 20, 17, 22, 18, 18, 21, 18]
9.068[18, 19, 17, 22, 19, 20, 19, 18]
9.091[19, 20, 20, 21, 20, 20, 20, 19]
9.114[19, 18, 19, 23, 21, 20, 20, 17]
9.128[18, 21, 20, 19, 21, 21, 19, 18]
9.159[18, 22, 21, 21, 21, 22, 16, 19]
9.174[16, 21, 20, 18, 19, 22, 17, 20]
9.189[15, 22, 19, 20, 19, 21, 17, 19]
9.211[15, 23, 22, 20, 24, 27, 20, 21]
9.234[20, 22, 28, 35, 47, 85, 35, 24]
9.249[21, 23, 29, 37, 52, 101, 39, 26]
9.271[21, 22, 29, 40, 55, 107, 42, 28]
9.294[22, 20, 29, 40, 57, 109, 42, 29]
9.308[22, 24, 28, 40, 56, 109, 42, 28]
9.331[21, 28, 26, 31, 46, 84, 35, 26]
9.355[22, 31, 27, 35, 51, 108, 37, 25]
9.368[24, 35, 33, 36, 55, 110, 42, 26]
9.391[25, 39, 33, 37, 63, 118, 44, 26]
9.414[27, 38, 32, 39, 63, 120, 45, 27]
9.428[24, 37, 31, 46, 64, 114, 43, 26]
9.451[29, 35, 30, 45, 69, 80, 49, 125]
9.474[32, 33, 27, 46, 70, 84, 47, 163]
9.488[32, 36, 27, 48, 65, 76, 52, 190]
9.519[33, 35, 29, 49, 66, 78, 54, 193]
9.534[35, 34, 28, 45, 67, 94, 55, 195]
9.548[30, 33, 28, 42, 58, 108, 50, 155]
9.571[29, 33, 27, 42, 63, 98, 46, 115]
9.594[36, 28, 27, 43, 82, 100, 69, 190]
9.608[41, 28, 25, 46, 98, 105, 81, 269]
9.631[44, 30, 29, 45, 101, 100, 85, 280]
9.654[46, 32, 31, 53, 110, 91, 84, 285]
9.668[50, 29, 30, 53, 108, 96, 97, 337]
9.691[47, 33, 36, 58, 100, 128, 84, 303]
9.714[42, 34, 37, 69, 112, 128, 78, 247]
9.728[41, 37, 37, 75, 118, 124, 77, 239]
9.751[41, 36, 38, 73, 118, 133, 79, 234]
9.774[40, 36, 40, 72, 120, 131, 74, 234]
9.788[40, 34, 35, 70, 123, 99, 71, 238]
9.811[40, 33, 34, 60, 105, 105, 68, 233]
9.834[39, 28, 34, 51, 94, 105, 71, 236]
9.857[40, 28, 33, 47, 94, 101, 69, 252]
9.871[35, 29, 32, 56, 116, 120, 66, 227]
9.894[36, 29, 32, 54, 109, 120, 81, 220]
9.916[33, 34, 36, 57, 131, 121, 94, 214]
9.931[33, 35, 35, 60, 141, 121, 90, 253]
9.954[37, 35, 36, 69, 142, 115, 95, 282]
9.977[41, 35, 41, 79, 149, 100, 105, 330]
9.991[40, 50, 40, 81, 169, 103, 106, 349]
10.014[40, 50, 37, 84, 186, 106, 101, 362]
10.037[39, 55, 39, 90, 186, 108, 109, 337]
10.051[37, 57, 39, 86, 185, 108, 107, 345]
10.074[35, 56, 35, 72, 171, 108, 101, 305]
10.096[38, 46, 39, 81, 169, 121, 91, 275]
10.111[46, 47, 39, 78, 148, 107, 90, 326]
10.134[48, 39, 36, 73, 167, 105, 83, 354]
10.156[47, 37, 36, 75, 181, 104, 79, 315]
10.171[44, 42, 38, 72, 176, 103, 72, 283]
10.194[40, 47, 37, 64, 180, 84, 84, 277]
10.216[34, 57, 42, 68, 193, 99, 81, 244]
10.231[34, 80, 46, 79, 212, 112, 80, 200]
10.254[31, 83, 45, 82, 203, 120, 82, 189]
10.277[32, 104, 46, 93, 209, 127, 77, 183]
10.299[40, 121, 47, 93, 205, 139, 63, 194]
10.315[59, 136, 43, 110, 208, 133, 58, 164]
10.336[71, 175, 45, 111, 196, 161, 68, 203]
10.351[72, 193, 49, 115, 202, 167, 67, 210]
10.374[75, 193, 49, 123, 224, 163, 69, 215]
10.396[73, 189, 50, 125, 226, 155, 66, 204]
10.411[62, 185, 52, 122, 229, 157, 73, 219]
10.434[57, 140, 50, 111, 215, 131, 74, 264]
10.457[57, 113, 52, 118, 221, 177, 86, 263]
10.471[58, 107, 52, 119, 207, 186, 89, 268]
10.494[57, 102, 55, 133, 219, 189, 98, 292]
10.517[56, 83, 57, 149, 222, 237, 101, 263]
10.531[52, 84, 65, 158, 228, 256, 111, 237]
10.554[59, 86, 79, 192, 264, 285, 111, 236]
10.576[61, 81, 91, 220, 318, 341, 121, 228]
10.591[62, 83, 98, 224, 341, 360, 121, 195]
10.614[69, 100, 128, 263, 364, 444, 148, 193]
10.636[68, 115, 131, 269, 371, 438, 144, 173]
10.651[62, 116, 137, 281, 407, 443, 150, 183]
10.674[58, 116, 135, 266, 372, 430, 149, 183]
10.696[64, 112, 139, 324, 410, 482, 164, 182]
10.711[56, 102, 128, 304, 412, 435, 145, 177]
10.734[65, 87, 135, 321, 415, 482, 160, 222]
10.756[67, 83, 125, 308, 387, 455, 159, 240]
10.771[67, 77, 131, 341, 440, 453, 174, 259]
10.794[69, 77, 128, 327, 419, 458, 178, 304]
10.824[74, 85, 116, 317, 398, 410, 183, 374]
10.839[64, 82, 104, 304, 415, 375, 172, 326]
10.854[66, 81, 106, 302, 455, 376, 170, 357]
10.876[84, 77, 101, 289, 461, 355, 217, 443]
10.899[91, 77, 114, 257, 437, 290, 229, 453]
10.914[94, 65, 117, 251, 444, 314, 232, 415]
10.936[96, 69, 119, 255, 434, 289, 232, 426]
10.959[96, 74, 129, 269, 434, 300, 232, 399]
10.974[79, 72, 123, 250, 388, 297, 171, 291]
10.996[68, 77, 121, 248, 411, 316, 139, 230]
11.019[67, 70, 117, 243, 391, 297, 143, 278]
11.042[66, 72, 112, 229, 377, 292, 140, 263]
11.057[61, 70, 98, 203, 325, 289, 138, 244]
11.087[62, 68, 98, 191, 314, 285, 139, 251]
11.102[58, 57, 81, 181, 286, 232, 139, 264]
11.116[57, 61, 82, 192, 319, 256, 128, 227]
11.139[55, 56, 86, 209, 319, 258, 124, 218]
11.154[51, 49, 84, 207, 290, 229, 114, 215]
11.176[49, 51, 82, 207, 300, 235, 109, 195]
11.199[52, 51, 79, 198, 284, 225, 104, 195]
11.222[42, 42, 72, 187, 254, 188, 88, 185]
11.236[40, 41, 70, 175, 253, 184, 83, 188]
11.259[41, 43, 69, 171, 254, 185, 88, 187]
11.274[43, 44, 68, 153, 212, 170, 87, 190]
11.296[41, 43, 67, 151, 223, 161, 92, 209]
11.319[44, 44, 66, 143, 222, 153, 93, 209]
11.333[42, 43, 59, 124, 212, 142, 90, 202]
11.357[42, 44, 54, 97, 190, 138, 87, 203]
11.379[41, 41, 59, 128, 258, 181, 87, 202]
11.401[39, 40, 65, 131, 268, 189, 77, 154]
11.418[36, 45, 70, 134, 279, 193, 67, 90]
11.438[39, 45, 76, 152, 299, 231, 80, 142]
11.461[39, 42, 82, 170, 311, 256, 83, 152]
11.477[39, 41, 82, 156, 266, 236, 100, 185]
11.506[39, 42, 79, 179, 307, 242, 99, 190]
11.515[39, 39, 95, 214, 352, 299, 115, 196]
11.537[43, 42, 91, 202, 337, 275, 114, 195]
11.558[46, 45, 90, 201, 348, 265, 124, 230]
11.575[47, 46, 88, 218, 366, 257, 117, 213]
11.597[45, 41, 82, 190, 316, 242, 113, 213]
11.618[46, 43, 71, 163, 258, 170, 102, 248]
11.635[42, 45, 76, 176, 267, 184, 100, 223]
11.657[39, 42, 73, 165, 244, 164, 92, 220]
11.678[38, 43, 72, 147, 207, 160, 83, 209]
11.695[36, 45, 75, 148, 206, 167, 91, 208]
11.717[34, 46, 69, 142, 200, 183, 91, 161]
11.738[33, 38, 65, 135, 191, 192, 94, 169]
11.761[35, 40, 63, 134, 200, 197, 90, 160]
11.777[35, 41, 64, 126, 212, 225, 95, 163]
11.806[37, 41, 64, 125, 202, 225, 89, 161]
11.828[34, 36, 53, 126, 196, 204, 77, 153]
11.837[37, 37, 49, 109, 187, 206, 87, 189]
11.858[42, 44, 54, 114, 173, 256, 90, 182]
11.881[42, 42, 54, 110, 153, 234, 87, 205]
11.896[43, 43, 55, 114, 155, 244, 88, 205]
11.918[46, 44, 59, 107, 163, 258, 107, 253]
11.949[51, 45, 59, 117, 161, 248, 113, 281]
11.956[47, 40, 55, 112, 170, 190, 111, 277]
11.978[54, 44, 55, 122, 194, 193, 119, 281]
12.0[55, 40, 56, 124, 197, 194, 129, 303]
12.016[54, 40, 54, 117, 183, 184, 122, 286]
12.038[49, 38, 55, 122, 201, 176, 108, 233]
12.069[51, 36, 56, 139, 213, 177, 116, 261]
12.083[44, 35, 55, 132, 205, 164, 108, 239]
12.098[48, 35, 53, 134, 193, 143, 107, 261]
12.122[46, 34, 56, 152, 212, 145, 104, 246]
12.136[46, 35, 56, 141, 192, 135, 98, 242]
12.158[41, 36, 55, 120, 169, 129, 82, 216]
12.181[40, 34, 52, 122, 171, 134, 80, 224]
12.196[34, 34, 53, 129, 195, 138, 74, 200]
12.218[36, 36, 50, 108, 180, 149, 74, 197]
12.241[34, 33, 48, 111, 176, 148, 72, 196]
12.256[31, 32, 45, 116, 173, 147, 68, 166]
12.278[34, 31, 49, 118, 162, 168, 78, 190]
12.301[35, 30, 42, 95, 124, 163, 76, 196]
12.316[35, 28, 41, 100, 117, 161, 84, 194]
12.338[41, 29, 39, 92, 123, 171, 107, 239]
12.362[47, 32, 43, 94, 148, 179, 118, 276]
12.376[46, 38, 48, 92, 145, 166, 117, 257]
12.399[44, 39, 48, 105, 155, 163, 115, 227]
12.43[44, 41, 58, 168, 208, 171, 114, 228]
12.436[40, 41, 65, 193, 216, 178, 105, 219]
12.458[40, 40, 71, 215, 214, 181, 108, 201]
12.48[41, 39, 67, 231, 215, 182, 112, 204]
12.496[41, 40, 71, 235, 214, 186, 110, 204]
12.518[41, 38, 65, 213, 172, 166, 99, 198]
12.541[41, 38, 60, 204, 163, 159, 90, 153]
12.556[40, 36, 49, 195, 175, 141, 94, 176]
12.578[43, 42, 57, 187, 231, 137, 89, 178]
12.601[42, 40, 53, 185, 237, 130, 90, 173]
12.617[43, 40, 50, 165, 230, 131, 95, 197]
12.638[43, 39, 47, 150, 227, 113, 98, 237]
12.661[43, 40, 48, 128, 204, 109, 82, 209]
12.683[36, 29, 42, 108, 142, 104, 78, 205]
12.706[35, 29, 40, 100, 142, 108, 74, 204]
12.721[34, 31, 45, 94, 165, 122, 74, 182]
12.751[40, 32, 47, 94, 165, 130, 88, 236]
12.766[40, 31, 46, 91, 174, 132, 93, 244]
12.781[40, 32, 51, 100, 177, 161, 99, 240]
12.803[42, 35, 54, 97, 173, 164, 102, 243]
12.818[46, 34, 52, 95, 152, 154, 111, 308]
12.841[44, 33, 49, 92, 151, 149, 101, 263]
12.871[42, 34, 50, 97, 146, 148, 95, 248]
12.878[41, 34, 42, 98, 201, 117, 91, 253]
12.901[41, 39, 49, 122, 218, 133, 95, 253]
12.923[36, 47, 57, 195, 233, 145, 84, 182]
12.94[32, 46, 58, 208, 235, 154, 82, 169]
12.961[32, 46, 59, 217, 235, 154, 80, 167]
12.983[33, 45, 59, 224, 194, 151, 72, 155]
12.998[32, 37, 52, 224, 191, 137, 73, 153]
13.021[30, 27, 44, 168, 200, 112, 67, 133]
13.044[27, 26, 45, 158, 210, 100, 57, 81]
13.059[26, 29, 44, 153, 218, 96, 56, 64]
13.08[27, 31, 43, 131, 207, 97, 54, 55]
13.103[26, 32, 44, 106, 187, 84, 37, 39]
13.12[28, 31, 41, 102, 150, 87, 37, 51]
13.14[33, 31, 41, 99, 156, 98, 55, 129]
13.163[35, 30, 42, 86, 146, 101, 63, 141]
13.178[33, 26, 41, 84, 142, 94, 64, 144]
13.2[34, 27, 41, 98, 142, 96, 66, 148]
13.223[32, 28, 41, 132, 159, 105, 68, 145]
13.238[28, 29, 45, 151, 143, 92, 53, 84]
13.261[24, 28, 43, 159, 140, 93, 42, 59]
13.283[26, 31, 48, 173, 176, 104, 46, 55]
13.299[32, 29, 48, 178, 188, 100, 52, 129]
13.321[35, 29, 49, 155, 201, 109, 55, 135]
13.343[38, 32, 46, 150, 218, 118, 59, 137]
13.358[39, 34, 50, 142, 216, 123, 59, 139]
13.381[38, 33, 46, 126, 190, 115, 54, 139]
13.403[36, 36, 45, 111, 179, 114, 49, 86]
13.418[33, 35, 45, 138, 163, 97, 49, 126]
13.44[32, 32, 39, 122, 136, 88, 47, 135]
13.472[32, 31, 43, 133, 138, 84, 49, 136]
13.478[33, 31, 43, 138, 138, 84, 52, 137]
13.5[29, 35, 46, 140, 136, 91, 47, 132]
13.523[34, 38, 48, 114, 123, 99, 52, 151]
13.539[36, 37, 47, 117, 123, 95, 72, 186]
13.56[37, 35, 39, 104, 115, 94, 78, 199]
13.583[36, 37, 46, 113, 121, 96, 80, 198]
13.599[36, 31, 42, 112, 125, 108, 84, 200]
13.621[31, 29, 45, 110, 120, 103, 81, 158]
13.643[28, 30, 46, 114, 118, 110, 65, 102]
13.667[26, 32, 51, 135, 145, 118, 56, 69]
13.681[27, 28, 46, 133, 170, 122, 53, 65]
13.703[28, 31, 46, 136, 162, 106, 45, 50]
13.726[28, 28, 41, 136, 161, 108, 40, 38]
13.741[27, 30, 44, 141, 173, 104, 35, 29]
13.763[30, 28, 41, 139, 157, 100, 47, 126]
13.786[30, 27, 37, 139, 119, 107, 49, 134]
13.8[30, 28, 37, 138, 131, 109, 53, 138]
13.823[31, 27, 38, 150, 132, 107, 55, 140]
13.847[30, 26, 35, 141, 112, 106, 54, 143]
13.869[26, 27, 34, 134, 111, 97, 42, 74]
13.883[27, 30, 44, 153, 120, 79, 45, 63]
13.906[24, 28, 44, 151, 107, 77, 40, 54]
13.92[23, 31, 45, 138, 102, 69, 38, 48]
13.943[25, 32, 45, 133, 101, 65, 41, 41]
13.967[42, 36, 45, 121, 118, 69, 70, 155]
13.981[43, 37, 39, 77, 117, 80, 71, 163]
14.003[44, 36, 38, 73, 155, 79, 72, 166]
14.026[44, 35, 37, 85, 176, 84, 72, 168]
14.049[42, 35, 38, 93, 188, 82, 72, 169]
14.063[28, 30, 36, 98, 187, 85, 53, 81]
14.086[25, 27, 35, 109, 190, 79, 48, 63]
14.1[25, 27, 36, 114, 181, 80, 47, 51]
14.123[30, 27, 38, 107, 175, 84, 59, 131]
14.154[34, 27, 42, 108, 174, 93, 58, 139]
14.16[32, 25, 42, 118, 168, 91, 50, 140]
14.183[33, 26, 46, 144, 193, 91, 49, 142]
14.207[33, 29, 48, 150, 196, 96, 50, 144]
14.221[29, 28, 48, 152, 189, 102, 39, 80]
14.243[25, 35, 43, 153, 191, 96, 41, 60]
14.267[25, 35, 43, 142, 187, 91, 39, 51]
14.281[23, 35, 36, 106, 154, 87, 36, 46]
14.303[28, 34, 44, 105, 136, 101, 53, 132]
14.327[30, 35, 42, 96, 130, 96, 55, 137]
14.341[32, 28, 43, 92, 122, 103, 56, 140]
14.372[32, 30, 47, 96, 122, 112, 58, 144]
14.386[32, 30, 48, 96, 131, 119, 59, 145]
14.401[29, 32, 50, 109, 145, 125, 50, 72]
14.423[26, 30, 50, 115, 166, 119, 44, 57]
14.447[23, 29, 49, 118, 176, 144, 51, 55]
14.461[29, 29, 51, 127, 186, 142, 59, 91]
14.484[37, 32, 54, 135, 190, 157, 76, 149]
14.507[37, 31, 49, 115, 171, 144, 73, 156]
14.521[39, 33, 53, 111, 152, 153, 76, 159]
14.543[39, 34, 52, 101, 135, 125, 70, 158]
14.567[35, 32, 51, 102, 171, 126, 63, 138]
14.589[29, 32, 49, 97, 188, 101, 43, 72]
14.603[27, 29, 48, 104, 201, 98, 42, 55]
14.626[27, 28, 44, 103, 201, 85, 37, 45]
14.649[26, 27, 44, 105, 200, 81, 36, 47]
14.663[29, 28, 43, 95, 161, 75, 57, 146]
14.687[31, 29, 42, 93, 132, 83, 60, 157]
14.709[30, 32, 40, 98, 133, 88, 59, 159]
14.723[28, 33, 40, 101, 145, 85, 60, 161]
14.747[29, 35, 41, 106, 148, 85, 59, 162]
14.769[26, 34, 41, 105, 147, 90, 37, 82]
14.791[23, 31, 41, 107, 185, 87, 29, 55]
14.806[25, 32, 41, 98, 187, 88, 31, 49]
14.829[24, 33, 41, 128, 204, 92, 30, 42]
14.851[23, 36, 40, 127, 205, 91, 32, 34]
14.866[32, 37, 41, 125, 204, 85, 47, 133]
14.889[34, 37, 43, 122, 164, 81, 50, 143]
14.903[35, 35, 44, 120, 153, 81, 59, 150]
14.927[35, 32, 44, 103, 122, 84, 62, 153]
14.949[34, 27, 44, 116, 118, 87, 62, 153]
14.963[26, 25, 41, 120, 115, 87, 51, 85]
14.987[23, 34, 37, 118, 116, 88, 48, 66]
15.009[24, 37, 36, 121, 169, 82, 44, 51]
15.023[25, 39, 34, 106, 170, 76, 41, 45]
15.047[27, 40, 33, 84, 177, 76, 40, 42]
15.069[29, 39, 32, 79, 184, 102, 42, 38]
15.084[28, 34, 35, 79, 184, 97, 41, 38]
15.107[25, 32, 35, 74, 130, 106, 34, 30]
15.129[23, 30, 35, 75, 119, 106, 34, 27]
15.143[22, 31, 38, 80, 113, 110, 34, 27]
15.166[23, 32, 38, 80, 104, 85, 31, 25]
15.189[23, 31, 36, 74, 99, 90, 31, 24]
15.203[22, 29, 36, 67, 97, 81, 27, 26]
15.234[24, 30, 36, 64, 100, 82, 27, 26]
15.249[27, 28, 31, 59, 99, 76, 43, 88]
15.264[28, 27, 33, 55, 87, 77, 53, 144]
15.294[28, 27, 33, 61, 100, 72, 54, 152]
15.309[30, 29, 39, 69, 105, 86, 57, 157]
15.323[28, 28, 39, 90, 133, 93, 58, 159]
15.346[26, 28, 46, 94, 135, 98, 50, 137]
15.369[24, 29, 46, 96, 144, 102, 41, 77]
15.383[24, 29, 47, 93, 139, 107, 41, 62]
15.407[24, 28, 44, 96, 162, 98, 38, 46]
15.436[23, 29, 44, 78, 149, 89, 37, 39]
15.443[22, 30, 37, 68, 139, 85, 33, 32]
15.467[24, 29, 37, 67, 134, 80, 30, 27]
15.489[23, 30, 35, 72, 135, 77, 30, 28]
15.503[22, 30, 30, 63, 105, 70, 28, 28]
15.526[25, 29, 34, 61, 92, 70, 27, 29]
15.549[24, 28, 34, 75, 106, 68, 27, 26]
15.579[23, 31, 36, 75, 115, 73, 27, 25]
15.586[23, 29, 36, 72, 119, 80, 28, 22]
15.609[24, 31, 44, 77, 113, 85, 28, 25]
15.631[23, 32, 43, 78, 126, 86, 28, 24]
15.646[28, 71, 42, 69, 124, 85, 28, 24]
15.669[26, 89, 43, 68, 116, 85, 31, 25]
15.691[28, 93, 43, 67, 107, 74, 28, 24]
15.706[30, 92, 43, 65, 110, 72, 43, 132]
15.729[34, 92, 43, 72, 110, 86, 57, 150]
15.759[32, 67, 44, 69, 99, 87, 59, 153]
15.766[32, 37, 41, 67, 97, 85, 59, 155]
15.789[31, 28, 41, 80, 113, 87, 61, 158]
15.811[29, 29, 36, 75, 115, 90, 51, 91]
15.827[24, 29, 34, 65, 104, 71, 40, 58]
15.85[22, 29, 38, 71, 117, 74, 38, 50]
15.871[26, 29, 37, 71, 120, 78, 44, 118]
15.886[27, 27, 36, 60, 106, 73, 42, 122]
15.909[26, 24, 34, 61, 96, 63, 42, 124]
15.932[26, 24, 35, 64, 97, 71, 38, 126]
15.946[27, 25, 32, 66, 92, 67, 39, 127]
15.969[26, 29, 38, 72, 86, 63, 33, 65]
15.991[24, 27, 39, 76, 82, 61, 33, 50]
16.006[24, 28, 40, 86, 86, 62, 33, 44]
16.028[26, 30, 40, 91, 91, 60, 33, 37]
16.051[29, 31, 40, 100, 110, 67, 36, 114]
16.065[29, 29, 37, 100, 123, 77, 37, 119]
16.096[30, 31, 37, 97, 124, 82, 37, 122]
16.111[29, 52, 35, 85, 123, 81, 36, 123]
16.126[27, 62, 33, 79, 121, 80, 37, 124]
16.149[22, 65, 31, 77, 128, 75, 34, 60]
16.171[22, 67, 33, 85, 122, 63, 33, 51]
16.186[35, 69, 34, 84, 128, 60, 36, 74]
16.209[57, 54, 34, 85, 127, 58, 48, 145]
16.231[67, 41, 34, 104, 122, 55, 49, 159]
16.246[71, 41, 36, 100, 108, 60, 59, 205]
16.269[73, 62, 35, 100, 130, 74, 62, 206]
16.291[69, 64, 37, 105, 150, 82, 76, 225]
16.306[58, 63, 39, 107, 159, 92, 82, 231]
16.329[45, 63, 39, 91, 166, 109, 83, 224]
16.359[40, 60, 44, 90, 163, 116, 79, 186]
16.373[36, 36, 42, 83, 142, 110, 77, 186]
16.389[32, 30, 39, 85, 121, 106, 61, 152]
16.411[27, 32, 40, 85, 113, 104, 46, 71]
16.433[29, 32, 40, 94, 111, 90, 53, 133]
16.449[32, 31, 33, 88, 99, 79, 59, 145]
16.471[37, 29, 31, 84, 98, 81, 75, 199]
16.493[38, 28, 33, 75, 91, 80, 79, 208]
16.51[36, 28, 33, 79, 103, 75, 79, 210]
16.531[37, 29, 32, 71, 110, 71, 92, 228]
16.553[36, 33, 36, 69, 110, 75, 91, 230]
16.569[32, 33, 36, 70, 115, 66, 79, 187]
16.591[31, 67, 36, 75, 123, 65, 77, 178]
16.613[35, 85, 35, 77, 114, 64, 84, 205]
16.629[34, 86, 36, 72, 96, 65, 71, 178]
16.651[37, 84, 33, 76, 99, 61, 76, 212]
16.673[39, 84, 36, 109, 126, 66, 76, 214]
16.689[41, 62, 36, 109, 119, 71, 76, 216]
16.711[38, 30, 35, 103, 113, 67, 68, 189]
16.733[37, 28, 33, 108, 118, 69, 75, 204]
16.75[36, 30, 32, 116, 116, 70, 77, 197]
16.771[32, 31, 34, 93, 90, 76, 77, 203]
16.793[30, 30, 35, 97, 104, 77, 80, 202]
16.809[35, 33, 39, 110, 119, 95, 84, 206]
16.831[35, 34, 40, 103, 114, 96, 75, 176]
16.853[35, 32, 42, 95, 112, 97, 74, 170]
16.87[35, 31, 44, 95, 114, 100, 74, 164]
16.891[36, 32, 45, 98, 105, 100, 71, 163]
16.913[36, 30, 41, 118, 125, 90, 75, 200]
16.93[39, 30, 42, 123, 131, 100, 74, 211]
16.951[38, 31, 40, 125, 138, 105, 73, 193]
16.973[38, 30, 34, 120, 131, 100, 73, 189]
16.989[38, 29, 30, 117, 128, 96, 75, 192]
17.011[39, 34, 37, 125, 115, 91, 76, 182]
17.033[40, 31, 34, 126, 118, 81, 83, 190]
17.049[39, 34, 36, 131, 113, 73, 77, 187]
17.071[40, 34, 38, 137, 108, 67, 76, 189]
17.093[39, 35, 39, 141, 112, 80, 76, 188]
17.109[36, 30, 37, 130, 126, 98, 69, 162]
17.131[31, 34, 46, 130, 119, 102, 56, 114]
17.153[33, 35, 53, 166, 130, 106, 69, 123]
17.169[34, 41, 58, 170, 139, 119, 80, 163]
17.191[34, 41, 59, 164, 140, 114, 81, 165]
17.213[34, 42, 57, 145, 126, 104, 78, 159]
17.229[31, 39, 49, 153, 158, 98, 75, 158]
17.251[30, 40, 42, 106, 157, 94, 59, 136]
17.281[26, 34, 34, 92, 150, 79, 44, 74]
17.29[29, 41, 37, 98, 152, 78, 43, 62]
17.311[34, 43, 39, 145, 155, 72, 50, 127]
17.333[40, 43, 46, 139, 136, 95, 67, 190]
17.349[39, 40, 44, 139, 126, 93, 71, 196]
17.371[39, 39, 44, 142, 135, 95, 69, 196]
17.401[37, 32, 44, 148, 148, 112, 68, 198]
17.408[31, 26, 41, 118, 134, 115, 63, 162]
17.431[23, 27, 39, 131, 128, 99, 46, 79]
17.453[29, 28, 41, 149, 136, 124, 64, 144]
17.475[31, 30, 42, 150, 129, 125, 73, 151]
17.49[34, 30, 43, 148, 122, 117, 77, 161]
17.513[34, 31, 43, 141, 122, 115, 86, 195]
17.535[38, 30, 40, 125, 112, 117, 96, 240]
17.55[36, 30, 41, 120, 110, 96, 90, 215]
17.573[34, 27, 41, 116, 114, 105, 86, 214]
17.596[32, 28, 38, 106, 102, 106, 85, 208]
17.611[31, 30, 42, 108, 114, 108, 77, 179]
17.633[27, 28, 42, 107, 117, 111, 64, 113]
17.655[26, 28, 41, 85, 120, 115, 56, 85]
17.671[28, 28, 38, 86, 118, 107, 64, 116]
17.693[30, 30, 44, 102, 143, 137, 68, 141]
17.715[30, 27, 40, 93, 133, 136, 69, 144]
17.731[30, 28, 38, 90, 144, 131, 68, 143]
17.753[29, 30, 38, 91, 138, 124, 66, 145]
17.775[26, 30, 41, 107, 139, 127, 53, 114]
17.792[25, 26, 30, 99, 111, 86, 41, 70]
17.813[24, 28, 31, 102, 112, 89, 38, 53]
17.844[28, 27, 32, 104, 102, 103, 62, 140]
17.851[30, 24, 35, 106, 101, 112, 64, 145]
17.873[32, 27, 34, 91, 108, 107, 65, 148]
17.896[30, 31, 35, 84, 108, 109, 66, 149]
17.911[31, 30, 35, 81, 100, 103, 67, 151]
17.933[26, 31, 34, 82, 110, 85, 45, 77]
17.955[22, 29, 31, 85, 120, 74, 39, 63]
17.971[30, 29, 31, 83, 118, 77, 58, 143]
17.993[31, 26, 32, 85, 123, 76, 58, 148]
18.015[30, 25, 29, 92, 124, 78, 59, 151]
18.031[32, 25, 30, 91, 113, 81, 60, 153]
18.053[33, 26, 31, 84, 105, 75, 62, 157]
18.076[40, 28, 44, 86, 111, 113, 97, 234]
18.091[41, 29, 47, 86, 108, 118, 101, 244]
18.113[41, 32, 49, 80, 115, 121, 101, 243]
18.135[41, 32, 52, 79, 121, 128, 101, 242]
18.15[43, 33, 52, 94, 133, 138, 102, 242]
18.173[28, 28, 43, 99, 133, 128, 58, 109]
18.195[26, 28, 40, 94, 133, 124, 53, 74]
18.211[29, 27, 37, 92, 132, 118, 65, 150]
18.233[31, 26, 35, 87, 121, 110, 67, 157]
18.255[29, 25, 35, 79, 124, 108, 66, 155]
18.271[30, 28, 38, 68, 115, 92, 62, 151]
18.293[32, 28, 38, 70, 114, 88, 63, 151]
18.316[28, 28, 39, 70, 111, 90, 46, 76]
18.33[30, 29, 39, 80, 137, 95, 56, 91]
18.353[32, 30, 37, 68, 117, 87, 62, 152]
18.375[33, 28, 33, 80, 125, 73, 64, 167]
18.398[33, 29, 36, 84, 126, 76, 65, 173]
18.413[33, 31, 36, 83, 126, 75, 66, 176]
18.435[27, 29, 36, 77, 102, 67, 53, 162]
18.458[25, 30, 35, 77, 109, 63, 51, 109]
18.473[22, 28, 34, 67, 99, 69, 47, 87]
18.495[29, 27, 28, 67, 124, 64, 59, 156]
18.518[31, 26, 32, 77, 132, 76, 58, 159]
18.533[34, 28, 37, 80, 135, 78, 61, 166]
18.555[36, 29, 38, 81, 129, 79, 56, 189]
18.578[43, 32, 41, 81, 136, 74, 69, 231]
18.593[39, 32, 42, 85, 118, 83, 57, 194]
18.615[41, 33, 41, 73, 114, 84, 74, 227]
18.638[40, 33, 36, 66, 105, 87, 74, 229]
18.653[40, 33, 37, 68, 103, 87, 81, 243]
18.675[37, 33, 44, 65, 93, 95, 74, 218]
18.698[38, 34, 47, 99, 99, 91, 78, 232]
18.713[36, 37, 45, 102, 95, 90, 63, 217]
18.735[36, 43, 47, 112, 103, 102, 63, 210]
18.758[44, 52, 54, 122, 117, 127, 77, 226]
18.773[42, 54, 46, 124, 129, 126, 75, 218]
18.795[40, 54, 48, 97, 122, 122, 76, 198]
18.818[42, 53, 57, 104, 139, 125, 89, 214]
18.833[43, 47, 56, 97, 139, 114, 91, 219]
18.855[31, 36, 48, 82, 127, 82, 70, 159]
18.879[32, 32, 48, 80, 132, 79, 80, 197]
18.893[33, 30, 45, 94, 145, 83, 76, 201]
18.915[29, 25, 34, 87, 132, 69, 69, 165]
18.938[31, 26, 34, 86, 128, 70, 75, 195]
18.953[34, 27, 40, 91, 133, 83, 77, 201]
18.975[30, 25, 38, 88, 119, 81, 66, 160]
18.998[30, 26, 38, 72, 101, 76, 69, 167]
19.013[34, 27, 37, 68, 96, 74, 66, 191]
19.036[31, 26, 37, 69, 101, 78, 63, 161]
19.058[31, 27, 32, 64, 100, 74, 64, 156]
19.073[31, 30, 34, 66, 108, 72, 65, 152]
19.096[30, 30, 33, 62, 110, 70, 61, 135]
19.118[26, 28, 33, 66, 118, 75, 53, 83]
19.133[25, 28, 31, 59, 114, 67, 39, 57]
19.156[22, 28, 31, 61, 107, 59, 35, 43]
19.187[22, 26, 33, 57, 95, 56, 30, 38]
19.193[21, 26, 31, 56, 93, 60, 30, 32]
19.215[20, 28, 33, 56, 94, 72, 32, 28]
19.239[21, 30, 46, 75, 118, 105, 41, 26]
19.261[20, 30, 48, 77, 132, 126, 48, 32]
19.275[22, 31, 48, 78, 140, 131, 61, 45]
19.299[23, 33, 49, 81, 140, 133, 63, 47]
19.321[29, 38, 52, 81, 132, 129, 63, 47]
19.335[35, 38, 43, 71, 111, 106, 68, 142]
19.359[37, 38, 42, 67, 105, 82, 62, 147]
19.381[37, 37, 44, 74, 116, 89, 50, 146]
19.395[36, 37, 44, 78, 131, 88, 51, 149]
19.418[33, 31, 40, 75, 132, 91, 55, 152]
19.441[27, 27, 39, 71, 135, 95, 41, 75]
19.455[31, 26, 35, 67, 131, 88, 51, 142]
19.479[31, 24, 30, 61, 124, 92, 53, 149]
19.501[31, 22, 28, 50, 105, 91, 53, 148]
19.515[30, 20, 27, 52, 107, 84, 49, 148]
19.539[29, 21, 27, 48, 104, 84, 50, 149]
19.561[23, 21, 28, 51, 110, 88, 40, 77]
19.575[22, 22, 31, 63, 139, 86, 52, 72]
19.599[30, 22, 33, 65, 146, 92, 66, 146]
19.621[30, 24, 33, 66, 149, 91, 66, 149]
19.635[30, 24, 33, 66, 147, 86, 67, 150]
19.659[30, 26, 34, 75, 147, 91, 66, 149]
19.681[31, 31, 37, 68, 111, 82, 57, 145]
19.696[25, 31, 39, 86, 136, 95, 55, 81]
19.719[34, 33, 42, 89, 132, 106, 69, 151]
19.741[35, 33, 42, 102, 150, 113, 73, 157]
19.755[35, 34, 42, 95, 143, 114, 73, 158]
19.779[35, 29, 37, 93, 156, 112, 72, 160]
19.802[34, 28, 33, 76, 133, 100, 59, 154]
19.815[25, 26, 29, 73, 131, 91, 39, 77]
19.839[24, 27, 29, 59, 113, 82, 48, 68]
19.861[26, 23, 27, 62, 119, 72, 49, 93]
19.875[31, 26, 28, 57, 101, 64, 58, 145]
19.899[31, 27, 31, 64, 105, 60, 61, 152]
19.921[31, 28, 33, 62, 110, 58, 61, 153]
19.935[30, 27, 34, 59, 109, 56, 48, 149]
19.959[30, 26, 32, 54, 103, 55, 50, 138]
19.981[25, 23, 32, 56, 93, 54, 48, 87]
19.996[23, 26, 29, 66, 108, 50, 44, 67]
20.019[32, 28, 27, 81, 129, 61, 61, 144]
20.041[33, 28, 25, 83, 134, 59, 62, 153]
20.064[32, 35, 25, 84, 134, 60, 59, 158]
20.079[33, 45, 27, 82, 133, 59, 56, 173]
20.101[45, 44, 29, 73, 113, 59, 76, 265]
20.124[40, 64, 28, 57, 86, 48, 71, 242]
20.139[44, 74, 33, 58, 88, 72, 99, 290]
20.161[47, 72, 34, 58, 94, 75, 101, 292]
20.175[46, 68, 35, 62, 107, 77, 101, 283]
20.199[37, 66, 34, 54, 106, 75, 93, 217]
20.221[39, 47, 33, 47, 100, 72, 91, 233]
20.236[32, 30, 28, 39, 89, 44, 63, 164]
20.259[32, 36, 26, 44, 87, 36, 72, 204]
20.282[33, 44, 23, 38, 71, 29, 72, 206]
20.304[36, 46, 23, 41, 69, 27, 73, 231]
20.319[48, 107, 22, 43, 65, 24, 70, 215]
20.341[50, 205, 23, 40, 60, 24, 74, 220]
20.363[52, 253, 24, 37, 54, 23, 61, 173]
20.379[54, 257, 21, 37, 51, 22, 58, 169]
20.401[50, 274, 20, 34, 45, 21, 47, 102]
20.424[38, 268, 21, 35, 44, 21, 45, 76]
20.439[35, 225, 23, 35, 44, 19, 35, 48]
20.461[46, 169, 23, 37, 54, 23, 52, 90]
20.484[53, 161, 24, 38, 61, 26, 64, 141]
20.499[69, 129, 23, 41, 71, 25, 65, 147]
20.522[73, 104, 23, 38, 73, 24, 66, 150]
20.544[72, 47, 21, 43, 74, 24, 66, 151]
20.558[62, 46, 21, 45, 68, 22, 52, 130]
20.581[53, 52, 21, 44, 64, 19, 37, 73]
20.604[28, 51, 23, 41, 55, 19, 37, 56]
20.618[18, 50, 23, 43, 54, 20, 42, 48]
20.641[18, 44, 26, 40, 53, 20, 39, 45]
20.664[18, 40, 29, 38, 45, 20, 39, 39]
20.678[19, 33, 31, 40, 49, 22, 38, 32]
20.701[18, 32, 30, 42, 49, 27, 38, 37]
20.724[21, 32, 31, 42, 48, 28, 43, 124]
20.738[24, 33, 30, 50, 58, 31, 52, 131]
20.762[27, 35, 28, 47, 63, 31, 52, 135]
20.784[26, 28, 25, 46, 60, 28, 52, 138]
20.799[26, 29, 25, 46, 58, 26, 51, 136]
20.821[24, 28, 24, 45, 60, 25, 39, 68]
20.844[21, 26, 24, 37, 51, 22, 26, 53]
20.858[21, 20, 26, 38, 47, 22, 24, 42]
20.881[22, 22, 25, 36, 49, 22, 24, 36]
20.904[23, 20, 28, 37, 50, 20, 23, 31]
20.918[23, 20, 27, 40, 51, 20, 22, 25]
20.941[23, 20, 24, 42, 51, 18, 21, 24]
20.964[21, 20, 23, 40, 44, 18, 19, 21]
20.978[22, 25, 23, 39, 39, 18, 19, 17]
21.001[22, 24, 26, 49, 47, 49, 24, 22]
21.031[21, 31, 32, 49, 50, 55, 25, 21]
21.038[21, 32, 32, 48, 50, 57, 27, 20]
21.061[22, 32, 33, 51, 53, 58, 27, 22]
21.091[22, 29, 33, 55, 63, 59, 27, 22]
21.098[20, 30, 29, 46, 63, 40, 24, 18]
21.121[20, 25, 24, 43, 59, 31, 22, 18]
21.144[21, 29, 27, 41, 58, 29, 20, 19]
21.158[21, 39, 24, 35, 57, 27, 21, 21]
21.181[23, 44, 27, 33, 52, 26, 19, 23]
21.204[23, 45, 26, 44, 67, 23, 19, 22]
21.226[22, 43, 24, 48, 70, 21, 20, 21]
21.242[22, 41, 23, 60, 97, 35, 23, 20]
21.264[26, 39, 31, 60, 99, 39, 23, 21]
21.286[24, 32, 28, 61, 102, 40, 23, 21]
21.301[24, 30, 31, 54, 91, 39, 23, 21]
21.324[26, 29, 33, 54, 96, 63, 27, 25]
21.347[25, 30, 34, 48, 73, 65, 29, 26]
21.361[23, 25, 29, 55, 77, 90, 31, 24]
21.384[24, 27, 30, 54, 75, 96, 33, 26]
21.405[23, 28, 28, 52, 72, 100, 34, 25]
21.422[21, 30, 27, 60, 74, 88, 31, 24]
21.444[21, 31, 26, 57, 73, 83, 28, 24]
21.466[19, 27, 23, 53, 68, 54, 25, 24]
21.482[21, 27, 29, 53, 67, 67, 29, 23]
21.504[22, 27, 29, 54, 69, 71, 30, 23]
21.526[25, 26, 28, 41, 59, 71, 31, 22]
21.543[26, 25, 31, 37, 54, 71, 30, 22]
21.565[25, 26, 31, 35, 51, 71, 30, 21]
21.585[23, 24, 27, 28, 39, 49, 25, 20]
21.602[22, 26, 27, 28, 36, 33, 21, 21]
21.623[18, 28, 27, 29, 35, 34, 24, 21]
21.647[20, 30, 29, 33, 44, 42, 24, 20]
21.662[22, 29, 35, 44, 56, 93, 36, 23]
21.684[22, 27, 34, 47, 61, 99, 38, 23]
21.705[22, 25, 33, 50, 66, 102, 40, 22]
21.722[23, 20, 34, 48, 67, 102, 38, 21]
21.743[21, 17, 31, 51, 71, 100, 38, 22]
21.766[21, 20, 25, 45, 67, 56, 26, 20]
21.782[22, 36, 24, 48, 71, 42, 22, 20]
21.803[22, 52, 26, 47, 67, 40, 21, 21]
21.826[25, 53, 26, 52, 72, 43, 21, 21]
21.842[24, 54, 26, 55, 70, 41, 20, 22]
21.864[23, 53, 25, 51, 64, 41, 22, 21]
21.886[23, 43, 24, 48, 59, 40, 22, 19]
21.902[23, 24, 24, 52, 67, 33, 19, 20]
21.924[22, 22, 25, 51, 67, 38, 22, 20]
21.946[21, 20, 22, 45, 70, 41, 22, 18]
21.962[22, 21, 22, 48, 72, 39, 21, 17]
21.983[21, 22, 22, 45, 70, 43, 24, 20]
22.006[20, 22, 22, 39, 59, 45, 26, 20]
22.022[17, 22, 21, 41, 57, 57, 26, 20]
22.051[20, 22, 20, 39, 48, 56, 27, 20]
22.066[21, 23, 21, 42, 60, 57, 28, 20]
22.082[21, 24, 21, 42, 60, 55, 26, 20]
22.103[20, 22, 21, 46, 67, 53, 25, 19]
22.126[21, 22, 20, 48, 63, 33, 23, 19]
22.142[21, 23, 23, 53, 69, 29, 23, 19]
22.163[21, 23, 25, 49, 58, 28, 21, 20]
22.186[22, 21, 24, 51, 66, 26, 21, 20]
22.208[22, 22, 25, 57, 66, 32, 23, 19]
22.223[21, 19, 26, 52, 66, 31, 21, 20]
22.245[20, 19, 26, 66, 93, 34, 20, 21]
22.268[16, 18, 24, 71, 93, 34, 21, 20]
22.283[19, 18, 25, 71, 90, 34, 20, 19]
22.306[20, 18, 24, 64, 87, 28, 18, 19]
22.329[20, 21, 23, 66, 88, 27, 18, 18]
22.343[21, 21, 22, 46, 51, 24, 17, 18]
22.365[23, 22, 21, 43, 63, 25, 17, 20]
22.388[21, 22, 20, 46, 67, 26, 15, 20]
22.403[22, 25, 23, 52, 73, 35, 17, 22]
22.425[22, 23, 23, 50, 71, 36, 20, 21]
22.448[22, 22, 24, 53, 72, 39, 21, 20]
22.463[22, 22, 24, 57, 67, 41, 22, 18]
22.485[23, 22, 24, 61, 64, 42, 21, 20]
22.508[21, 18, 23, 55, 56, 37, 20, 17]
22.523[21, 19, 24, 54, 58, 36, 19, 19]
22.545[21, 19, 23, 58, 70, 30, 18, 20]
22.568[22, 21, 24, 51, 65, 27, 17, 19]
22.583[20, 21, 23, 42, 60, 25, 20, 19]
22.607[21, 23, 22, 48, 62, 22, 22, 21]
22.628[22, 22, 20, 52, 57, 21, 21, 18]
22.65[21, 23, 21, 47, 44, 24, 22, 20]
22.666[21, 23, 24, 50, 43, 33, 23, 19]
22.688[23, 22, 23, 49, 47, 37, 21, 18]
22.703[22, 21, 23, 47, 47, 37, 19, 18]
22.726[21, 21, 23, 42, 55, 38, 19, 19]
22.756[20, 21, 22, 41, 52, 38, 20, 19]
22.763[18, 21, 19, 37, 51, 30, 20, 21]
22.785[18, 22, 19, 36, 47, 24, 21, 22]
22.808[18, 21, 20, 31, 45, 27, 20, 21]
22.823[18, 22, 20, 48, 48, 31, 20, 21]
22.846[19, 20, 21, 48, 49, 31, 19, 20]
22.868[21, 18, 22, 54, 56, 30, 18, 20]
22.883[19, 17, 22, 56, 58, 30, 18, 19]
22.906[20, 19, 22, 56, 59, 27, 21, 21]
22.928[20, 18, 22, 41, 48, 20, 21, 21]
22.943[22, 20, 20, 43, 51, 17, 22, 21]
22.974[20, 21, 19, 44, 59, 19, 24, 20]
22.988[20, 22, 20, 44, 64, 35, 24, 20]
23.003[18, 22, 20, 55, 83, 36, 22, 19]
23.025[19, 23, 20, 57, 86, 38, 23, 21]
23.048[16, 24, 22, 57, 85, 38, 24, 20]
23.063[16, 25, 20, 54, 76, 44, 25, 21]
23.085[17, 24, 21, 52, 71, 36, 24, 19]
23.108[17, 25, 23, 41, 45, 36, 25, 21]
23.131[17, 24, 22, 41, 42, 36, 23, 22]
23.146[18, 23, 22, 41, 40, 35, 20, 22]
23.168[18, 20, 22, 39, 40, 27, 17, 22]
23.191[20, 22, 22, 42, 47, 23, 18, 23]
23.206[21, 21, 20, 40, 48, 22, 16, 21]
23.228[21, 21, 21, 41, 49, 19, 17, 20]
23.251[21, 21, 20, 46, 54, 23, 18, 21]
23.265[22, 22, 21, 51, 62, 25, 20, 20]
23.288[20, 20, 19, 49, 57, 27, 20, 18]
23.311[19, 21, 19, 48, 55, 29, 21, 18]
23.326[19, 20, 21, 53, 55, 30, 22, 17]
23.348[19, 20, 21, 45, 46, 29, 21, 16]
23.371[19, 19, 20, 36, 34, 26, 20, 18]
23.386[20, 19, 23, 47, 43, 24, 23, 20]
23.408[19, 17, 24, 48, 43, 23, 23, 20]
23.431[19, 19, 23, 40, 40, 22, 20, 20]
23.446[18, 23, 21, 45, 58, 24, 21, 20]
23.468[17, 23, 25, 46, 70, 26, 23, 21]
23.49[17, 23, 23, 34, 69, 25, 19, 21]
23.506[18, 22, 23, 36, 71, 25, 20, 19]
23.528[19, 22, 27, 40, 74, 30, 21, 19]
23.551[21, 19, 27, 51, 88, 29, 24, 20]
23.573[21, 19, 25, 53, 84, 29, 22, 18]
23.588[22, 21, 26, 52, 80, 29, 23, 18]
23.611[22, 21, 23, 52, 80, 29, 22, 19]
23.625[21, 20, 21, 52, 79, 24, 24, 19]
23.648[20, 21, 21, 34, 46, 22, 20, 18]
23.67[20, 22, 21, 31, 36, 22, 22, 17]
23.685[21, 20, 20, 36, 38, 23, 21, 17]
23.708[20, 20, 22, 36, 37, 22, 21, 18]
23.73[21, 20, 22, 36, 37, 21, 19, 19]
23.745[21, 20, 22, 37, 38, 21, 19, 19]
23.768[21, 20, 22, 39, 41, 18, 18, 19]
23.791[18, 19, 23, 35, 41, 20, 20, 20]
23.807[18, 20, 22, 37, 41, 23, 21, 20]
23.828[19, 21, 21, 34, 38, 27, 21, 21]
23.85[20, 21, 23, 42, 44, 32, 21, 20]
23.865[22, 20, 24, 45, 44, 34, 21, 21]
23.896[22, 24, 22, 46, 45, 34, 24, 21]
23.911[21, 24, 22, 47, 45, 33, 22, 22]
23.926[21, 23, 21, 45, 44, 29, 23, 20]
23.948[21, 24, 22, 37, 38, 24, 23, 20]
23.971[20, 22, 20, 33, 34, 23, 22, 21]
23.985[21, 19, 21, 33, 29, 22, 18, 21]
24.008[20, 20, 22, 29, 27, 21, 19, 21]
24.039[20, 20, 24, 29, 28, 23, 20, 20]
24.054[20, 20, 22, 32, 32, 21, 19, 22]
24.068[22, 21, 23, 32, 32, 20, 16, 19]
24.09[21, 22, 23, 29, 33, 21, 16, 20]
24.114[24, 20, 23, 32, 34, 21, 17, 21]
24.128[23, 19, 22, 41, 39, 22, 17, 21]
24.151[22, 22, 23, 39, 37, 22, 18, 20]
24.174[20, 24, 23, 43, 44, 26, 20, 21]
24.188[21, 24, 24, 45, 44, 26, 21, 19]
24.211[19, 25, 23, 43, 46, 25, 21, 21]
24.234[19, 27, 22, 35, 41, 24, 20, 22]
24.248[20, 24, 25, 37, 40, 25, 19, 22]
24.271[19, 21, 22, 33, 35, 22, 19, 21]
24.294[18, 21, 23, 29, 34, 22, 18, 21]
24.308[18, 22, 22, 28, 30, 23, 17, 20]
24.33[19, 19, 25, 29, 33, 23, 17, 20]
24.353[19, 19, 22, 29, 32, 22, 19, 23]
24.368[20, 20, 23, 31, 32, 22, 18, 22]
24.391[20, 21, 22, 34, 30, 20, 19, 24]
24.421[19, 19, 23, 33, 33, 19, 19, 23]
24.428[20, 20, 19, 32, 31, 19, 18, 23]
24.451[20, 21, 20, 30, 30, 17, 16, 19]
24.474[20, 21, 20, 27, 29, 20, 17, 20]
24.488[19, 20, 20, 29, 31, 21, 15, 17]
24.51[21, 21, 20, 31, 37, 26, 16, 17]
24.534[19, 21, 20, 37, 39, 26, 16, 16]
24.548[19, 21, 19, 39, 40, 26, 15, 19]
24.571[19, 20, 20, 39, 39, 25, 17, 18]
24.594[20, 20, 22, 37, 39, 25, 18, 19]
24.608[19, 19, 21, 36, 31, 20, 18, 20]
24.63[21, 20, 22, 33, 30, 20, 19, 20]
24.653[19, 20, 24, 32, 28, 20, 20, 19]
24.668[19, 21, 22, 31, 26, 19, 18, 20]
24.69[24, 21, 21, 30, 24, 19, 18, 19]
24.714[23, 20, 22, 29, 27, 23, 19, 19]
24.728[21, 23, 21, 27, 26, 23, 19, 19]
24.75[21, 23, 21, 26, 27, 26, 20, 19]
24.781[22, 24, 21, 26, 29, 25, 19, 17]
24.788[15, 23, 22, 26, 31, 28, 19, 18]
24.819[16, 22, 22, 31, 33, 27, 19, 19]
24.834[17, 19, 22, 39, 36, 27, 18, 18]
24.848[18, 20, 20, 40, 36, 25, 17, 18]
24.871[19, 20, 22, 39, 36, 25, 20, 19]
24.894[19, 21, 21, 42, 39, 21, 20, 19]
24.908[19, 22, 21, 37, 35, 19, 19, 19]
24.931[19, 23, 22, 29, 32, 19, 18, 18]
24.961[18, 24, 22, 29, 33, 19, 20, 19]
24.976[16, 23, 21, 38, 35, 20, 17, 18]
24.991[18, 23, 21, 34, 30, 19, 17, 20]
25.014[16, 24, 20, 35, 31, 18, 18, 19]
25.036[17, 23, 20, 37, 34, 18, 20, 19]
25.052[18, 21, 19, 37, 32, 17, 18, 17]
25.074[20, 21, 19, 33, 30, 18, 18, 19]
25.096[18, 21, 19, 33, 31, 17, 18, 18]
25.111[19, 19, 20, 35, 34, 18, 17, 19]
25.134[19, 20, 20, 34, 34, 19, 17, 20]
25.156[19, 21, 19, 34, 33, 18, 17, 21]
25.171[18, 22, 21, 31, 33, 19, 18, 19]
25.194[19, 22, 21, 30, 32, 20, 20, 20]
25.216[19, 21, 22, 30, 32, 20, 20, 19]
25.231[18, 21, 24, 28, 27, 19, 19, 19]
25.254[17, 23, 24, 34, 37, 20, 18, 19]
25.276[18, 22, 23, 33, 37, 19, 18, 21]
25.291[18, 22, 22, 37, 39, 20, 17, 20]
25.314[18, 24, 23, 40, 41, 20, 18, 20]
25.336[20, 26, 22, 39, 42, 20, 18, 17]
25.351[20, 21, 22, 34, 36, 21, 18, 18]
25.373[20, 24, 22, 34, 34, 23, 18, 16]
25.396[20, 24, 24, 43, 41, 22, 18, 15]
25.411[21, 23, 22, 40, 38, 20, 19, 17]
25.434[20, 20, 22, 41, 39, 21, 19, 17]
25.456[20, 21, 22, 44, 42, 21, 19, 16]
25.471[21, 20, 21, 52, 45, 20, 20, 19]
25.494[20, 21, 20, 56, 49, 21, 19, 20]
25.516[19, 20, 23, 64, 51, 21, 18, 20]
25.53[18, 22, 24, 65, 50, 20, 18, 20]
25.553[19, 22, 26, 64, 48, 20, 19, 20]
25.576[17, 21, 26, 59, 45, 19, 19, 19]
25.59[16, 21, 27, 53, 37, 19, 21, 20]
25.614[17, 21, 26, 45, 39, 19, 20, 19]
25.636[20, 20, 24, 43, 38, 18, 21, 18]
25.65[20, 20, 23, 42, 39, 19, 20, 18]
25.674[20, 20, 24, 42, 38, 17, 20, 16]
25.703[21, 20, 23, 35, 35, 16, 18, 16]
25.71[22, 20, 23, 32, 30, 17, 18, 16]
25.733[20, 19, 22, 46, 42, 26, 16, 19]
25.756[19, 20, 21, 46, 41, 28, 16, 19]
25.771[18, 19, 20, 48, 45, 29, 16, 20]
25.793[19, 20, 20, 46, 45, 30, 17, 19]
25.816[18, 20, 20, 45, 44, 30, 18, 20]
25.83[19, 20, 21, 28, 34, 24, 18, 18]
25.854[19, 20, 22, 37, 42, 22, 19, 18]
25.876[20, 21, 23, 39, 43, 23, 20, 19]
25.89[21, 20, 21, 41, 42, 21, 20, 19]
25.914[20, 19, 20, 42, 43, 20, 19, 19]
25.936[19, 21, 21, 42, 42, 20, 20, 20]
25.959[20, 21, 20, 37, 34, 18, 22, 20]
25.974[22, 21, 19, 34, 31, 17, 21, 19]
25.996[22, 19, 22, 30, 30, 19, 22, 19]
26.019[23, 19, 25, 33, 31, 19, 21, 18]
26.033[23, 19, 25, 35, 37, 18, 20, 18]
26.056[22, 18, 24, 36, 38, 20, 19, 17]
26.079[21, 19, 26, 34, 35, 20, 18, 16]
26.094[21, 18, 25, 33, 34, 18, 18, 17]
26.116[20, 18, 21, 30, 34, 24, 20, 19]
26.139[21, 18, 23, 27, 30, 26, 19, 19]
26.154[21, 21, 23, 22, 26, 24, 20, 20]
26.176[20, 20, 21, 21, 26, 24, 21, 22]
26.199[19, 23, 21, 20, 27, 24, 21, 22]
26.214[19, 22, 21, 25, 30, 20, 19, 21]
26.236[19, 22, 19, 27, 29, 17, 20, 20]
26.258[18, 21, 18, 35, 35, 18, 19, 20]
26.274[19, 20, 19, 35, 35, 19, 19, 19]
26.296[19, 19, 19, 38, 38, 19, 18, 17]
26.319[19, 21, 19, 36, 34, 19, 20, 17]
26.333[22, 63, 23, 39, 38, 21, 19, 18]
26.364[23, 64, 25, 34, 33, 20, 18, 18]
26.379[24, 66, 24, 36, 38, 21, 17, 17]
26.394[24, 67, 24, 34, 37, 21, 20, 19]
26.417[24, 67, 25, 33, 35, 21, 18, 18]
26.439[22, 33, 21, 30, 32, 19, 19, 21]
26.454[22, 31, 20, 38, 35, 20, 21, 21]
26.477[21, 27, 24, 36, 29, 19, 21, 24]
26.498[20, 25, 25, 36, 30, 18, 19, 22]
26.514[20, 21, 24, 36, 31, 19, 20, 22]
26.537[20, 20, 25, 37, 32, 20, 19, 19]
26.558[20, 18, 24, 29, 28, 20, 17, 18]
26.575[17, 19, 23, 33, 31, 20, 18, 15]
26.597[19, 22, 23, 41, 36, 20, 18, 16]
26.618[18, 23, 24, 42, 36, 19, 18, 17]
26.635[18, 22, 24, 40, 35, 18, 19, 21]
26.655[17, 22, 25, 44, 38, 19, 19, 21]
26.678[18, 22, 24, 40, 36, 18, 21, 20]
26.695[19, 18, 21, 31, 29, 17, 20, 20]
26.715[19, 19, 22, 30, 28, 17, 21, 19]
26.738[19, 19, 22, 36, 32, 17, 22, 16]
26.761[20, 20, 23, 29, 28, 17, 24, 16]
26.775[19, 20, 23, 33, 29, 20, 22, 17]
26.798[17, 21, 24, 35, 31, 24, 22, 17]
26.814[17, 21, 23, 38, 34, 25, 20, 18]
26.835[18, 22, 23, 36, 35, 25, 21, 19]
26.858[16, 21, 22, 44, 40, 25, 19, 18]
26.875[20, 22, 21, 40, 38, 24, 18, 20]
26.895[20, 22, 20, 39, 36, 20, 19, 20]
26.918[19, 23, 22, 37, 34, 19, 18, 21]
26.94[18, 22, 21, 34, 28, 20, 18, 20]
26.955[21, 22, 21, 25, 22, 19, 19, 21]
26.978[18, 20, 22, 27, 24, 19, 19, 19]
27.001[18, 20, 24, 26, 27, 19, 20, 18]
27.015[19, 20, 22, 24, 26, 20, 19, 17]
27.038[20, 20, 23, 26, 32, 19, 18, 18]
27.06[19, 20, 21, 25, 31, 19, 20, 18]
27.075[19, 20, 22, 27, 34, 19, 19, 19]
27.098[19, 19, 20, 28, 31, 20, 18, 20]
27.121[21, 19, 21, 29, 33, 19, 19, 19]
27.135[20, 17, 21, 38, 38, 22, 21, 19]
27.158[19, 20, 22, 41, 42, 22, 18, 20]
27.18[20, 20, 22, 42, 44, 28, 20, 19]
27.195[19, 20, 22, 42, 44, 29, 18, 18]
27.218[18, 20, 23, 42, 43, 30, 18, 17]
27.24[17, 19, 22, 31, 34, 28, 18, 17]
27.255[17, 19, 22, 31, 30, 28, 20, 17]
27.278[16, 20, 22, 35, 29, 22, 19, 15]
27.301[16, 21, 21, 38, 32, 20, 20, 17]
27.317[16, 21, 19, 40, 38, 17, 21, 17]
27.338[18, 22, 20, 50, 45, 19, 19, 17]
27.36[19, 22, 19, 49, 44, 20, 18, 17]
27.375[19, 20, 19, 49, 42, 18, 19, 19]
27.398[19, 22, 19, 48, 41, 18, 19, 19]
27.42[20, 21, 21, 48, 40, 19, 19, 19]
27.435[18, 22, 20, 37, 32, 19, 21, 17]
27.458[18, 20, 20, 35, 32, 17, 21, 18]
27.48[18, 19, 19, 33, 35, 18, 21, 18]
27.495[18, 17, 19, 31, 33, 17, 20, 18]
27.518[18, 18, 17, 32, 35, 18, 20, 18]
27.54[18, 17, 18, 39, 40, 17, 20, 21]
27.555[19, 18, 19, 44, 43, 18, 20, 21]
27.578[20, 19, 20, 41, 40, 18, 19, 20]
27.6[21, 19, 22, 41, 40, 20, 20, 19]
27.616[22, 19, 22, 38, 35, 19, 21, 19]
27.638[23, 19, 22, 32, 30, 18, 17, 18]
27.66[22, 18, 23, 32, 32, 20, 18, 19]
27.675[22, 20, 23, 32, 32, 20, 19, 19]
27.698[21, 20, 22, 31, 32, 19, 19, 19]
27.72[19, 22, 24, 33, 35, 19, 19, 20]
27.735[18, 22, 24, 34, 36, 20, 21, 18]
27.758[17, 22, 23, 32, 34, 19, 22, 16]
27.781[19, 21, 23, 35, 38, 21, 22, 17]
27.795[18, 20, 23, 35, 38, 20, 20, 17]
27.818[18, 20, 23, 37, 38, 22, 20, 16]
27.84[20, 22, 23, 35, 37, 22, 20, 18]
27.863[20, 22, 23, 31, 33, 21, 18, 18]
27.878[19, 22, 21, 28, 28, 20, 19, 18]
27.9[20, 23, 20, 30, 31, 19, 20, 17]
27.923[20, 21, 22, 27, 28, 18, 20, 17]
27.938[19, 19, 22, 30, 28, 19, 19, 16]
27.96[20, 20, 22, 30, 29, 18, 20, 18]
27.983[20, 20, 22, 31, 32, 18, 20, 18]
27.998[19, 22, 24, 32, 33, 22, 20, 20]
28.021[21, 21, 22, 30, 33, 21, 21, 20]
28.043[20, 22, 23, 31, 36, 21, 21, 20]
28.065[20, 21, 24, 31, 35, 23, 22, 20]
28.08[21, 21, 23, 31, 33, 22, 19, 20]
28.103[21, 20, 22, 30, 30, 18, 21, 20]
28.118[20, 21, 21, 32, 34, 21, 19, 20]
28.14[21, 22, 22, 28, 30, 20, 20, 22]
28.163[21, 22, 21, 29, 30, 19, 19, 22]
28.178[20, 22, 23, 30, 28, 19, 20, 23]
28.2[19, 21, 23, 31, 33, 19, 19, 22]
28.223[19, 21, 23, 29, 32, 15, 19, 22]
28.238[19, 21, 22, 43, 48, 20, 19, 20]
28.261[18, 21, 22, 43, 50, 20, 19, 20]
28.283[18, 21, 21, 43, 49, 20, 20, 19]
28.299[18, 20, 21, 42, 46, 22, 19, 18]
28.321[18, 20, 21, 46, 49, 23, 19, 18]
28.343[19, 19, 21, 36, 36, 20, 19, 18]
28.358[19, 19, 20, 35, 33, 21, 19, 16]
28.38[20, 20, 20, 37, 37, 20, 17, 17]
28.403[20, 21, 20, 37, 36, 20, 19, 19]
28.418[21, 20, 19, 33, 29, 21, 18, 20]
28.44[19, 21, 19, 30, 28, 20, 19, 20]
28.463[20, 22, 22, 31, 30, 20, 19, 21]
28.478[18, 19, 22, 26, 26, 22, 20, 21]
28.5[17, 19, 23, 30, 29, 22, 19, 20]
28.523[17, 20, 22, 31, 31, 20, 20, 19]
28.538[18, 21, 24, 36, 33, 20, 20, 19]
28.56[20, 20, 24, 34, 31, 19, 21, 18]
28.583[20, 21, 24, 34, 35, 16, 21, 17]
28.598[21, 21, 22, 32, 37, 17, 21, 16]
28.62[20, 20, 23, 33, 35, 18, 21, 16]
28.643[18, 19, 21, 32, 33, 20, 20, 19]
28.658[16, 20, 20, 33, 34, 21, 18, 19]
28.68[17, 18, 20, 33, 31, 22, 17, 19]
28.703[17, 18, 21, 31, 25, 20, 17, 20]
28.718[19, 19, 21, 33, 27, 22, 19, 23]
28.74[19, 19, 21, 33, 32, 21, 21, 21]
28.763[19, 19, 22, 32, 32, 20, 22, 21]
28.786[19, 21, 23, 32, 35, 21, 23, 22]
28.8[17, 20, 24, 35, 38, 21, 22, 19]
28.823[17, 20, 23, 35, 39, 21, 20, 17]
28.846[18, 21, 22, 34, 36, 22, 20, 17]
28.86[19, 22, 21, 35, 35, 22, 19, 18]
28.883[19, 22, 20, 35, 31, 22, 19, 19]
28.906[22, 22, 21, 36, 29, 22, 21, 20]
28.92[22, 22, 21, 33, 27, 21, 20, 19]
28.943[23, 22, 21, 32, 26, 20, 20, 20]
28.966[21, 22, 20, 33, 30, 20, 20, 21]
28.98[20, 22, 20, 35, 32, 18, 22, 20]
29.003[18, 22, 18, 32, 31, 19, 20, 20]
29.026[18, 21, 19, 30, 30, 20, 20, 21]
29.04[19, 22, 19, 30, 30, 20, 20, 19]
29.063[21, 23, 24, 32, 24, 20, 19, 17]
29.086[21, 22, 24, 31, 26, 20, 22, 18]
29.1[21, 23, 24, 34, 27, 21, 22, 16]
29.123[22, 24, 25, 32, 26, 19, 21, 15]
29.146[19, 21, 26, 31, 29, 18, 22, 17]
29.16[18, 21, 24, 28, 31, 17, 23, 18]
29.183[20, 21, 24, 28, 31, 18, 20, 18]
29.206[20, 20, 24, 26, 31, 18, 20, 19]
29.22[19, 19, 21, 26, 33, 19, 22, 19]
29.243[20, 19, 20, 24, 30, 20, 20, 19]
29.266[20, 18, 17, 25, 30, 20, 19, 17]
29.28[19, 21, 22, 29, 31, 21, 21, 18]
29.303[19, 20, 22, 29, 30, 20, 21, 17]
29.326[19, 21, 23, 31, 31, 19, 20, 17]
29.34[19, 21, 23, 32, 33, 19, 20, 16]
29.363[20, 21, 24, 36, 32, 18, 19, 17]
29.386[20, 17, 20, 30, 31, 17, 16, 18]
29.4[20, 19, 21, 31, 30, 18, 17, 17]
29.423[19, 19, 20, 29, 29, 19, 17, 19]
29.446[19, 20, 22, 28, 28, 19, 18, 18]
29.46[19, 20, 22, 28, 31, 20, 18, 19]
29.483[21, 21, 22, 33, 33, 19, 17, 18]
29.506[21, 21, 23, 33, 32, 19, 18, 18]
29.52[22, 23, 25, 34, 35, 18, 18, 17]
29.551[22, 22, 24, 41, 42, 19, 16, 18]
29.566[21, 21, 24, 45, 44, 21, 18, 17]
29.58[18, 21, 23, 44, 43, 21, 19, 17]
29.603[19, 21, 22, 44, 44, 21, 18, 17]
29.626[18, 20, 21, 43, 41, 20, 17, 18]
29.64[18, 21, 21, 37, 36, 21, 18, 17]
29.663[18, 21, 23, 29, 29, 19, 17, 19]
29.686[19, 22, 26, 27, 28, 31, 18, 19]
29.7[18, 22, 26, 29, 26, 44, 22, 21]
29.723[19, 21, 27, 29, 34, 74, 29, 26]
29.746[20, 21, 30, 31, 36, 80, 32, 26]
29.768[20, 20, 28, 32, 36, 81, 31, 26]
29.783[23, 24, 31, 55, 64, 137, 46, 29]
29.806[30, 39, 39, 59, 80, 183, 67, 39]
29.836[30, 40, 39, 63, 88, 182, 67, 38]
29.843[30, 41, 39, 66, 91, 185, 68, 38]
29.866[31, 45, 41, 68, 93, 188, 69, 39]
29.889[32, 47, 40, 59, 93, 170, 69, 40]
29.903[27, 40, 35, 62, 99, 125, 51, 31]
29.926[27, 40, 36, 60, 92, 114, 53, 31]
29.949[27, 43, 35, 64, 99, 111, 51, 32]
29.963[26, 42, 35, 77, 133, 120, 51, 33]
29.986[22, 40, 35, 73, 129, 98, 42, 31]
30.009[24, 39, 33, 70, 124, 98, 44, 30]
30.023[29, 39, 33, 75, 130, 102, 51, 146]
30.046[31, 40, 40, 100, 168, 121, 58, 158]
30.068[33, 38, 42, 92, 145, 122, 60, 161]
30.083[34, 38, 41, 94, 145, 121, 58, 165]
30.106[31, 35, 41, 101, 152, 114, 57, 167]
30.128[28, 39, 43, 101, 152, 114, 47, 88]
30.143[26, 37, 35, 75, 124, 97, 36, 62]
30.166[27, 37, 34, 83, 150, 84, 52, 152]
30.189[27, 36, 33, 81, 148, 81, 54, 158]
30.203[28, 35, 35, 81, 147, 79, 61, 161]
30.226[32, 33, 36, 84, 162, 100, 76, 195]
30.249[39, 32, 37, 82, 152, 104, 92, 225]
30.263[37, 31, 36, 75, 127, 103, 83, 181]
30.287[38, 38, 36, 74, 130, 108, 87, 223]
30.308[45, 47, 38, 77, 129, 114, 84, 236]
30.323[43, 49, 35, 70, 113, 103, 73, 213]
30.346[40, 56, 33, 71, 111, 92, 56, 187]
30.368[49, 56, 38, 76, 113, 103, 59, 182]
30.383[58, 56, 38, 77, 108, 99, 57, 146]
30.406[64, 72, 36, 71, 130, 96, 65, 180]
30.429[67, 80, 36, 71, 126, 96, 67, 190]
30.443[66, 79, 36, 75, 131, 106, 71, 189]
30.466[60, 80, 35, 75, 133, 117, 72, 190]
30.488[53, 79, 35, 78, 138, 117, 83, 211]
30.503[46, 65, 36, 87, 131, 128, 92, 220]
30.526[41, 53, 35, 85, 129, 127, 96, 220]
30.549[45, 48, 35, 83, 144, 121, 101, 242]
30.563[49, 48, 35, 87, 169, 108, 108, 308]
30.586[45, 51, 37, 87, 171, 107, 98, 288]
30.608[39, 49, 35, 75, 154, 102, 84, 253]
30.623[39, 49, 37, 77, 165, 99, 78, 243]
30.647[44, 51, 38, 77, 156, 100, 84, 357]
30.668[41, 51, 35, 67, 128, 93, 78, 324]
30.691[41, 49, 32, 67, 127, 91, 82, 330]
30.706[44, 55, 33, 77, 169, 74, 82, 332]
30.729[59, 57, 35, 79, 168, 71, 118, 447]
30.751[58, 60, 37, 77, 164, 69, 119, 388]
30.766[58, 63, 36, 75, 162, 67, 125, 383]
30.788[58, 58, 42, 103, 199, 95, 123, 378]
30.811[56, 46, 42, 100, 173, 105, 120, 375]
30.827[42, 42, 40, 97, 170, 111, 91, 274]
30.849[39, 34, 41, 100, 180, 120, 82, 257]
30.871[37, 26, 43, 103, 181, 129, 70, 240]
30.886[39, 27, 40, 70, 146, 117, 75, 238]
30.908[40, 30, 43, 78, 140, 124, 74, 234]
30.931[37, 33, 42, 78, 137, 119, 66, 176]
30.945[35, 34, 43, 73, 120, 115, 65, 175]
30.968[38, 33, 41, 74, 117, 114, 64, 186]
30.991[34, 34, 43, 78, 110, 113, 58, 178]
31.005[34, 33, 40, 75, 109, 110, 61, 179]
31.028[35, 39, 39, 77, 102, 108, 64, 181]
31.051[31, 38, 40, 79, 110, 100, 54, 114]
31.066[26, 37, 40, 76, 118, 91, 51, 77]
31.088[25, 42, 42, 81, 117, 109, 50, 73]
31.111[24, 49, 40, 78, 121, 117, 48, 65]
31.125[32, 44, 41, 83, 139, 139, 61, 152]
31.148[29, 45, 40, 115, 168, 145, 59, 155]
31.171[30, 47, 51, 138, 185, 184, 63, 161]
31.185[30, 47, 55, 140, 187, 192, 68, 164]
31.208[34, 43, 56, 142, 183, 185, 71, 190]
31.231[39, 49, 62, 149, 189, 188, 76, 223]
31.245[44, 49, 61, 129, 161, 208, 102, 273]
31.268[63, 52, 54, 118, 159, 186, 105, 292]
31.292[69, 49, 55, 125, 171, 173, 103, 296]
31.305[69, 48, 57, 140, 205, 195, 120, 330]
31.328[64, 46, 55, 143, 216, 185, 119, 317]
31.351[61, 53, 71, 170, 243, 213, 109, 277]
31.365[45, 53, 76, 165, 232, 210, 108, 262]
31.389[37, 55, 71, 161, 250, 209, 112, 281]
31.41[35, 58, 71, 153, 249, 200, 97, 229]
31.433[38, 57, 72, 167, 257, 204, 94, 219]
31.449[48, 52, 57, 150, 241, 158, 94, 245]
31.47[47, 63, 68, 174, 261, 196, 105, 262]
31.493[47, 59, 70, 181, 265, 216, 103, 251]
31.509[49, 57, 71, 190, 280, 221, 102, 259]
31.53[51, 59, 78, 193, 268, 230, 106, 240]
31.552[49, 62, 89, 197, 275, 244, 107, 229]
31.577[48, 49, 76, 181, 265, 218, 94, 207]
31.59[48, 50, 78, 179, 261, 206, 97, 196]
31.613[51, 52, 81, 183, 245, 205, 105, 216]
31.637[45, 47, 83, 215, 312, 272, 108, 207]
31.65[38, 38, 70, 203, 299, 254, 96, 192]
31.673[37, 39, 76, 213, 315, 294, 103, 188]
31.689[38, 42, 77, 218, 313, 300, 104, 184]
31.718[41, 45, 72, 210, 303, 296, 95, 154]
31.733[46, 44, 64, 167, 277, 228, 81, 155]
31.749[48, 44, 67, 190, 309, 250, 85, 152]
31.771[49, 49, 68, 175, 300, 211, 80, 146]
31.793[49, 56, 66, 168, 292, 197, 73, 142]
31.809[44, 60, 78, 206, 343, 226, 76, 123]
31.83[40, 62, 78, 207, 316, 235, 74, 82]
31.854[50, 64, 83, 205, 297, 231, 83, 218]
31.869[49, 61, 82, 206, 292, 220, 82, 231]
31.89[49, 55, 85, 207, 292, 231, 84, 234]
31.914[48, 44, 79, 172, 230, 204, 83, 239]
31.929[51, 43, 80, 164, 208, 184, 92, 281]
31.951[45, 48, 92, 173, 210, 245, 102, 221]
31.973[46, 51, 94, 224, 225, 246, 105, 212]
31.989[43, 47, 94, 236, 226, 242, 105, 211]
32.01[43, 49, 93, 246, 245, 249, 108, 215]
32.033[43, 57, 91, 258, 266, 250, 101, 189]
32.049[39, 56, 77, 262, 288, 179, 92, 190]
32.07[41, 62, 97, 221, 276, 179, 87, 188]
32.1[43, 63, 96, 207, 275, 163, 84, 188]
32.109[44, 62, 91, 186, 249, 148, 73, 176]
32.132[38, 54, 99, 172, 233, 165, 74, 142]
32.153[43, 59, 93, 169, 230, 158, 63, 115]
32.169[43, 76, 72, 186, 230, 164, 65, 111]
32.19[42, 86, 75, 207, 218, 164, 66, 110]
32.213[41, 94, 74, 208, 218, 154, 68, 110]
32.228[41, 94, 64, 198, 211, 132, 66, 128]
32.251[35, 90, 82, 199, 186, 128, 73, 146]
32.273[40, 69, 74, 243, 191, 111, 94, 206]
32.288[50, 59, 71, 240, 204, 119, 96, 213]
32.311[49, 47, 77, 261, 209, 118, 95, 213]
32.332[50, 48, 79, 264, 213, 142, 98, 204]
32.349[49, 41, 64, 245, 202, 133, 87, 172]
32.371[50, 40, 66, 199, 186, 130, 78, 123]
32.393[50, 46, 80, 193, 177, 141, 78, 132]
32.408[55, 43, 75, 168, 166, 142, 84, 175]
32.43[59, 43, 75, 164, 173, 140, 87, 183]
32.453[59, 46, 77, 163, 160, 151, 90, 186]
32.475[52, 47, 75, 156, 213, 154, 73, 167]
32.498[44, 37, 57, 142, 225, 140, 70, 150]
32.513[38, 40, 56, 132, 231, 134, 67, 104]
32.528[29, 36, 52, 138, 232, 114, 50, 85]
32.55[34, 39, 48, 136, 237, 119, 54, 138]
32.573[37, 39, 53, 138, 204, 113, 54, 138]
32.595[39, 45, 65, 150, 203, 126, 59, 139]
32.61[36, 43, 67, 161, 200, 127, 54, 134]
32.641[38, 48, 70, 171, 221, 131, 57, 134]
32.655[33, 44, 72, 165, 215, 125, 54, 80]
32.67[31, 44, 66, 145, 202, 127, 58, 81]
32.693[39, 43, 72, 150, 198, 122, 59, 142]
32.715[42, 43, 73, 149, 198, 132, 63, 149]
32.73[43, 40, 76, 135, 170, 128, 63, 151]
32.753[41, 39, 74, 144, 179, 125, 61, 146]
32.775[41, 37, 78, 174, 203, 148, 64, 145]
32.79[32, 36, 74, 164, 191, 157, 67, 84]
32.813[31, 39, 78, 182, 191, 152, 66, 73]
32.835[31, 40, 73, 188, 192, 155, 69, 132]
32.85[34, 42, 76, 189, 194, 154, 69, 142]
32.874[35, 44, 75, 174, 176, 188, 74, 142]
32.896[33, 40, 62, 163, 172, 179, 68, 140]
32.91[32, 37, 65, 166, 188, 178, 71, 140]
32.933[29, 34, 64, 154, 177, 205, 76, 85]
32.955[31, 35, 64, 152, 159, 202, 88, 164]
32.971[31, 30, 59, 142, 138, 154, 81, 174]
32.993[38, 38, 65, 185, 187, 146, 84, 182]
33.016[39, 40, 60, 171, 172, 150, 82, 186]
33.03[39, 43, 60, 183, 178, 115, 77, 184]
33.053[36, 40, 62, 184, 194, 145, 70, 157]
33.075[38, 42, 66, 188, 214, 142, 67, 150]
33.09[33, 43, 65, 175, 169, 141, 61, 141]
33.112[34, 41, 59, 166, 159, 134, 75, 158]
33.135[40, 40, 62, 154, 155, 131, 92, 207]
33.152[42, 44, 57, 159, 155, 92, 91, 191]
33.173[44, 44, 54, 155, 148, 93, 97, 219]
33.195[44, 38, 53, 123, 147, 105, 101, 221]
33.21[42, 40, 62, 139, 157, 111, 90, 207]
33.232[44, 47, 72, 159, 188, 142, 72, 161]
33.255[44, 47, 74, 150, 181, 168, 71, 141]
33.27[39, 46, 76, 157, 185, 172, 60, 76]
33.293[39, 47, 73, 156, 191, 177, 61, 75]
33.315[38, 44, 68, 136, 187, 180, 62, 69]
33.33[31, 34, 56, 115, 157, 159, 59, 59]
33.353[26, 29, 56, 116, 160, 144, 56, 55]
33.375[26, 34, 60, 97, 138, 136, 57, 53]
33.39[23, 33, 59, 87, 152, 127, 50, 38]
33.413[25, 35, 56, 80, 148, 116, 48, 37]
33.435[27, 35, 58, 84, 147, 122, 65, 52]
33.451[31, 36, 64, 112, 141, 115, 64, 52]
33.473[36, 33, 62, 123, 155, 123, 67, 134]
33.495[37, 33, 62, 123, 129, 128, 68, 144]
33.51[37, 33, 61, 131, 166, 128, 67, 146]
33.533[36, 31, 59, 126, 159, 114, 50, 143]
33.563[34, 29, 45, 94, 155, 111, 47, 144]
33.578[31, 27, 44, 91, 151, 133, 55, 79]
33.593[29, 29, 45, 104, 172, 132, 62, 66]
33.615[28, 27, 46, 104, 142, 132, 62, 62]
33.638[25, 27, 41, 106, 142, 126, 63, 58]
33.662[35, 28, 47, 108, 141, 135, 64, 52]
33.675[33, 29, 50, 106, 151, 115, 52, 46]
33.698[33, 29, 48, 98, 134, 99, 40, 31]
33.713[32, 28, 47, 91, 161, 108, 41, 28]
33.735[33, 29, 49, 87, 164, 106, 38, 25]
33.758[25, 33, 49, 87, 166, 93, 34, 25]
33.773[25, 31, 43, 79, 150, 89, 36, 26]
33.795[26, 31, 43, 69, 151, 97, 49, 37]
33.818[27, 36, 57, 94, 144, 131, 55, 41]
33.833[28, 39, 58, 116, 157, 141, 55, 42]
33.855[26, 37, 54, 118, 158, 140, 54, 42]
33.878[26, 38, 61, 130, 195, 201, 60, 43]
33.893[25, 40, 63, 132, 191, 204, 52, 34]
33.915[26, 37, 63, 116, 183, 188, 51, 31]
33.938[24, 32, 61, 94, 180, 190, 52, 31]
33.953[24, 33, 68, 106, 202, 193, 54, 32]
33.983[26, 63, 65, 102, 174, 157, 51, 28]
33.998[26, 77, 65, 100, 177, 150, 49, 26]
34.013[27, 78, 56, 109, 167, 139, 45, 24]
34.036[27, 78, 58, 108, 155, 144, 44, 23]
34.059[28, 77, 49, 91, 138, 143, 45, 23]
34.073[27, 57, 52, 119, 152, 110, 41, 27]
34.095[32, 36, 59, 141, 169, 128, 49, 38]
34.119[31, 34, 60, 135, 186, 142, 54, 41]
34.133[34, 34, 59, 146, 202, 129, 63, 123]
34.155[34, 34, 59, 147, 200, 129, 62, 140]
34.179[34, 34, 61, 120, 197, 151, 62, 142]
34.193[31, 31, 51, 101, 188, 137, 67, 147]
34.215[31, 28, 46, 101, 181, 126, 64, 147]
34.239[28, 29, 50, 95, 168, 137, 56, 94]
34.253[28, 29, 50, 97, 154, 133, 55, 68]
34.275[28, 29, 49, 101, 138, 109, 60, 89]
34.298[34, 29, 52, 97, 125, 123, 73, 146]
34.313[36, 35, 58, 105, 117, 133, 78, 158]
34.335[38, 42, 75, 127, 129, 153, 85, 159]
34.358[38, 44, 82, 131, 141, 158, 88, 162]
34.373[36, 44, 78, 135, 166, 156, 84, 150]
34.395[31, 45, 78, 138, 173, 144, 61, 84]
34.418[29, 45, 75, 130, 173, 136, 53, 59]
34.433[25, 36, 55, 105, 164, 109, 41, 49]
34.455[26, 33, 47, 99, 161, 99, 43, 46]
34.478[27, 33, 46, 83, 136, 105, 47, 44]
34.501[27, 33, 55, 110, 153, 110, 50, 44]
34.515[28, 30, 61, 118, 161, 114, 55, 44]
34.538[28, 33, 72, 130, 175, 137, 60, 46]
34.561[26, 34, 75, 130, 171, 146, 57, 37]
34.575[27, 35, 82, 140, 189, 187, 62, 35]
34.598[27, 32, 83, 127, 180, 200, 64, 35]
34.629[26, 31, 82, 128, 177, 221, 69, 42]
34.635[25, 31, 75, 121, 160, 212, 72, 48]
34.659[25, 31, 71, 120, 161, 207, 70, 48]
34.681[25, 32, 63, 109, 136, 180, 65, 49]
34.695[24, 31, 55, 97, 121, 164, 60, 47]
34.719[25, 31, 47, 90, 125, 124, 48, 38]
34.741[24, 30, 44, 90, 147, 117, 37, 27]
34.755[24, 29, 46, 101, 160, 119, 35, 25]
34.779[22, 27, 48, 104, 171, 99, 36, 25]
34.801[24, 28, 46, 101, 173, 90, 41, 31]
34.815[21, 28, 47, 95, 183, 93, 51, 42]
34.839[29, 27, 45, 88, 171, 77, 55, 85]
34.861[33, 29, 47, 73, 153, 74, 61, 135]
34.875[34, 30, 42, 79, 148, 75, 60, 140]
34.906[35, 36, 45, 76, 145, 103, 57, 141]
34.928[36, 37, 46, 77, 140, 108, 53, 140]
34.935[30, 36, 44, 79, 145, 114, 47, 120]
34.958[28, 35, 43, 93, 150, 112, 40, 62]
34.981[26, 34, 43, 87, 140, 110, 39, 49]
34.995[24, 27, 42, 90, 144, 87, 46, 54]
35.018[22, 26, 43, 94, 117, 80, 41, 50]
35.041[22, 26, 43, 94, 103, 72, 41, 46]
35.055[21, 28, 47, 87, 112, 107, 41, 43]
35.079[22, 28, 48, 80, 110, 107, 45, 44]
35.101[23, 30, 47, 80, 114, 110, 38, 28]
35.115[24, 29, 48, 79, 114, 126, 42, 29]
35.139[24, 31, 50, 87, 136, 137, 46, 29]
35.161[23, 31, 54, 123, 164, 142, 52, 30]
35.183[24, 33, 68, 145, 180, 181, 61, 33]
35.206[23, 33, 75, 150, 192, 183, 63, 33]
35.221[23, 33, 73, 146, 192, 176, 62, 31]
35.235[23, 31, 72, 137, 180, 169, 58, 31]
35.259[24, 30, 66, 112, 156, 161, 56, 28]
35.281[22, 28, 52, 102, 169, 116, 42, 23]
35.295[22, 27, 44, 101, 162, 127, 41, 23]
35.318[21, 27, 42, 113, 177, 121, 40, 23]
35.341[20, 31, 45, 114, 175, 120, 43, 25]
35.355[19, 30, 45, 109, 166, 107, 41, 27]
35.379[24, 35, 46, 109, 160, 121, 44, 26]
35.401[25, 33, 48, 109, 153, 106, 40, 25]
35.423[29, 38, 60, 109, 146, 111, 41, 28]
35.439[30, 37, 61, 110, 144, 110, 38, 26]
35.461[31, 39, 60, 115, 155, 108, 35, 26]
35.483[28, 34, 56, 109, 148, 91, 31, 26]
35.498[27, 37, 58, 111, 158, 95, 33, 27]
35.521[25, 31, 47, 112, 161, 88, 31, 25]
35.543[24, 28, 46, 115, 164, 89, 32, 26]
35.558[26, 32, 47, 108, 158, 83, 33, 25]
35.581[26, 32, 49, 103, 154, 85, 33, 26]
35.603[25, 31, 41, 100, 144, 79, 29, 24]
35.618[25, 31, 39, 95, 146, 78, 30, 23]
35.641[26, 34, 44, 116, 145, 81, 31, 23]
35.663[23, 27, 43, 137, 140, 76, 27, 23]
35.679[24, 31, 44, 140, 137, 79, 30, 25]
35.701[24, 28, 46, 144, 137, 84, 32, 26]
35.723[26, 32, 58, 147, 115, 85, 33, 26]
35.739[26, 29, 56, 130, 115, 83, 34, 28]
35.761[26, 30, 59, 115, 133, 92, 35, 27]
35.783[27, 29, 60, 110, 125, 97, 35, 27]
35.799[26, 32, 59, 102, 145, 91, 36, 25]
35.821[26, 31, 55, 96, 149, 92, 37, 29]
35.843[27, 33, 55, 101, 164, 96, 39, 29]
35.858[29, 39, 61, 114, 170, 98, 42, 31]
35.881[28, 41, 65, 132, 198, 106, 43, 30]
35.903[29, 39, 68, 148, 216, 109, 43, 30]
35.918[30, 41, 69, 177, 229, 116, 55, 41]
35.941[28, 43, 88, 181, 228, 120, 57, 40]
35.965[27, 39, 87, 167, 215, 115, 56, 39]
35.978[29, 39, 84, 160, 203, 105, 54, 41]
36.001[29, 42, 85, 145, 171, 107, 55, 41]
36.023[29, 46, 89, 123, 168, 111, 45, 31]
36.038[29, 44, 78, 139, 158, 111, 40, 32]
36.061[28, 47, 95, 147, 166, 123, 41, 33]
36.083[25, 45, 102, 141, 147, 121, 42, 33]
36.098[23, 42, 101, 154, 137, 113, 40, 33]
36.129[23, 36, 98, 145, 125, 112, 39, 28]
36.143[24, 39, 96, 119, 116, 108, 37, 26]
36.157[24, 35, 77, 131, 132, 96, 35, 24]
36.181[25, 33, 69, 143, 135, 97, 41, 36]
36.203[27, 36, 70, 145, 131, 97, 43, 38]
36.218[25, 34, 62, 150, 139, 87, 41, 38]
36.241[28, 32, 59, 160, 139, 96, 48, 41]
36.264[29, 32, 52, 143, 118, 93, 48, 41]
36.278[31, 42, 74, 134, 131, 106, 45, 34]
36.308[31, 42, 77, 121, 145, 123, 49, 35]
36.324[34, 44, 78, 118, 142, 126, 50, 37]
36.338[31, 43, 79, 112, 148, 125, 46, 34]
36.362[31, 43, 82, 138, 167, 142, 48, 33]
36.383[27, 34, 63, 137, 177, 135, 42, 28]
36.407[29, 35, 64, 142, 174, 138, 41, 28]
36.429[26, 33, 60, 137, 161, 134, 38, 27]
36.443[27, 35, 82, 158, 189, 194, 55, 30]
36.465[27, 35, 80, 147, 174, 183, 55, 32]
36.481[29, 39, 89, 162, 154, 192, 58, 33]
36.502[24, 34, 85, 160, 147, 180, 56, 33]
36.525[28, 40, 95, 160, 157, 179, 56, 33]
36.542[25, 38, 74, 139, 124, 115, 41, 29]
36.563[26, 37, 73, 128, 115, 111, 37, 25]
36.587[26, 33, 67, 103, 116, 85, 33, 24]
36.602[28, 36, 81, 107, 128, 82, 30, 20]
36.623[25, 30, 68, 124, 137, 82, 29, 20]
36.645[26, 28, 70, 120, 130, 65, 26, 19]
36.661[26, 30, 72, 121, 136, 81, 32, 22]
36.683[23, 30, 66, 123, 143, 79, 35, 24]
36.705[24, 31, 58, 132, 138, 84, 38, 27]
36.722[25, 30, 60, 112, 124, 84, 52, 42]
36.743[25, 31, 59, 125, 138, 91, 50, 41]
36.765[24, 29, 57, 133, 142, 80, 49, 41]
36.782[25, 31, 61, 132, 137, 81, 47, 42]
36.804[25, 28, 51, 113, 133, 85, 47, 42]
36.825[26, 28, 54, 112, 131, 92, 32, 28]
36.848[25, 28, 49, 96, 118, 88, 32, 28]
36.863[24, 29, 49, 89, 104, 84, 31, 27]
36.892[25, 34, 58, 99, 131, 118, 44, 36]
36.901[25, 34, 61, 98, 131, 112, 46, 39]
36.924[23, 34, 58, 102, 135, 114, 46, 37]
36.945[26, 36, 67, 105, 148, 122, 50, 38]
36.961[25, 37, 75, 117, 162, 124, 51, 38]
36.983[28, 35, 70, 108, 143, 103, 43, 29]
37.005[27, 34, 70, 111, 160, 121, 43, 25]
37.022[27, 34, 70, 107, 157, 112, 44, 26]
37.043[25, 32, 62, 107, 141, 103, 40, 24]
37.065[25, 29, 53, 94, 144, 102, 41, 24]
37.081[23, 25, 54, 107, 139, 97, 39, 22]
37.103[23, 24, 48, 104, 116, 75, 46, 36]
37.126[23, 25, 47, 112, 117, 80, 46, 36]
37.141[24, 24, 47, 107, 112, 76, 44, 36]
37.17[26, 26, 46, 102, 87, 83, 44, 36]
37.186[26, 29, 39, 95, 105, 89, 43, 36]
37.202[29, 31, 45, 114, 126, 88, 33, 21]
37.223[30, 37, 56, 111, 136, 86, 33, 23]
37.245[30, 40, 58, 116, 142, 95, 38, 34]
37.262[29, 40, 60, 119, 146, 87, 37, 35]
37.283[27, 37, 60, 113, 134, 76, 36, 36]
37.313[25, 37, 57, 93, 123, 80, 35, 36]
37.327[24, 33, 54, 106, 124, 87, 34, 35]
37.342[24, 32, 54, 98, 128, 76, 30, 28]
37.365[24, 31, 53, 94, 135, 84, 31, 28]
37.387[24, 33, 56, 104, 147, 86, 32, 26]
37.404[24, 31, 56, 113, 144, 85, 31, 25]
37.425[24, 30, 48, 99, 144, 78, 30, 25]
37.449[23, 31, 42, 98, 164, 77, 31, 23]
37.464[23, 30, 44, 123, 160, 78, 31, 22]
37.493[22, 28, 41, 125, 163, 116, 36, 23]
37.508[23, 30, 42, 119, 164, 120, 37, 24]
37.523[23, 31, 44, 122, 154, 119, 38, 24]
37.547[23, 33, 53, 141, 130, 121, 49, 42]
37.568[23, 33, 49, 123, 125, 120, 49, 41]
37.591[25, 33, 51, 117, 101, 81, 45, 41]
37.605[24, 33, 54, 119, 90, 78, 44, 41]
37.637[25, 32, 56, 120, 93, 79, 44, 41]
37.643[23, 27, 53, 102, 88, 81, 28, 23]
37.665[24, 28, 55, 102, 87, 87, 28, 22]
37.688[22, 28, 52, 93, 85, 91, 31, 23]
37.703[24, 28, 53, 93, 88, 91, 31, 25]
37.727[23, 28, 57, 135, 121, 125, 35, 25]
37.748[24, 29, 55, 140, 139, 130, 39, 26]
37.763[25, 32, 56, 162, 143, 122, 38, 26]
37.785[26, 33, 56, 174, 188, 123, 37, 26]
37.808[26, 33, 53, 171, 190, 129, 37, 23]
37.824[26, 36, 60, 154, 183, 115, 37, 22]
37.845[25, 35, 59, 147, 173, 112, 38, 24]
37.868[23, 34, 66, 152, 188, 129, 41, 23]
37.883[22, 33, 66, 149, 141, 129, 41, 24]
37.913[21, 35, 72, 147, 138, 131, 41, 25]
37.927[21, 32, 63, 133, 128, 134, 42, 26]
37.943[23, 33, 64, 138, 135, 132, 39, 25]
37.965[25, 35, 57, 102, 107, 115, 36, 27]
37.988[26, 36, 63, 87, 111, 116, 39, 29]
38.003[29, 33, 55, 88, 126, 105, 38, 28]
38.025[29, 33, 49, 89, 149, 89, 34, 25]
38.048[28, 30, 47, 87, 149, 91, 35, 25]
38.063[25, 30, 43, 91, 162, 94, 35, 24]
38.085[24, 30, 38, 90, 166, 91, 30, 23]
38.108[21, 31, 38, 91, 155, 87, 30, 23]
38.123[20, 32, 39, 84, 126, 74, 31, 26]
38.146[20, 32, 39, 81, 126, 72, 31, 27]
38.168[22, 34, 51, 96, 114, 66, 31, 27]
38.183[21, 33, 49, 99, 114, 63, 39, 36]
38.213[22, 33, 52, 102, 115, 64, 42, 40]
38.228[21, 34, 58, 105, 113, 68, 41, 38]
38.243[24, 37, 67, 148, 115, 66, 39, 37]
38.265[23, 35, 64, 144, 120, 77, 39, 38]
38.288[23, 36, 66, 142, 113, 87, 33, 28]
38.31[23, 35, 64, 140, 119, 87, 30, 24]
38.325[25, 36, 61, 148, 139, 89, 32, 25]
38.348[24, 35, 52, 103, 133, 87, 32, 24]
38.37[23, 34, 47, 120, 124, 77, 31, 23]
38.386[24, 33, 42, 119, 121, 66, 30, 22]
38.408[25, 34, 41, 120, 125, 68, 28, 22]
38.43[24, 31, 41, 110, 108, 72, 26, 21]
38.445[24, 28, 42, 116, 100, 73, 27, 21]
38.468[24, 28, 44, 87, 103, 77, 30, 23]
38.49[27, 30, 53, 97, 132, 99, 32, 22]
38.505[25, 33, 56, 95, 123, 97, 33, 25]
38.528[26, 33, 55, 90, 123, 92, 35, 24]
38.55[26, 38, 61, 104, 136, 126, 43, 30]
38.565[26, 39, 64, 115, 149, 129, 43, 31]
38.588[26, 41, 71, 124, 143, 149, 56, 45]
38.611[25, 39, 74, 132, 151, 156, 58, 47]
38.625[26, 40, 75, 143, 167, 170, 59, 47]
38.648[28, 40, 74, 134, 165, 168, 60, 47]
38.67[27, 37, 71, 132, 171, 197, 68, 46]
38.685[24, 33, 58, 117, 166, 176, 59, 35]
38.707[25, 33, 52, 116, 189, 176, 58, 30]
38.73[23, 31, 48, 105, 169, 168, 57, 32]
38.745[19, 25, 36, 94, 166, 146, 48, 26]
38.767[21, 29, 36, 80, 150, 101, 35, 25]
38.79[23, 28, 34, 76, 151, 97, 47, 39]
38.805[22, 27, 39, 64, 109, 85, 47, 39]
38.827[28, 30, 46, 86, 123, 74, 47, 39]
38.85[28, 30, 54, 92, 120, 84, 47, 40]
38.865[27, 29, 60, 109, 123, 83, 46, 42]
38.887[26, 30, 63, 118, 127, 75, 31, 28]
38.91[26, 32, 62, 133, 146, 83, 32, 29]
38.925[22, 32, 63, 137, 153, 97, 35, 28]
38.947[25, 33, 57, 134, 147, 95, 38, 29]
38.979[25, 32, 51, 127, 156, 94, 36, 27]
38.985[25, 29, 47, 127, 149, 103, 37, 27]
39.008[26, 27, 44, 134, 179, 99, 36, 25]
39.03[30, 34, 46, 176, 176, 123, 38, 26]
39.045[30, 35, 53, 195, 189, 132, 44, 31]
39.067[30, 35, 53, 193, 186, 144, 48, 31]
39.09[29, 36, 52, 189, 198, 164, 52, 31]
39.105[28, 36, 54, 181, 165, 172, 53, 31]
39.127[24, 31, 61, 134, 167, 191, 61, 32]
39.15[21, 27, 55, 102, 158, 186, 57, 28]
39.165[20, 27, 57, 105, 152, 186, 56, 27]
39.188[20, 29, 58, 103, 135, 179, 54, 27]
39.21[21, 31, 57, 87, 127, 173, 52, 26]
39.233[21, 27, 41, 73, 105, 128, 47, 39]
39.256[25, 31, 45, 82, 126, 123, 50, 41]
39.27[26, 33, 41, 76, 125, 105, 48, 41]
39.293[29, 33, 47, 75, 116, 79, 46, 41]
39.307[30, 33, 47, 76, 118, 76, 47, 41]
39.33[29, 33, 48, 74, 119, 67, 38, 27]
39.353[26, 29, 43, 81, 105, 61, 31, 23]
39.368[25, 30, 46, 86, 108, 63, 32, 22]
39.39[22, 28, 39, 97, 109, 64, 32, 21]
39.413[21, 26, 41, 104, 108, 59, 40, 36]
39.427[20, 28, 40, 107, 112, 55, 38, 37]
39.45[18, 29, 39, 97, 111, 52, 37, 36]
39.473[19, 26, 32, 85, 100, 46, 36, 37]
39.488[19, 25, 30, 66, 91, 34, 34, 37]
39.511[32, 26, 28, 52, 86, 33, 73, 203]
39.534[37, 27, 26, 42, 77, 33, 95, 235]
39.556[38, 77, 26, 50, 81, 35, 104, 240]
39.57[39, 105, 29, 63, 91, 42, 106, 245]
39.593[39, 107, 29, 66, 93, 48, 107, 247]
39.608[31, 111, 28, 68, 96, 47, 89, 159]
39.631[28, 113, 27, 70, 95, 46, 79, 166]
39.653[30, 107, 28, 59, 76, 41, 76, 173]
39.667[27, 105, 24, 48, 82, 39, 93, 171]
39.69[26, 116, 32, 53, 86, 69, 95, 170]
39.713[32, 124, 35, 59, 86, 73, 94, 184]
39.727[41, 146, 35, 61, 88, 76, 97, 199]
39.75[41, 133, 33, 59, 84, 76, 91, 196]
39.773[41, 116, 34, 58, 70, 74, 72, 198]
39.787[42, 103, 28, 54, 83, 42, 69, 200]
39.811[36, 92, 23, 47, 89, 38, 61, 176]
39.833[27, 50, 24, 43, 86, 37, 51, 162]
39.847[30, 76, 24, 45, 90, 37, 64, 186]
39.87[33, 112, 25, 45, 90, 39, 68, 194]
39.893[45, 125, 25, 52, 85, 50, 68, 192]
39.908[49, 133, 28, 54, 80, 57, 69, 193]
39.93[47, 133, 26, 53, 86, 55, 60, 147]
39.954[46, 118, 29, 58, 89, 55, 46, 101]
39.967[46, 82, 29, 60, 100, 63, 66, 143]
39.99[38, 60, 30, 62, 101, 57, 78, 188]
40.013[34, 37, 31, 70, 105, 50, 77, 190]
40.027[35, 33, 32, 70, 102, 48, 76, 192]
40.05[41, 84, 29, 67, 105, 47, 75, 191]
40.073[43, 113, 28, 67, 95, 44, 57, 149]
40.087[42, 120, 25, 61, 92, 44, 39, 78]
40.111[45, 120, 22, 50, 87, 43, 55, 149]
40.133[49, 120, 25, 53, 90, 44, 56, 148]
40.156[41, 91, 25, 54, 91, 45, 57, 148]
40.171[39, 51, 26, 54, 91, 39, 54, 170]
40.193[45, 59, 27, 47, 80, 32, 55, 177]
40.224[41, 78, 27, 54, 96, 37, 38, 124]
40.231[35, 86, 25, 50, 95, 36, 36, 118]
40.253[37, 97, 26, 48, 84, 37, 36, 118]
40.276[46, 100, 24, 43, 79, 33, 48, 155]
40.291[44, 90, 25, 47, 81, 44, 51, 154]
40.321[46, 76, 25, 39, 64, 46, 52, 152]
40.336[49, 65, 24, 38, 63, 47, 54, 153]
40.351[50, 50, 24, 39, 67, 46, 54, 152]
40.373[41, 45, 26, 40, 68, 47, 38, 74]
40.396[34, 38, 24, 37, 64, 37, 33, 59]
40.411[30, 34, 24, 32, 54, 32, 30, 45]
40.433[24, 34, 24, 33, 58, 30, 25, 37]
40.456[19, 30, 23, 31, 56, 29, 26, 32]
40.47[21, 41, 21, 32, 54, 35, 29, 27]
40.493[25, 53, 20, 32, 60, 39, 40, 36]
40.516[26, 53, 19, 36, 62, 36, 38, 33]
40.53[26, 53, 19, 35, 51, 36, 38, 33]
40.553[28, 51, 21, 33, 48, 36, 39, 34]
40.576[28, 41, 21, 32, 47, 30, 34, 31]
40.59[25, 27, 20, 30, 37, 28, 20, 17]
40.613[24, 22, 20, 28, 36, 33, 22, 19]
40.636[23, 30, 21, 30, 43, 37, 24, 20]
40.65[21, 40, 21, 30, 42, 38, 25, 20]
40.673[18, 44, 22, 30, 44, 37, 25, 21]
40.696[16, 41, 28, 30, 44, 34, 25, 22]
40.71[16, 41, 29, 26, 40, 29, 24, 20]
40.733[15, 36, 29, 26, 31, 24, 23, 21]
40.756[17, 23, 27, 26, 31, 22, 19, 23]
40.77[16, 19, 29, 26, 30, 23, 22, 24]
40.794[17, 20, 23, 26, 35, 24, 23, 22]
40.816[17, 21, 22, 25, 35, 23, 23, 24]
40.83[19, 22, 21, 21, 35, 22, 21, 22]
40.853[17, 22, 21, 22, 34, 23, 21, 19]
40.876[19, 22, 20, 26, 45, 23, 20, 19]
40.89[19, 20, 21, 33, 44, 22, 20, 21]
40.913[20, 19, 22, 35, 49, 37, 27, 24]
40.936[20, 20, 24, 39, 52, 74, 32, 30]
40.95[21, 27, 28, 43, 58, 90, 38, 32]
40.973[21, 28, 28, 45, 54, 133, 41, 31]
40.996[23, 30, 28, 41, 51, 136, 41, 43]
41.01[23, 29, 28, 40, 47, 135, 39, 48]
41.033[26, 29, 26, 37, 45, 121, 35, 49]
41.056[25, 24, 23, 32, 35, 109, 30, 53]
41.07[26, 21, 21, 26, 27, 52, 26, 54]
41.094[28, 18, 22, 25, 27, 44, 26, 59]
41.116[29, 19, 23, 24, 25, 34, 23, 66]
41.138[27, 18, 23, 22, 21, 30, 24, 62]
41.153[27, 19, 22, 23, 22, 27, 22, 59]
41.176[25, 18, 22, 21, 26, 24, 21, 58]
41.198[22, 19, 21, 21, 27, 21, 20, 45]
41.213[21, 20, 18, 18, 26, 23, 18, 23]
41.236[20, 20, 19, 21, 25, 23, 16, 22]
41.258[19, 18, 19, 19, 24, 23, 18, 22]
41.273[19, 19, 20, 21, 23, 22, 19, 23]
41.296[22, 18, 23, 21, 22, 21, 19, 22]
41.318[19, 20, 23, 22, 25, 21, 22, 24]
41.333[19, 20, 22, 21, 25, 20, 23, 27]
41.356[19, 21, 21, 22, 29, 20, 23, 28]
41.378[21, 21, 21, 20, 26, 21, 21, 27]
41.393[18, 21, 17, 20, 25, 21, 20, 26]
41.416[20, 19, 21, 20, 24, 20, 18, 27]
41.437[21, 19, 21, 20, 24, 21, 19, 25]
41.454[20, 18, 22, 21, 20, 19, 19, 23]
41.476[19, 17, 21, 22, 20, 18, 19, 26]
41.498[21, 16, 23, 22, 21, 18, 19, 24]
41.514[20, 16, 21, 22, 23, 19, 19, 20]
41.535[19, 17, 22, 21, 22, 18, 18, 20]
41.557[21, 17, 23, 21, 23, 18, 18, 21]
41.574[20, 19, 24, 19, 24, 18, 21, 15]
41.595[20, 20, 23, 21, 24, 20, 21, 17]
41.617[21, 22, 22, 21, 26, 19, 20, 19]
41.634[21, 21, 22, 21, 28, 18, 22, 18]
41.655[20, 20, 20, 19, 27, 19, 21, 19]
41.677[21, 20, 20, 22, 27, 19, 19, 21]
41.694[19, 23, 22, 22, 28, 18, 22, 20]
41.715[19, 21, 24, 21, 24, 18, 23, 18]
41.738[19, 22, 23, 21, 22, 21, 24, 19]
41.754[19, 23, 22, 23, 23, 20, 24, 17]
41.775[17, 22, 21, 21, 21, 21, 25, 17]
41.797[16, 17, 20, 22, 19, 22, 21, 18]
41.814[16, 17, 20, 21, 20, 23, 24, 20]
41.835[16, 18, 22, 23, 26, 21, 23, 21]
41.857[15, 18, 29, 23, 26, 22, 24, 21]
41.874[17, 20, 30, 25, 27, 21, 22, 23]
41.903[18, 22, 30, 25, 28, 21, 23, 23]
41.917[18, 23, 29, 25, 27, 20, 21, 21]
41.934[18, 23, 30, 23, 21, 21, 16, 21]
41.955[19, 25, 24, 21, 20, 22, 17, 21]
41.978[20, 26, 26, 19, 20, 21, 19, 19]
41.994[22, 38, 26, 27, 25, 19, 20, 19]
42.015[23, 38, 25, 28, 26, 21, 22, 20]
42.037[23, 37, 27, 29, 26, 20, 22, 18]
42.06[23, 38, 38, 29, 26, 18, 22, 19]
42.076[23, 38, 41, 28, 27, 18, 20, 20]
42.098[20, 28, 42, 20, 23, 19, 20, 20]
42.12[19, 27, 42, 20, 21, 20, 17, 21]
42.135[19, 27, 39, 19, 24, 21, 17, 23]
42.158[18, 26, 27, 19, 24, 21, 18, 23]
42.181[17, 22, 20, 21, 22, 22, 19, 25]
42.195[17, 18, 17, 20, 24, 24, 19, 24]
42.217[16, 21, 18, 19, 24, 22, 19, 24]
42.24[19, 19, 21, 22, 23, 20, 20, 21]
42.255[19, 18, 22, 21, 24, 20, 19, 24]
42.277[19, 20, 22, 22, 24, 19, 18, 21]
42.3[19, 21, 21, 22, 23, 16, 16, 21]
42.315[20, 21, 23, 24, 24, 16, 15, 20]
42.337[19, 22, 20, 23, 25, 16, 16, 25]
42.36[18, 22, 19, 25, 22, 16, 14, 21]
42.375[24, 21, 19, 23, 22, 17, 15, 22]
42.397[24, 21, 21, 23, 21, 18, 17, 23]
42.42[23, 19, 20, 23, 21, 18, 19, 24]
42.435[24, 20, 20, 21, 23, 17, 18, 19]
42.457[23, 20, 22, 19, 24, 18, 20, 19]
42.48[18, 20, 23, 18, 26, 17, 20, 18]
42.496[20, 21, 22, 17, 27, 17, 20, 18]
42.518[20, 20, 21, 14, 25, 18, 19, 19]
42.54[19, 19, 21, 16, 25, 18, 20, 23]
42.555[21, 20, 21, 19, 25, 19, 19, 22]
42.577[22, 21, 22, 19, 22, 19, 18, 22]
42.6[20, 20, 22, 21, 22, 20, 17, 21]
42.615[19, 21, 23, 22, 22, 20, 18, 22]
42.637[21, 22, 24, 20, 20, 23, 18, 19]
42.66[20, 21, 21, 21, 21, 22, 19, 19]
42.676[18, 19, 19, 22, 22, 23, 21, 20]
42.698[18, 21, 20, 23, 22, 22, 20, 21]
42.738[20, 20, 20, 22, 23, 21, 21, 19]
42.739[18, 22, 18, 22, 23, 18, 23, 19]
42.757[18, 22, 21, 22, 22, 20, 21, 21]
42.78[19, 22, 21, 21, 22, 18, 20, 21]
42.795[20, 20, 23, 20, 23, 19, 21, 21]
42.818[20, 20, 24, 21, 23, 18, 20, 20]
42.84[20, 19, 24, 20, 23, 20, 19, 21]
42.855[20, 20, 24, 21, 23, 19, 18, 21]
42.877[19, 21, 25, 21, 23, 19, 19, 22]
42.9[18, 23, 22, 20, 20, 19, 18, 22]
42.915[18, 23, 22, 19, 20, 21, 18, 23]
42.938[18, 24, 24, 20, 20, 19, 18, 21]
42.96[18, 23, 23, 18, 23, 17, 18, 19]
42.975[19, 34, 23, 20, 24, 19, 17, 19]
42.997[21, 35, 25, 20, 25, 20, 18, 18]
43.02[21, 36, 24, 22, 25, 21, 19, 16]
43.043[21, 36, 22, 22, 28, 20, 18, 16]
43.057[23, 36, 21, 23, 27, 21, 17, 17]
43.08[21, 28, 22, 21, 24, 19, 16, 17]
43.111[19, 25, 22, 20, 23, 19, 15, 17]
43.118[23, 35, 24, 18, 22, 16, 15, 17]
43.14[23, 34, 24, 18, 19, 17, 16, 17]
43.163[22, 34, 25, 17, 19, 17, 17, 18]
43.178[22, 52, 27, 16, 19, 18, 20, 17]
43.201[25, 60, 27, 18, 20, 17, 19, 17]
43.222[21, 56, 25, 19, 19, 17, 18, 17]
43.238[23, 61, 26, 20, 20, 16, 19, 19]
43.26[24, 63, 25, 21, 21, 16, 19, 18]
43.291[24, 48, 21, 22, 23, 15, 19, 18]
43.298[21, 38, 20, 20, 22, 18, 19, 19]
43.32[21, 36, 20, 21, 24, 20, 20, 20]
43.342[20, 29, 18, 19, 22, 20, 19, 18]
43.358[20, 25, 19, 20, 22, 19, 20, 18]
43.38[20, 25, 21, 20, 20, 20, 18, 17]
43.403[19, 24, 25, 21, 25, 19, 19, 18]
43.418[19, 23, 29, 19, 26, 17, 18, 16]
43.44[19, 20, 29, 20, 27, 18, 17, 16]
43.462[17, 19, 29, 19, 26, 20, 18, 17]
43.478[16, 18, 29, 21, 27, 18, 17, 21]
43.5[16, 19, 26, 21, 24, 18, 16, 20]
43.523[17, 19, 23, 24, 23, 20, 19, 22]
43.538[17, 22, 21, 24, 23, 21, 21, 23]
43.56[17, 23, 22, 22, 24, 20, 20, 23]
43.583[18, 23, 20, 21, 25, 23, 22, 20]
43.597[19, 22, 19, 21, 24, 24, 23, 20]
43.62[21, 20, 20, 19, 23, 22, 20, 18]
43.643[20, 19, 22, 21, 24, 21, 20, 18]
43.658[21, 20, 21, 20, 21, 22, 20, 17]
43.68[21, 21, 21, 21, 20, 19, 19, 17]
43.703[21, 22, 23, 20, 21, 19, 18, 16]
43.717[20, 24, 20, 22, 20, 19, 18, 16]
43.74[21, 23, 19, 21, 19, 19, 19, 16]
43.763[23, 22, 20, 21, 22, 20, 18, 15]
43.777[23, 21, 20, 21, 22, 20, 19, 16]
43.8[23, 21, 19, 22, 23, 20, 20, 16]
43.823[21, 19, 20, 22, 24, 20, 20, 18]
43.837[20, 18, 21, 21, 24, 19, 18, 18]
43.86[17, 19, 21, 21, 23, 18, 18, 20]
43.883[16, 19, 22, 21, 25, 18, 20, 19]
43.897[17, 19, 23, 22, 24, 18, 18, 20]
43.92[19, 19, 22, 21, 24, 19, 20, 18]
43.943[21, 21, 21, 23, 25, 19, 19, 16]
43.966[21, 20, 22, 24, 25, 18, 21, 18]
43.98[21, 21, 21, 26, 24, 18, 18, 19]
44.002[20, 22, 21, 27, 22, 18, 19, 19]
44.026[19, 24, 23, 28, 21, 16, 18, 19]
44.04[19, 24, 23, 28, 23, 16, 17, 21]
44.063[20, 22, 23, 29, 23, 16, 16, 18]
44.086[19, 22, 26, 27, 23, 16, 16, 18]
44.108[19, 21, 24, 24, 24, 16, 16, 17]
44.123[20, 20, 23, 24, 24, 18, 18, 18]
44.153[20, 19, 23, 23, 20, 19, 19, 20]
44.16[19, 21, 23, 21, 22, 20, 20, 20]
44.183[21, 18, 22, 21, 22, 20, 20, 20]
44.206[20, 18, 23, 23, 24, 21, 21, 20]
44.22[22, 16, 24, 22, 25, 21, 18, 21]
44.243[22, 19, 24, 25, 26, 21, 18, 20]
44.266[24, 19, 24, 25, 26, 22, 19, 20]
44.28[24, 20, 24, 25, 27, 21, 19, 23]
44.302[24, 20, 23, 23, 25, 19, 18, 21]
44.326[22, 20, 21, 24, 25, 19, 19, 21]
44.34[22, 19, 20, 21, 25, 20, 20, 21]
44.363[21, 20, 20, 21, 27, 18, 22, 21]
44.386[21, 20, 21, 22, 26, 18, 23, 18]
44.4[20, 21, 20, 21, 29, 18, 22, 18]
44.422[20, 22, 21, 21, 28, 18, 21, 17]
44.446[20, 21, 22, 25, 30, 15, 21, 17]
44.46[19, 21, 22, 25, 29, 17, 19, 18]
44.483[17, 20, 19, 23, 30, 17, 19, 17]
44.506[17, 20, 21, 24, 27, 17, 20, 19]
44.52[20, 21, 20, 24, 30, 18, 22, 19]
44.542[19, 20, 19, 22, 29, 19, 21, 20]
44.565[20, 21, 21, 22, 30, 19, 21, 19]
44.58[20, 21, 22, 25, 30, 19, 20, 18]
44.602[20, 21, 22, 25, 30, 20, 20, 19]
44.626[17, 21, 22, 24, 29, 21, 19, 18]
44.64[17, 23, 21, 24, 30, 20, 19, 17]
44.662[15, 22, 19, 25, 27, 21, 19, 16]
44.693[14, 22, 20, 22, 27, 22, 18, 17]
44.7[15, 22, 19, 22, 29, 20, 20, 16]
44.723[17, 22, 19, 22, 27, 20, 20, 17]
44.754[18, 21, 21, 21, 25, 18, 20, 17]
44.76[21, 22, 22, 18, 25, 20, 20, 18]
44.791[22, 21, 22, 21, 26, 19, 20, 19]
44.806[21, 21, 21, 24, 28, 21, 18, 22]
44.82[20, 21, 22, 24, 27, 21, 17, 21]
44.843[21, 20, 21, 24, 26, 22, 17, 21]
44.866[20, 19, 21, 24, 25, 19, 16, 20]
44.888[19, 20, 19, 22, 24, 21, 17, 18]
44.903[20, 23, 18, 21, 21, 19, 15, 14]
44.926[21, 22, 18, 22, 22, 20, 16, 13]
44.948[19, 25, 20, 22, 23, 20, 17, 14]
44.963[19, 25, 20, 22, 23, 19, 18, 18]
44.986[20, 24, 20, 23, 24, 18, 18, 20]
45.008[19, 21, 20, 20, 24, 20, 19, 21]
45.031[17, 20, 21, 20, 24, 17, 20, 22]
45.046[19, 18, 20, 23, 24, 17, 22, 24]
45.068[18, 19, 20, 22, 26, 17, 21, 22]
45.083[19, 22, 20, 22, 23, 17, 22, 22]
45.106[19, 23, 21, 23, 23, 16, 24, 22]
45.128[21, 23, 20, 21, 23, 16, 23, 22]
45.143[21, 23, 21, 20, 25, 18, 21, 19]
45.166[21, 24, 23, 23, 25, 17, 22, 19]
45.188[20, 22, 23, 24, 25, 19, 21, 17]
45.203[20, 22, 23, 22, 27, 19, 17, 19]
45.226[22, 22, 24, 23, 26, 20, 18, 18]
45.248[22, 22, 27, 28, 33, 38, 30, 21]
45.263[21, 22, 29, 29, 37, 56, 33, 21]
45.286[21, 22, 30, 30, 39, 58, 33, 23]
45.308[21, 22, 29, 31, 37, 58, 35, 24]
45.324[19, 23, 30, 31, 38, 59, 35, 24]
45.346[18, 21, 27, 26, 32, 49, 25, 23]
45.368[19, 20, 22, 24, 26, 29, 20, 22]
45.383[17, 21, 20, 22, 24, 24, 20, 22]
45.405[16, 20, 24, 21, 25, 25, 17, 18]
45.428[15, 21, 22, 23, 25, 23, 15, 18]
45.442[16, 20, 22, 22, 22, 22, 17, 17]
45.466[17, 21, 22, 20, 22, 20, 20, 19]
45.489[17, 22, 22, 19, 24, 20, 18, 18]
45.502[17, 21, 20, 19, 22, 22, 22, 20]
45.526[18, 21, 22, 17, 22, 23, 22, 20]
45.548[18, 21, 20, 17, 22, 23, 21, 21]
45.562[16, 20, 21, 17, 20, 24, 21, 20]
45.586[17, 18, 22, 18, 20, 24, 21, 20]
45.608[18, 21, 23, 19, 21, 20, 17, 21]
45.623[18, 20, 22, 20, 23, 22, 18, 21]
45.646[17, 22, 23, 19, 24, 21, 18, 21]
45.668[18, 21, 23, 20, 24, 21, 15, 20]
45.682[19, 21, 22, 19, 24, 22, 18, 20]
45.706[18, 21, 23, 20, 24, 24, 19, 20]
45.728[19, 19, 23, 18, 22, 22, 20, 22]
45.742[19, 20, 21, 20, 21, 23, 19, 21]
45.766[19, 19, 23, 21, 22, 23, 21, 21]
45.788[18, 20, 23, 21, 21, 21, 18, 20]
45.803[17, 19, 20, 21, 21, 19, 18, 19]
45.826[18, 21, 22, 22, 20, 20, 16, 18]
45.848[18, 19, 23, 22, 21, 19, 17, 20]
45.871[20, 21, 20, 20, 20, 17, 17, 20]
45.886[20, 19, 21, 19, 20, 18, 19, 21]
45.908[21, 22, 22, 18, 22, 17, 18, 20]
45.931[20, 23, 22, 18, 22, 16, 18, 19]
45.946[20, 24, 22, 19, 22, 17, 20, 16]
45.968[18, 24, 23, 20, 24, 21, 19, 15]
45.991[19, 24, 24, 20, 23, 23, 19, 16]
46.006[20, 21, 22, 19, 21, 23, 19, 20]
46.029[20, 20, 23, 19, 22, 25, 20, 23]
46.051[19, 18, 23, 19, 22, 25, 18, 23]
46.066[20, 19, 24, 21, 21, 22, 19, 25]
46.088[20, 20, 20, 22, 20, 19, 19, 27]
46.111[19, 21, 22, 24, 23, 23, 20, 24]
46.126[19, 21, 23, 24, 23, 22, 20, 20]
46.148[21, 23, 22, 23, 23, 22, 20, 21]
46.171[20, 22, 22, 20, 23, 24, 21, 19]
46.186[18, 20, 24, 21, 23, 25, 22, 17]
46.208[21, 20, 23, 20, 23, 23, 21, 17]
46.231[20, 21, 22, 20, 22, 22, 20, 19]
46.246[18, 20, 22, 21, 20, 22, 20, 19]
46.268[19, 21, 22, 22, 21, 21, 18, 19]
46.291[19, 20, 20, 20, 23, 21, 17, 17]
46.305[17, 22, 20, 21, 22, 20, 14, 17]
46.328[19, 20, 20, 21, 24, 20, 16, 20]
46.351[20, 19, 18, 20, 24, 20, 16, 21]
46.365[21, 18, 17, 18, 23, 19, 18, 22]
46.388[21, 18, 18, 19, 22, 18, 19, 23]
46.411[22, 16, 19, 19, 23, 20, 22, 22]
46.425[21, 18, 19, 19, 21, 19, 20, 19]
46.448[21, 18, 19, 21, 22, 18, 21, 20]
46.47[20, 18, 21, 22, 23, 17, 20, 18]
46.492[19, 19, 22, 26, 26, 17, 20, 18]
46.509[18, 19, 21, 26, 23, 15, 19, 19]
46.53[19, 17, 20, 28, 24, 17, 20, 19]
46.552[19, 20, 20, 27, 23, 18, 20, 18]
46.569[19, 20, 19, 26, 24, 19, 17, 18]
46.59[19, 19, 18, 24, 20, 21, 18, 18]
46.62[20, 19, 18, 24, 21, 21, 18, 21]
46.629[18, 20, 19, 21, 20, 20, 18, 21]
46.65[17, 18, 19, 22, 21, 19, 20, 21]
46.672[16, 18, 20, 21, 20, 19, 20, 21]
46.689[16, 19, 20, 22, 22, 18, 21, 20]
46.71[16, 19, 21, 22, 23, 20, 23, 18]
46.732[16, 19, 20, 23, 23, 21, 22, 18]
46.749[16, 18, 21, 22, 23, 22, 21, 18]
46.771[17, 18, 20, 24, 23, 21, 22, 19]
46.793[17, 17, 19, 23, 21, 21, 24, 20]
46.809[17, 16, 21, 23, 20, 20, 22, 21]
46.83[17, 15, 21, 22, 22, 17, 23, 21]
46.852[17, 16, 22, 23, 23, 19, 23, 22]
46.869[17, 16, 22, 23, 24, 20, 23, 22]
46.89[18, 17, 22, 22, 23, 19, 20, 21]
46.912[19, 18, 20, 22, 23, 20, 22, 19]
46.929[19, 19, 21, 22, 23, 21, 21, 18]
46.95[19, 20, 22, 22, 22, 19, 21, 17]
46.972[19, 20, 23, 21, 21, 20, 22, 19]
46.989[20, 19, 23, 20, 22, 21, 21, 19]
47.01[19, 21, 23, 22, 20, 21, 19, 20]
47.032[18, 21, 23, 23, 20, 21, 20, 21]
47.049[17, 21, 23, 22, 19, 22, 21, 21]
47.07[17, 20, 22, 22, 20, 21, 19, 18]
47.092[18, 19, 22, 24, 20, 21, 19, 19]
47.107[21, 19, 22, 21, 21, 19, 20, 19]
47.13[21, 20, 20, 21, 22, 20, 19, 17]
47.152[21, 19, 19, 23, 22, 19, 18, 17]
47.167[21, 22, 19, 23, 21, 17, 18, 20]
47.19[19, 22, 21, 22, 21, 18, 18, 19]
47.213[17, 20, 20, 23, 21, 19, 17, 18]
47.227[18, 19, 21, 23, 23, 17, 17, 18]
47.25[19, 20, 22, 21, 22, 18, 18, 18]
47.273[19, 19, 22, 21, 23, 19, 17, 15]
47.287[18, 21, 22, 22, 22, 20, 19, 17]
47.31[18, 22, 23, 21, 22, 20, 21, 17]
47.332[16, 24, 22, 20, 19, 20, 22, 20]
47.348[15, 23, 22, 21, 19, 19, 22, 20]
47.37[15, 22, 22, 22, 19, 18, 22, 20]
47.392[14, 22, 21, 19, 20, 16, 22, 20]
47.408[15, 21, 20, 19, 19, 16, 21, 20]
47.43[16, 21, 19, 18, 21, 17, 20, 18]
47.452[17, 21, 20, 18, 21, 18, 20, 19]
47.467[19, 21, 19, 18, 21, 19, 21, 20]
47.49[20, 20, 18, 19, 20, 19, 21, 18]
47.512[18, 21, 18, 21, 21, 20, 20, 17]
47.527[20, 21, 21, 22, 19, 21, 19, 17]
47.55[18, 21, 20, 22, 19, 21, 19, 16]
47.573[18, 22, 21, 22, 20, 20, 19, 19]
47.587[17, 22, 23, 22, 20, 19, 19, 21]
47.61[19, 22, 24, 20, 19, 20, 21, 21]
47.632[18, 21, 23, 20, 20, 19, 22, 20]
47.647[21, 21, 24, 21, 20, 18, 22, 20]
47.67[20, 20, 22, 21, 18, 19, 22, 19]
47.692[21, 20, 23, 22, 17, 19, 20, 17]
47.707[20, 18, 22, 21, 18, 19, 18, 18]
47.73[21, 17, 22, 21, 17, 19, 17, 20]
47.761[20, 19, 21, 19, 17, 20, 17, 21]
47.775[20, 20, 23, 20, 17, 19, 16, 20]
47.79[19, 19, 21, 17, 16, 19, 19, 19]
47.813[21, 22, 23, 18, 16, 20, 20, 20]
47.835[20, 23, 21, 19, 17, 21, 22, 18]
47.85[19, 20, 21, 22, 19, 22, 21, 16]
47.872[19, 21, 21, 22, 19, 20, 20, 16]
47.895[19, 22, 22, 21, 19, 22, 18, 16]
47.91[18, 23, 20, 24, 19, 19, 19, 16]
47.933[18, 23, 22, 25, 19, 19, 18, 17]
47.955[18, 23, 23, 24, 19, 18, 21, 17]
47.97[19, 23, 22, 24, 19, 19, 24, 16]
47.992[20, 21, 22, 25, 20, 18, 24, 19]
48.015[19, 18, 22, 21, 18, 19, 23, 19]
48.03[19, 19, 21, 19, 18, 20, 23, 18]
48.052[19, 19, 19, 19, 18, 21, 21, 18]
48.075[17, 19, 21, 19, 19, 20, 19, 19]
48.09[16, 21, 20, 19, 18, 21, 19, 16]
48.112[16, 20, 21, 22, 19, 22, 19, 17]
48.135[16, 20, 21, 24, 19, 21, 19, 18]
48.15[17, 20, 22, 24, 18, 19, 19, 18]
48.172[18, 20, 20, 25, 18, 20, 20, 19]
48.195[19, 19, 21, 24, 18, 20, 20, 19]
48.21[18, 20, 20, 21, 18, 17, 19, 18]
48.232[19, 20, 23, 19, 21, 17, 21, 20]
48.255[19, 20, 23, 18, 20, 18, 21, 19]
48.27[20, 19, 23, 17, 19, 17, 18, 19]
48.292[17, 20, 23, 19, 19, 16, 18, 19]
48.315[18, 19, 24, 21, 19, 18, 19, 20]
48.33[18, 20, 22, 21, 17, 17, 16, 20]
48.352[17, 20, 22, 21, 19, 17, 15, 20]
48.375[19, 21, 20, 22, 19, 19, 19, 20]
48.39[20, 19, 19, 21, 21, 17, 18, 20]
48.412[20, 20, 16, 19, 21, 17, 18, 20]
48.435[19, 20, 16, 19, 21, 17, 18, 18]
48.45[20, 19, 16, 19, 20, 18, 19, 17]
48.472[18, 19, 19, 21, 19, 17, 17, 17]
48.495[19, 21, 19, 25, 20, 18, 16, 20]
48.51[20, 21, 20, 24, 20, 18, 17, 18]
48.532[21, 20, 22, 28, 20, 18, 19, 19]
48.555[18, 20, 21, 29, 21, 17, 19, 20]
48.57[19, 19, 20, 26, 21, 19, 19, 20]
48.592[19, 19, 21, 24, 22, 20, 19, 18]
48.615[18, 20, 21, 24, 21, 20, 19, 19]
48.63[17, 20, 22, 20, 22, 19, 18, 19]
48.652[19, 22, 22, 23, 20, 20, 17, 18]
48.675[19, 22, 22, 24, 21, 20, 17, 19]
48.697[19, 22, 23, 23, 19, 18, 19, 20]
48.712[19, 23, 24, 23, 20, 21, 19, 21]
48.736[21, 23, 22, 23, 20, 23, 19, 20]
48.757[20, 24, 23, 21, 21, 23, 19, 20]
48.772[21, 24, 23, 21, 22, 21, 20, 18]
48.795[20, 24, 23, 23, 23, 22, 18, 16]
48.817[19, 22, 24, 24, 21, 20, 18, 19]
48.833[18, 21, 23, 23, 21, 20, 18, 18]
48.855[19, 22, 22, 23, 21, 18, 19, 17]
48.877[16, 22, 22, 21, 20, 19, 18, 19]
48.892[17, 21, 21, 19, 20, 19, 19, 20]
48.915[18, 21, 20, 19, 21, 19, 18, 18]
48.938[19, 23, 22, 21, 20, 18, 19, 17]
48.953[18, 21, 24, 22, 20, 18, 19, 18]
48.975[19, 21, 23, 24, 22, 18, 20, 18]
48.998[17, 20, 23, 23, 22, 18, 18, 17]
49.012[17, 22, 26, 23, 21, 19, 18, 17]
49.035[19, 21, 24, 22, 21, 20, 17, 17]
49.058[19, 20, 23, 22, 20, 21, 16, 18]
49.073[20, 20, 23, 21, 20, 21, 16, 20]
49.095[21, 22, 23, 21, 20, 20, 18, 21]
49.118[20, 20, 23, 24, 21, 20, 18, 21]
49.132[18, 21, 23, 25, 20, 18, 20, 22]
49.155[17, 21, 24, 23, 21, 18, 21, 22]
49.178[15, 21, 24, 23, 20, 19, 19, 19]
49.192[16, 21, 24, 24, 21, 19, 19, 21]
49.215[16, 20, 20, 22, 20, 17, 21, 21]
49.238[16, 19, 20, 21, 23, 17, 19, 20]
49.252[18, 21, 20, 22, 22, 18, 19, 19]
49.275[19, 20, 18, 22, 22, 15, 20, 21]
49.298[18, 18, 21, 21, 23, 17, 20, 18]
49.312[19, 17, 21, 20, 22, 19, 19, 19]
49.343[19, 19, 24, 20, 20, 20, 19, 20]
49.358[17, 18, 22, 21, 22, 19, 20, 19]
49.372[17, 20, 22, 19, 22, 20, 19, 17]
49.395[18, 20, 21, 21, 23, 20, 19, 16]
49.418[18, 20, 22, 21, 24, 19, 19, 16]
49.432[18, 20, 21, 22, 23, 18, 19, 16]
49.455[20, 20, 22, 20, 20, 17, 18, 17]
49.479[20, 19, 24, 21, 19, 19, 18, 17]
49.496[22, 22, 24, 22, 19, 19, 19, 18]
49.515[21, 22, 24, 22, 20, 18, 18, 18]
49.538[21, 21, 23, 21, 21, 19, 18, 18]
49.561[20, 22, 22, 23, 20, 20, 18, 18]
49.576[18, 22, 20, 22, 24, 19, 19, 18]
49.598[16, 21, 21, 22, 23, 18, 18, 18]
49.612[16, 22, 21, 21, 21, 20, 19, 19]
49.638[18, 20, 20, 22, 23, 21, 19, 18]
49.658[17, 23, 20, 20, 23, 20, 20, 20]
49.681[19, 21, 21, 20, 20, 20, 18, 20]
49.695[19, 20, 19, 19, 20, 19, 18, 20]
49.718[20, 21, 20, 20, 22, 18, 18, 20]
49.741[20, 22, 19, 19, 20, 19, 18, 20]
49.755[21, 20, 22, 18, 22, 19, 20, 19]
49.778[21, 21, 23, 19, 21, 19, 21, 19]
49.8[20, 21, 23, 18, 22, 20, 21, 19]
49.815[20, 20, 21, 18, 19, 21, 20, 19]
49.838[20, 20, 22, 18, 22, 20, 24, 19]
49.861[19, 21, 20, 19, 23, 22, 23, 17]
49.875[19, 21, 18, 18, 22, 21, 22, 17]
49.898[21, 20, 20, 18, 23, 21, 22, 15]
49.921[19, 20, 20, 20, 25, 19, 24, 15]
49.935[19, 20, 20, 20, 24, 18, 18, 15]
49.958[19, 19, 21, 20, 22, 16, 18, 15]
49.981[19, 20, 20, 22, 23, 17, 19, 16]
49.995[18, 21, 18, 24, 21, 16, 18, 18]
50.018[20, 19, 19, 23, 21, 18, 17, 17]
50.041[22, 20, 18, 23, 19, 18, 17, 18]
50.055[22, 19, 17, 23, 20, 18, 16, 17]
50.078[22, 20, 17, 22, 19, 17, 16, 17]
50.1[21, 19, 17, 20, 19, 17, 18, 18]
50.115[20, 21, 17, 20, 17, 17, 17, 20]
50.138[19, 22, 20, 19, 19, 18, 18, 19]
50.16[19, 23, 21, 19, 18, 17, 17, 22]
50.175[18, 22, 21, 20, 19, 18, 19, 21]
50.198[19, 22, 22, 19, 20, 19, 16, 20]
50.221[20, 20, 22, 19, 21, 20, 17, 18]
50.235[18, 21, 22, 19, 20, 18, 18, 20]
50.258[18, 20, 22, 18, 20, 19, 20, 21]
50.281[19, 21, 22, 18, 19, 20, 18, 20]
50.295[17, 22, 22, 19, 20, 19, 21, 22]
50.318[19, 22, 23, 19, 19, 20, 21, 21]
50.341[19, 22, 21, 18, 18, 20, 20, 22]
50.355[19, 21, 20, 19, 20, 20, 20, 18]
50.378[19, 20, 22, 19, 21, 20, 19, 20]
50.4[20, 18, 21, 19, 19, 19, 17, 19]
50.415[18, 19, 22, 20, 20, 18, 18, 21]
50.438[18, 19, 23, 20, 21, 17, 17, 20]
50.461[19, 19, 24, 21, 20, 18, 16, 20]
50.475[18, 19, 22, 20, 20, 17, 17, 19]
50.506[18, 19, 23, 21, 21, 20, 18, 18]
50.52[18, 20, 21, 19, 22, 22, 17, 17]
50.535[19, 19, 20, 20, 22, 23, 18, 16]
50.558[19, 20, 20, 19, 22, 22, 19, 17]
50.58[19, 20, 21, 19, 21, 23, 19, 16]
50.603[20, 21, 22, 20, 20, 21, 18, 19]
50.619[19, 20, 22, 22, 19, 20, 22, 18]
50.64[18, 19, 23, 21, 18, 19, 22, 18]
50.663[17, 20, 21, 20, 17, 20, 22, 18]
50.678[19, 20, 19, 21, 18, 19, 23, 21]
50.7[17, 20, 17, 20, 19, 19, 24, 19]
50.723[17, 20, 18, 19, 18, 19, 21, 20]
50.738