[19, 19, 17, 22, 18, 18, 15, 16]
1.856[19, 18, 17, 21, 17, 18, 17, 16]
1.879[21, 18, 17, 21, 15, 18, 17, 17]
1.902[20, 18, 16, 22, 15, 16, 20, 17]
1.918[20, 17, 17, 20, 16, 17, 20, 17]
1.947[19, 15, 15, 21, 16, 18, 19, 20]
1.962[18, 15, 14, 21, 17, 18, 21, 20]
1.981[18, 16, 14, 21, 18, 19, 22, 20]
2.001[19, 17, 14, 20, 18, 19, 21, 20]
2.022[17, 17, 16, 20, 17, 19, 21, 19]
2.037[17, 18, 17, 18, 18, 19, 22, 16]
2.067[19, 19, 18, 21, 16, 19, 22, 18]
2.082[17, 19, 20, 19, 19, 17, 21, 19]
2.097[17, 20, 21, 20, 19, 17, 19, 18]
2.119[16, 21, 21, 22, 19, 20, 21, 18]
2.142[18, 21, 20, 22, 18, 18, 21, 18]
2.157[17, 21, 21, 18, 18, 19, 19, 18]
2.179[18, 21, 21, 18, 17, 20, 18, 19]
2.201[19, 21, 20, 17, 18, 20, 20, 20]
2.217[20, 21, 20, 18, 18, 17, 20, 21]
2.239[18, 22, 20, 18, 18, 18, 21, 21]
2.262[19, 21, 20, 19, 20, 19, 20, 20]
2.277[19, 19, 18, 20, 18, 20, 22, 19]
2.299[19, 17, 20, 20, 17, 22, 22, 19]
2.33[19, 17, 21, 17, 17, 22, 21, 17]
2.337[19, 15, 22, 16, 18, 23, 21, 20]
2.359[17, 15, 20, 18, 17, 22, 24, 21]
2.382[16, 18, 21, 19, 18, 21, 22, 20]
2.397[17, 18, 21, 19, 17, 18, 21, 20]
2.419[16, 19, 22, 20, 18, 19, 22, 22]
2.442[18, 19, 21, 21, 17, 18, 21, 22]
2.457[19, 18, 21, 19, 18, 18, 19, 21]
2.481[21, 19, 21, 18, 19, 19, 19, 23]
2.502[21, 19, 19, 18, 19, 20, 19, 24]
2.517[22, 19, 18, 18, 19, 19, 18, 23]
2.539[22, 19, 18, 17, 19, 20, 19, 23]
2.562[21, 20, 18, 19, 18, 20, 19, 22]
2.576[21, 17, 19, 21, 17, 20, 19, 22]
2.599[19, 19, 19, 20, 17, 20, 21, 21]
2.63[19, 18, 19, 21, 17, 19, 21, 19]
2.636[19, 19, 18, 21, 16, 19, 21, 21]
2.659[19, 19, 18, 18, 17, 18, 21, 20]
2.682[19, 21, 18, 18, 17, 18, 22, 20]
2.704[20, 20, 18, 17, 17, 17, 21, 21]
2.719[19, 21, 17, 17, 16, 19, 21, 22]
2.742[20, 20, 17, 17, 18, 19, 20, 20]
2.764[19, 20, 18, 18, 18, 18, 20, 20]
2.788[18, 18, 18, 19, 20, 19, 19, 20]
2.802[19, 18, 19, 20, 22, 21, 19, 20]
2.824[19, 18, 20, 20, 22, 19, 20, 19]
2.847[17, 18, 21, 21, 23, 20, 20, 19]
2.862[20, 19, 22, 20, 22, 21, 20, 20]
2.884[21, 19, 23, 20, 21, 18, 21, 19]
2.907[20, 19, 23, 18, 21, 18, 19, 19]
2.922[20, 20, 22, 18, 21, 19, 19, 20]
2.944[21, 21, 22, 18, 20, 18, 20, 19]
2.968[20, 22, 21, 18, 21, 16, 20, 19]
2.982[17, 23, 21, 20, 21, 15, 19, 19]
3.004[20, 22, 21, 21, 19, 15, 20, 18]
3.027[20, 22, 21, 22, 19, 14, 20, 19]
3.042[22, 22, 22, 22, 19, 14, 19, 19]
3.064[21, 23, 21, 21, 20, 16, 18, 19]
3.087[23, 22, 21, 20, 19, 19, 18, 18]
3.102[20, 22, 20, 21, 19, 18, 18, 17]
3.124[21, 22, 19, 22, 20, 19, 17, 16]
3.147[19, 20, 20, 22, 20, 21, 17, 17]
3.162[22, 21, 19, 23, 19, 22, 18, 18]
3.185[22, 21, 20, 23, 20, 20, 17, 17]
3.207[23, 22, 21, 22, 21, 20, 17, 17]
3.23[22, 21, 23, 19, 21, 19, 17, 18]
3.245[21, 22, 21, 19, 20, 17, 17, 17]
3.267[19, 20, 22, 18, 20, 16, 16, 18]
3.291[19, 20, 21, 17, 21, 21, 15, 19]
3.305[17, 20, 21, 18, 20, 21, 16, 19]
3.335[17, 22, 18, 19, 18, 21, 16, 19]
3.35[20, 21, 21, 20, 18, 21, 16, 20]
3.365[21, 22, 19, 18, 17, 20, 15, 20]
3.387[20, 22, 20, 18, 15, 16, 15, 19]
3.41[21, 22, 19, 16, 18, 16, 15, 20]
3.425[20, 21, 19, 16, 19, 16, 17, 20]
3.447[17, 22, 19, 18, 21, 18, 17, 20]
3.47[16, 20, 20, 19, 21, 17, 17, 19]
3.485[16, 21, 19, 18, 21, 18, 17, 19]
3.507[17, 19, 19, 19, 19, 20, 16, 20]
3.53[18, 19, 20, 19, 20, 21, 14, 20]
3.545[17, 18, 19, 19, 18, 21, 15, 19]
3.567[18, 18, 21, 18, 20, 22, 17, 20]
3.59[19, 17, 22, 18, 19, 21, 18, 19]
3.606[18, 17, 21, 18, 19, 19, 19, 18]
3.627[19, 17, 21, 18, 20, 19, 20, 19]
3.651[19, 19, 21, 18, 21, 18, 21, 20]
3.665[18, 19, 21, 19, 20, 19, 20, 18]
3.687[17, 19, 23, 19, 20, 18, 19, 20]
3.71[18, 20, 22, 18, 22, 20, 18, 19]
3.724[18, 19, 24, 19, 20, 19, 16, 19]
3.748[19, 20, 24, 19, 21, 21, 15, 21]
3.77[19, 20, 21, 19, 20, 19, 14, 21]
3.784[18, 22, 19, 18, 20, 21, 14, 20]
3.808[17, 21, 21, 21, 18, 21, 15, 21]
3.83[16, 23, 18, 22, 18, 21, 17, 20]
3.844[17, 22, 19, 21, 19, 19, 18, 17]
3.867[19, 22, 20, 20, 21, 19, 20, 18]
3.89[19, 23, 21, 22, 21, 19, 20, 21]
3.904[19, 24, 20, 21, 21, 19, 20, 20]
3.927[18, 23, 20, 21, 21, 20, 20, 20]
3.95[16, 21, 21, 21, 20, 20, 19, 20]
3.964[15, 32, 20, 21, 18, 21, 18, 21]
3.987[16, 33, 19, 21, 19, 20, 18, 19]
4.01[16, 32, 18, 21, 20, 21, 17, 19]
4.024[16, 31, 18, 19, 19, 20, 16, 19]
4.047[19, 32, 19, 21, 18, 22, 17, 20]
4.07[18, 21, 19, 20, 19, 21, 17, 18]
4.084[18, 18, 18, 18, 19, 21, 18, 19]
4.107[18, 18, 19, 16, 18, 22, 18, 18]
4.13[18, 19, 19, 18, 19, 22, 19, 19]
4.152[17, 19, 18, 16, 20, 21, 19, 17]
4.167[17, 18, 19, 15, 21, 21, 18, 21]
4.19[18, 20, 21, 19, 20, 22, 20, 25]
4.212[18, 21, 21, 20, 21, 20, 27, 39]
4.227[17, 21, 21, 20, 21, 21, 26, 41]
4.25[18, 21, 20, 20, 21, 20, 26, 41]
4.273[19, 22, 21, 21, 20, 21, 26, 41]
4.287[18, 21, 19, 18, 22, 20, 25, 39]
4.31[17, 19, 19, 19, 20, 22, 18, 26]
4.333[19, 19, 19, 18, 19, 22, 16, 24]
4.348[17, 18, 18, 18, 19, 21, 16, 25]
4.37[16, 17, 19, 19, 19, 21, 17, 25]
4.392[17, 17, 19, 19, 18, 21, 15, 22]
4.407[18, 16, 22, 18, 19, 18, 17, 22]
4.43[17, 15, 23, 17, 20, 17, 18, 21]
4.452[20, 17, 23, 19, 20, 16, 18, 19]
4.467[20, 16, 22, 18, 20, 17, 19, 18]
4.49[21, 19, 23, 19, 20, 16, 20, 18]
4.512[21, 20, 20, 22, 20, 17, 17, 18]
4.527[22, 20, 21, 22, 19, 18, 17, 17]
4.55[19, 19, 20, 21, 20, 17, 17, 18]
4.572[19, 20, 21, 21, 21, 17, 17, 17]
4.588[20, 18, 21, 20, 20, 19, 16, 20]
4.61[18, 17, 20, 17, 19, 19, 20, 22]
4.632[19, 19, 20, 19, 21, 18, 19, 21]
4.647[18, 20, 21, 18, 21, 20, 19, 22]
4.67[21, 19, 21, 18, 20, 19, 19, 23]
4.691[20, 20, 20, 20, 20, 18, 19, 21]
4.714[21, 21, 20, 20, 20, 19, 17, 18]
4.73[20, 20, 21, 19, 19, 20, 19, 19]
4.751[21, 19, 21, 18, 20, 20, 20, 21]
4.768[19, 19, 20, 18, 20, 19, 19, 21]
4.79[19, 20, 19, 18, 20, 19, 18, 21]
4.811[19, 19, 21, 19, 20, 17, 21, 21]
4.828[20, 18, 19, 21, 20, 17, 21, 21]
4.85[19, 19, 19, 21, 20, 18, 22, 20]
4.871[22, 20, 20, 21, 19, 18, 22, 20]
4.889[20, 20, 20, 20, 20, 19, 23, 21]
4.91[19, 19, 19, 18, 22, 20, 21, 23]
4.931[18, 21, 20, 17, 22, 20, 22, 23]
4.948[20, 21, 20, 17, 20, 19, 19, 22]
4.97[20, 21, 20, 20, 20, 19, 20, 22]
4.991[20, 22, 21, 18, 21, 19, 21, 21]
5.008[20, 22, 19, 20, 17, 18, 19, 20]
5.031[20, 22, 18, 22, 19, 18, 19, 19]
5.052[19, 20, 20, 22, 20, 19, 19, 19]
5.068[17, 21, 19, 22, 19, 19, 20, 19]
5.089[17, 20, 19, 22, 19, 18, 19, 20]
5.111[17, 23, 19, 22, 19, 19, 19, 20]
5.134[18, 22, 21, 23, 19, 19, 18, 21]
5.149[17, 23, 19, 23, 18, 18, 19, 21]
5.173[18, 23, 20, 22, 22, 18, 19, 21]
5.194[18, 24, 21, 22, 23, 18, 18, 19]
5.209[19, 22, 22, 21, 23, 19, 19, 19]
5.232[19, 23, 19, 18, 21, 18, 18, 19]
5.254[21, 29, 19, 17, 23, 17, 19, 19]
5.269[22, 30, 20, 18, 20, 17, 20, 18]
5.292[21, 29, 19, 18, 19, 21, 30, 18]
5.314[20, 29, 19, 17, 19, 21, 34, 16]
5.329[19, 28, 21, 20, 21, 22, 36, 17]
5.352[21, 20, 21, 21, 18, 22, 36, 17]
5.374[19, 16, 20, 21, 19, 23, 36, 18]
5.39[20, 18, 20, 22, 19, 20, 30, 20]
5.411[21, 19, 20, 22, 20, 20, 25, 21]
5.434[23, 17, 18, 21, 19, 19, 21, 21]
5.449[21, 18, 18, 20, 19, 19, 20, 21]
5.471[22, 21, 19, 20, 18, 19, 19, 20]
5.494[22, 20, 19, 19, 18, 20, 17, 19]
5.509[23, 19, 20, 21, 19, 18, 18, 19]
5.533[20, 19, 21, 20, 17, 19, 20, 17]
5.554[20, 18, 20, 19, 18, 17, 19, 17]
5.571[18, 16, 22, 19, 19, 16, 20, 17]
5.591[17, 17, 22, 18, 20, 16, 20, 17]
5.614[16, 18, 21, 19, 19, 16, 21, 17]
5.629[15, 20, 21, 19, 19, 16, 19, 18]
5.651[16, 20, 21, 19, 18, 16, 20, 18]
5.674[17, 21, 18, 17, 19, 17, 20, 21]
5.689[18, 21, 19, 19, 18, 16, 19, 22]
5.711[18, 20, 20, 17, 17, 16, 18, 22]
5.734[19, 20, 21, 17, 17, 16, 18, 23]
5.749[19, 21, 21, 19, 19, 17, 19, 23]
5.772[19, 20, 24, 24, 18, 16, 18, 21]
5.795[19, 20, 22, 26, 18, 17, 19, 19]
5.809[20, 21, 22, 25, 18, 18, 18, 21]
5.831[20, 20, 21, 25, 19, 18, 19, 19]
5.854[19, 19, 21, 24, 20, 18, 18, 18]
5.869[21, 22, 18, 21, 20, 17, 21, 19]
5.891[21, 21, 18, 18, 20, 15, 20, 19]
5.914[20, 21, 18, 18, 21, 16, 20, 16]
5.929[20, 21, 18, 19, 20, 18, 19, 17]
5.951[21, 22, 21, 20, 18, 18, 20, 17]
5.974[20, 21, 19, 19, 17, 19, 20, 16]
5.996[22, 21, 19, 20, 17, 20, 20, 16]
6.012[22, 22, 21, 19, 16, 19, 21, 16]
6.042[21, 22, 22, 19, 16, 19, 20, 15]
6.057[21, 21, 18, 18, 18, 19, 22, 16]
6.071[23, 19, 19, 20, 18, 18, 20, 16]
6.094[21, 19, 21, 19, 19, 17, 20, 14]
6.117[21, 19, 20, 19, 19, 19, 19, 14]
6.134[22, 19, 19, 19, 20, 18, 19, 17]
6.155[21, 19, 19, 19, 19, 18, 16, 16]
6.176[18, 19, 20, 19, 19, 19, 18, 17]
6.191[18, 21, 19, 20, 19, 19, 18, 20]
6.214[17, 19, 21, 20, 19, 16, 19, 20]
6.236[17, 20, 20, 18, 20, 16, 21, 20]
6.251[17, 20, 20, 20, 20, 18, 20, 21]
6.274[17, 22, 19, 19, 19, 18, 21, 22]
6.313[17, 20, 18, 17, 21, 19, 22, 20]
6.315[18, 19, 19, 18, 21, 20, 21, 20]
6.335[19, 19, 19, 19, 21, 20, 21, 17]
6.356[20, 19, 18, 18, 22, 17, 22, 17]
6.372[20, 16, 20, 19, 25, 17, 19, 15]
6.394[20, 18, 20, 21, 23, 17, 19, 17]
6.416[21, 20, 19, 21, 23, 17, 19, 19]
6.431[20, 20, 23, 21, 22, 17, 19, 21]
6.454[19, 21, 23, 21, 22, 19, 18, 21]
6.477[20, 22, 22, 21, 23, 21, 19, 21]
6.491[20, 20, 24, 20, 24, 20, 19, 20]
6.514[19, 18, 22, 21, 23, 20, 19, 18]
6.537[20, 17, 20, 20, 23, 20, 20, 19]
6.559[21, 17, 21, 20, 21, 20, 20, 19]
6.59[21, 17, 22, 20, 17, 18, 21, 20]
6.596[21, 18, 19, 20, 16, 18, 22, 20]
6.613[22, 18, 20, 19, 18, 17, 21, 20]
6.635[22, 19, 18, 19, 20, 18, 21, 19]
6.656[21, 19, 19, 19, 19, 16, 20, 18]
6.679[21, 19, 19, 18, 21, 18, 19, 19]
6.694[22, 20, 20, 17, 22, 18, 18, 20]
6.725[22, 19, 20, 19, 22, 19, 18, 21]
6.732[22, 19, 20, 23, 22, 18, 18, 19]
6.754[21, 20, 19, 22, 22, 18, 18, 20]
6.776[20, 18, 19, 21, 22, 17, 19, 18]
6.791[18, 18, 18, 23, 22, 17, 21, 17]
6.815[17, 18, 17, 22, 21, 18, 20, 17]
6.838[16, 17, 17, 18, 21, 17, 21, 17]
6.851[18, 16, 17, 20, 22, 18, 21, 18]
6.874[19, 19, 16, 20, 20, 19, 20, 19]
6.897[19, 19, 19, 20, 20, 19, 19, 20]
6.92[18, 21, 21, 20, 21, 19, 19, 19]
6.934[17, 23, 22, 21, 21, 20, 17, 19]
6.957[16, 24, 23, 19, 19, 20, 17, 17]
6.971[16, 22, 23, 21, 22, 19, 16, 17]
6.994[16, 21, 22, 21, 22, 20, 16, 15]
7.016[18, 21, 22, 20, 21, 17, 18, 16]
7.04[18, 21, 21, 20, 21, 18, 18, 16]
7.054[18, 21, 19, 21, 21, 19, 18, 16]
7.084[19, 22, 21, 21, 23, 20, 18, 16]
7.099[19, 23, 21, 20, 23, 20, 18, 17]
7.115[19, 23, 22, 23, 22, 21, 16, 17]
7.136[19, 21, 22, 21, 22, 23, 16, 18]
7.159[21, 21, 22, 21, 21, 21, 19, 18]
7.174[19, 20, 21, 21, 17, 21, 19, 18]
7.196[19, 21, 22, 20, 19, 22, 19, 19]
7.22[19, 21, 19, 19, 20, 20, 20, 19]
7.234[20, 22, 21, 22, 19, 19, 20, 18]
7.256[19, 21, 22, 21, 19, 21, 16, 20]
7.28[19, 21, 22, 22, 20, 20, 16, 22]
7.294[20, 21, 21, 23, 19, 18, 18, 21]
7.316[19, 22, 22, 22, 21, 19, 17, 20]
7.347[20, 20, 20, 19, 21, 17, 17, 21]
7.354[21, 22, 20, 19, 21, 16, 20, 19]
7.376[22, 21, 20, 18, 22, 16, 20, 20]
7.4[22, 19, 19, 17, 21, 27, 18, 20]
7.414[21, 20, 18, 17, 20, 35, 18, 20]
7.437[18, 20, 19, 18, 21, 44, 19, 20]
7.46[17, 18, 21, 18, 20, 49, 18, 21]
7.474[16, 19, 21, 18, 19, 49, 18, 20]
7.497[16, 20, 21, 19, 20, 45, 20, 20]
7.519[16, 18, 20, 21, 19, 39, 20, 21]
7.534[17, 18, 19, 20, 19, 30, 19, 21]
7.556[19, 18, 19, 21, 19, 21, 20, 20]
7.579[20, 19, 20, 20, 20, 20, 20, 19]
7.594[20, 19, 20, 21, 19, 20, 19, 19]
7.616[19, 22, 21, 19, 20, 20, 18, 19]
7.64[20, 23, 22, 21, 20, 17, 20, 20]
7.654[17, 23, 21, 21, 21, 16, 18, 20]
7.677[17, 24, 20, 22, 22, 19, 19, 19]
7.7[17, 24, 20, 21, 23, 20, 19, 19]
7.714[19, 22, 21, 20, 22, 19, 21, 19]
7.745[18, 22, 20, 18, 23, 21, 19, 16]
7.76[19, 22, 20, 21, 21, 21, 19, 17]
7.774[20, 20, 19, 19, 20, 17, 18, 17]
7.796[20, 22, 21, 19, 19, 20, 18, 15]
7.82[19, 21, 19, 21, 21, 19, 17, 20]
7.834[21, 22, 21, 21, 20, 18, 16, 20]
7.856[22, 23, 21, 20, 19, 19, 18, 20]
7.88[19, 23, 21, 21, 20, 19, 19, 20]
7.894[18, 24, 18, 21, 19, 17, 19, 20]
7.918[19, 25, 20, 20, 17, 18, 18, 16]
7.947[19, 27, 17, 22, 19, 18, 18, 19]
7.962[17, 29, 17, 23, 20, 19, 16, 20]
7.976[20, 30, 17, 22, 20, 20, 16, 20]
8.0[20, 28, 21, 22, 20, 20, 18, 20]
8.022[22, 28, 20, 22, 24, 22, 18, 21]
8.037[23, 24, 21, 19, 23, 21, 19, 19]
8.06[23, 22, 24, 19, 24, 20, 20, 19]
8.082[22, 20, 25, 20, 24, 20, 20, 18]
8.097[22, 20, 23, 20, 22, 20, 22, 18]
8.12[21, 20, 23, 21, 19, 18, 23, 18]
8.142[18, 20, 21, 21, 20, 19, 23, 19]
8.156[19, 21, 22, 20, 19, 18, 22, 18]
8.18[17, 21, 20, 20, 19, 16, 21, 21]
8.202[21, 22, 20, 22, 20, 21, 19, 20]
8.217[22, 22, 20, 20, 23, 20, 18, 19]
8.24[25, 23, 23, 20, 23, 20, 18, 17]
8.262[24, 20, 19, 21, 23, 21, 18, 18]
8.276[24, 21, 21, 21, 24, 22, 19, 15]
8.299[22, 21, 21, 19, 24, 17, 19, 16]
8.322[19, 19, 22, 22, 21, 19, 18, 16]
8.337[18, 20, 20, 21, 18, 19, 18, 15]
8.36[25, 21, 21, 19, 19, 19, 18, 14]
8.382[27, 25, 18, 21, 19, 19, 17, 15]
8.396[26, 24, 19, 20, 17, 20, 18, 16]
8.42[30, 25, 20, 19, 19, 19, 19, 17]
8.442[29, 24, 20, 19, 21, 18, 20, 18]
8.456[23, 25, 20, 20, 20, 17, 20, 18]
8.48[23, 21, 22, 19, 20, 17, 20, 20]
8.502[24, 22, 22, 20, 21, 16, 21, 18]
8.516[20, 21, 21, 18, 18, 17, 20, 21]
8.539[20, 20, 23, 18, 19, 16, 19, 20]
8.562[20, 21, 24, 19, 22, 18, 20, 20]
8.576[19, 22, 22, 18, 20, 17, 20, 18]
8.6[20, 23, 22, 19, 21, 19, 20, 20]
8.622[21, 23, 22, 18, 23, 18, 20, 19]
8.636[22, 25, 22, 20, 22, 19, 20, 21]
8.66[24, 22, 22, 21, 19, 20, 20, 20]
8.682[24, 21, 22, 22, 18, 20, 19, 21]
8.697[22, 21, 23, 21, 17, 20, 18, 22]
8.72[22, 24, 22, 21, 17, 20, 19, 20]
8.742[21, 23, 23, 20, 18, 20, 19, 18]
8.756[20, 24, 21, 18, 18, 19, 20, 20]
8.78[20, 22, 22, 20, 19, 20, 21, 20]
8.802[18, 21, 21, 22, 18, 20, 20, 18]
8.816[18, 18, 21, 21, 17, 21, 21, 19]
8.84[15, 17, 19, 22, 19, 21, 20, 21]
8.862[16, 18, 22, 22, 19, 21, 20, 20]
8.885[16, 19, 22, 20, 20, 22, 19, 21]
8.9[17, 19, 22, 19, 23, 21, 19, 20]
8.922[19, 19, 23, 21, 24, 19, 19, 19]
8.945[21, 20, 23, 20, 24, 20, 20, 17]
8.96[20, 20, 21, 20, 23, 18, 19, 17]
8.982[20, 20, 23, 20, 22, 18, 19, 17]
9.005[19, 20, 22, 20, 19, 19, 19, 17]
9.02[18, 20, 21, 19, 20, 19, 18, 17]
9.042[17, 19, 21, 19, 18, 19, 18, 19]
9.065[18, 19, 22, 21, 17, 19, 19, 18]
9.08[19, 19, 20, 22, 18, 19, 19, 19]
9.102[20, 18, 21, 21, 20, 18, 19, 19]
9.126[19, 18, 21, 21, 20, 18, 18, 19]
9.14[20, 19, 20, 21, 20, 17, 19, 20]
9.162[18, 18, 21, 20, 21, 19, 18, 20]
9.185[18, 18, 22, 19, 21, 18, 20, 20]
9.2[17, 19, 20, 20, 20, 17, 20, 21]
9.222[19, 19, 20, 19, 21, 18, 20, 22]
9.245[20, 18, 20, 19, 20, 18, 19, 19]
9.26[21, 19, 19, 18, 19, 17, 20, 21]
9.282[20, 18, 19, 19, 23, 21, 19, 22]
9.305[21, 18, 21, 29, 28, 24, 21, 20]
9.319[25, 20, 23, 31, 33, 25, 20, 22]
9.343[27, 23, 28, 42, 49, 31, 21, 24]
9.365[31, 25, 29, 44, 51, 33, 21, 23]
9.379[33, 26, 35, 58, 65, 36, 23, 22]
9.402[44, 35, 39, 82, 78, 40, 23, 24]
9.425[57, 56, 59, 115, 90, 49, 33, 31]
9.439[63, 62, 62, 141, 92, 51, 38, 37]
9.462[72, 69, 65, 147, 96, 51, 40, 41]
9.485[75, 72, 68, 153, 111, 62, 45, 44]
9.499[76, 72, 70, 156, 115, 65, 52, 45]
9.522[70, 65, 63, 157, 122, 65, 54, 43]
9.545[67, 64, 65, 157, 130, 66, 61, 41]
9.567[63, 67, 69, 168, 139, 80, 77, 46]
9.583[66, 70, 72, 171, 138, 79, 77, 45]
9.605[68, 81, 78, 164, 134, 80, 72, 44]
9.619[80, 92, 83, 149, 137, 86, 71, 45]
9.642[79, 93, 82, 144, 150, 97, 66, 46]
9.665[75, 87, 80, 127, 147, 89, 65, 40]
9.688[74, 87, 79, 136, 170, 90, 76, 42]
9.703[75, 87, 86, 143, 176, 90, 81, 46]
9.724[66, 81, 85, 152, 178, 97, 84, 47]
9.747[68, 86, 90, 186, 220, 106, 87, 47]
9.763[72, 95, 93, 191, 220, 108, 82, 49]
9.784[77, 102, 92, 185, 212, 109, 99, 61]
9.807[77, 103, 89, 189, 243, 114, 106, 61]
9.823[76, 98, 86, 194, 264, 107, 107, 62]
9.844[77, 96, 82, 151, 229, 101, 106, 61]
9.867[77, 97, 84, 160, 266, 110, 104, 60]
9.883[75, 96, 85, 155, 264, 113, 82, 48]
9.904[76, 102, 86, 145, 248, 117, 75, 50]
9.927[75, 106, 82, 122, 221, 120, 68, 45]
9.949[77, 109, 85, 130, 264, 120, 70, 47]
9.964[76, 107, 81, 119, 229, 115, 126, 48]
9.986[83, 112, 85, 120, 229, 113, 129, 48]
10.003[78, 100, 78, 121, 219, 113, 132, 43]
10.024[76, 95, 77, 122, 215, 107, 132, 43]
10.047[73, 94, 74, 115, 152, 95, 131, 40]
10.063[74, 96, 75, 113, 151, 89, 85, 39]
10.084[59, 81, 66, 106, 134, 80, 78, 35]
10.106[57, 86, 68, 101, 142, 84, 68, 38]
10.123[57, 86, 70, 105, 156, 88, 69, 41]
10.144[62, 82, 70, 105, 155, 101, 143, 51]
10.167[54, 73, 66, 101, 164, 105, 141, 49]
10.183[53, 71, 64, 99, 167, 111, 144, 49]
10.212[51, 63, 60, 113, 171, 107, 152, 48]
10.226[52, 64, 59, 115, 164, 101, 152, 45]
10.243[48, 64, 58, 111, 168, 101, 102, 37]
10.264[48, 61, 56, 109, 152, 95, 98, 36]
10.287[49, 62, 58, 108, 142, 90, 94, 37]
10.303[47, 62, 61, 102, 143, 82, 89, 39]
10.324[43, 61, 63, 97, 143, 89, 90, 39]
10.346[36, 52, 56, 93, 137, 73, 67, 35]
10.363[34, 52, 54, 94, 153, 73, 64, 34]
10.384[34, 53, 56, 96, 159, 77, 67, 41]
10.407[34, 51, 48, 74, 129, 68, 47, 34]
10.423[37, 51, 45, 73, 135, 64, 47, 34]
10.444[41, 55, 47, 81, 131, 66, 52, 35]
10.468[41, 56, 47, 88, 118, 65, 56, 37]
10.483[46, 56, 46, 89, 112, 59, 59, 30]
10.504[47, 57, 45, 92, 115, 59, 74, 33]
10.526[45, 52, 42, 89, 97, 51, 79, 33]
10.543[45, 52, 43, 78, 95, 56, 87, 39]
10.564[47, 55, 46, 80, 108, 60, 90, 41]
10.586[43, 50, 41, 77, 107, 58, 85, 39]
10.602[47, 55, 45, 85, 112, 62, 73, 38]
10.624[49, 60, 50, 118, 139, 65, 68, 40]
10.648[48, 58, 51, 124, 148, 61, 62, 33]
10.662[49, 55, 49, 117, 138, 62, 57, 31]
10.684[49, 54, 47, 116, 141, 71, 100, 33]
10.708[42, 46, 45, 110, 138, 68, 102, 32]
10.722[47, 48, 43, 78, 121, 67, 102, 35]
10.744[44, 46, 39, 69, 109, 68, 101, 34]
10.767[40, 46, 40, 73, 115, 69, 101, 32]
10.789[43, 50, 43, 75, 112, 65, 86, 36]
10.804[42, 53, 44, 74, 107, 67, 90, 36]
10.827[31, 48, 44, 75, 108, 74, 92, 31]
10.849[39, 52, 47, 76, 110, 73, 89, 31]
10.864[40, 53, 48, 69, 101, 71, 93, 32]
10.887[36, 50, 48, 70, 98, 67, 70, 28]
10.909[37, 50, 48, 70, 99, 66, 60, 30]
10.931[42, 49, 44, 64, 93, 60, 97, 34]
10.946[34, 45, 42, 66, 88, 62, 105, 42]
10.969[38, 48, 42, 68, 88, 60, 105, 43]
10.984[41, 49, 42, 69, 90, 58, 105, 42]
11.014[42, 45, 39, 65, 91, 64, 106, 41]
11.029[41, 45, 39, 66, 85, 58, 70, 37]
11.045[53, 56, 47, 71, 90, 59, 68, 34]
11.067[51, 54, 47, 69, 87, 58, 71, 31]
11.089[48, 50, 47, 65, 91, 62, 72, 30]
11.104[57, 65, 59, 79, 100, 54, 70, 33]
11.126[57, 65, 60, 85, 112, 58, 92, 34]
11.149[48, 59, 55, 83, 109, 59, 85, 30]
11.164[52, 64, 56, 91, 116, 62, 100, 33]
11.186[50, 65, 55, 96, 118, 60, 106, 35]
11.209[39, 50, 43, 85, 110, 62, 110, 35]
11.224[38, 50, 43, 81, 102, 61, 92, 35]
11.246[38, 48, 38, 73, 98, 55, 92, 37]
11.269[33, 41, 38, 64, 98, 55, 66, 34]
11.284[36, 42, 35, 58, 93, 57, 109, 36]
11.307[42, 46, 36, 64, 104, 56, 111, 34]
11.329[41, 45, 34, 61, 102, 51, 114, 32]
11.344[38, 43, 33, 60, 102, 55, 116, 29]
11.366[41, 47, 37, 62, 95, 53, 119, 35]
11.389[41, 45, 38, 63, 92, 48, 74, 30]
11.404[39, 47, 40, 64, 89, 52, 76, 30]
11.427[40, 49, 41, 68, 85, 55, 77, 31]
11.45[49, 55, 42, 73, 82, 49, 72, 36]
11.464[47, 51, 36, 71, 87, 55, 77, 33]
11.486[46, 52, 43, 71, 98, 60, 73, 33]
11.509[43, 49, 42, 64, 90, 55, 63, 32]
11.524[45, 48, 40, 61, 89, 56, 58, 32]
11.546[36, 43, 40, 54, 91, 56, 59, 26]
11.578[36, 42, 42, 55, 90, 53, 54, 26]
11.586[43, 52, 43, 65, 83, 50, 80, 29]
11.606[43, 50, 41, 71, 88, 50, 81, 28]
11.629[40, 50, 42, 67, 87, 48, 101, 31]
11.644[46, 52, 45, 69, 93, 47, 101, 31]
11.666[48, 55, 46, 77, 91, 48, 96, 29]
11.689[44, 46, 42, 69, 89, 54, 78, 29]
11.704[48, 47, 42, 61, 82, 56, 77, 37]
11.726[62, 60, 51, 76, 94, 64, 50, 41]
11.749[59, 56, 49, 78, 98, 68, 58, 40]
11.771[57, 55, 48, 70, 94, 68, 58, 42]
11.787[61, 58, 48, 68, 92, 61, 55, 41]
11.817[57, 58, 51, 77, 105, 61, 51, 35]
11.831[43, 46, 43, 67, 100, 56, 59, 31]
11.846[45, 48, 45, 69, 98, 55, 53, 33]
11.869[43, 48, 43, 70, 119, 56, 56, 32]
11.891[42, 45, 42, 76, 120, 55, 57, 30]
11.906[43, 44, 40, 75, 120, 58, 66, 32]
11.929[44, 44, 35, 74, 117, 61, 78, 30]
11.951[42, 46, 34, 73, 125, 68, 81, 30]
11.975[45, 47, 37, 71, 109, 70, 86, 30]
11.989[44, 48, 39, 73, 125, 77, 91, 32]
12.011[46, 52, 42, 72, 130, 78, 86, 31]
12.026[47, 56, 46, 70, 128, 74, 66, 30]
12.049[45, 51, 46, 76, 131, 74, 62, 32]
12.079[44, 52, 47, 80, 134, 70, 83, 33]
12.087[42, 49, 45, 71, 119, 70, 81, 32]
12.109[40, 47, 46, 71, 111, 65, 81, 33]
12.131[34, 42, 43, 73, 121, 76, 95, 34]
12.154[35, 46, 43, 70, 105, 75, 102, 32]
12.169[35, 45, 44, 76, 124, 79, 83, 32]
12.191[33, 43, 43, 80, 126, 73, 86, 33]
12.206[33, 45, 44, 83, 129, 76, 90, 35]
12.229[45, 54, 49, 96, 139, 67, 79, 33]
12.251[48, 56, 52, 96, 144, 63, 80, 33]
12.275[48, 55, 50, 93, 132, 54, 78, 33]
12.297[56, 65, 52, 91, 130, 56, 74, 33]
12.319[55, 64, 48, 88, 129, 53, 71, 30]
12.326[48, 56, 45, 79, 123, 56, 68, 28]
12.349[50, 56, 43, 77, 119, 61, 120, 34]
12.371[49, 58, 45, 78, 115, 65, 125, 32]
12.386[37, 45, 42, 81, 122, 64, 124, 34]
12.409[37, 44, 42, 82, 121, 63, 127, 34]
12.431[38, 48, 40, 83, 125, 60, 130, 36]
12.446[33, 44, 38, 83, 127, 62, 75, 30]
12.469[32, 40, 33, 79, 122, 57, 73, 30]
12.492[42, 52, 41, 81, 115, 62, 82, 29]
12.506[43, 54, 45, 89, 119, 67, 81, 31]
12.529[41, 48, 46, 84, 103, 65, 75, 31]
12.552[44, 54, 47, 83, 98, 57, 74, 31]
12.566[45, 55, 47, 83, 100, 65, 64, 30]
12.589[39, 48, 42, 77, 97, 58, 54, 30]
12.613[43, 54, 45, 65, 96, 61, 85, 36]
12.626[43, 58, 45, 69, 108, 66, 87, 37]
12.649[42, 56, 45, 66, 111, 69, 88, 39]
12.672[43, 57, 49, 75, 127, 69, 87, 39]
12.694[44, 58, 52, 78, 133, 74, 87, 36]
12.709[43, 55, 50, 75, 122, 74, 58, 28]
12.739[42, 51, 51, 76, 116, 73, 63, 28]
12.754[50, 55, 53, 77, 117, 71, 62, 29]
12.769[48, 53, 50, 66, 101, 69, 61, 29]
12.792[47, 51, 48, 65, 93, 65, 56, 31]
12.815[45, 47, 45, 68, 105, 62, 67, 30]
12.829[43, 47, 46, 77, 117, 69, 60, 30]
12.852[39, 46, 45, 78, 119, 71, 61, 27]
12.874[42, 47, 47, 80, 118, 72, 69, 31]
12.889[42, 47, 46, 80, 125, 78, 78, 34]
12.912[45, 51, 47, 76, 116, 78, 80, 37]
12.934[45, 51, 42, 62, 100, 69, 79, 37]
12.949[40, 46, 39, 71, 109, 71, 82, 38]
12.972[38, 46, 39, 68, 108, 69, 126, 42]
12.994[44, 49, 39, 69, 101, 63, 124, 44]
13.009[42, 47, 40, 84, 114, 60, 116, 42]
13.031[41, 46, 44, 80, 112, 58, 117, 42]
13.055[43, 48, 43, 73, 100, 60, 116, 42]
13.069[43, 45, 43, 77, 110, 60, 63, 34]
13.092[44, 42, 44, 79, 116, 62, 90, 29]
13.115[46, 45, 42, 66, 115, 68, 88, 29]
13.129[50, 52, 42, 72, 126, 73, 100, 30]
13.152[49, 49, 40, 67, 121, 68, 100, 29]
13.175[50, 51, 39, 65, 112, 63, 98, 31]
13.189[46, 50, 40, 83, 136, 63, 72, 29]
13.212[55, 60, 44, 87, 138, 71, 80, 34]
13.235[51, 54, 44, 90, 133, 69, 104, 37]
13.249[54, 61, 49, 91, 139, 79, 105, 37]
13.272[54, 62, 52, 95, 145, 80, 107, 36]
13.295[55, 64, 51, 83, 122, 80, 106, 36]
13.317[49, 60, 53, 78, 113, 74, 101, 32]
13.332[50, 61, 55, 76, 119, 78, 67, 33]
13.354[46, 56, 52, 77, 116, 69, 63, 32]
13.369[51, 58, 53, 84, 115, 71, 77, 34]
13.392[47, 53, 52, 76, 110, 72, 80, 33]
13.415[45, 47, 48, 86, 112, 73, 78, 32]
13.428[46, 48, 46, 92, 103, 68, 67, 25]
13.452[54, 55, 56, 100, 110, 71, 88, 31]
13.474[53, 53, 53, 102, 101, 69, 72, 30]
13.489[55, 56, 52, 108, 104, 69, 70, 32]
13.512[57, 62, 54, 112, 99, 63, 70, 34]
13.534[56, 60, 55, 106, 99, 69, 76, 38]
13.549[51, 57, 48, 106, 107, 67, 67, 37]
13.58[47, 58, 47, 95, 111, 66, 67, 35]
13.594[47, 57, 50, 91, 114, 77, 72, 37]
13.617[50, 60, 50, 81, 120, 80, 75, 38]
13.632[59, 72, 55, 87, 135, 83, 74, 37]
13.655[59, 70, 53, 89, 158, 85, 84, 41]
13.677[59, 71, 56, 94, 166, 100, 122, 46]
13.692[62, 78, 58, 102, 172, 93, 121, 47]
13.714[67, 84, 64, 115, 193, 94, 134, 52]
13.737[60, 75, 62, 116, 185, 90, 159, 54]
13.752[65, 79, 67, 113, 174, 101, 157, 52]
13.774[66, 77, 67, 121, 172, 92, 141, 50]
13.797[66, 77, 67, 121, 170, 91, 140, 48]
13.812[54, 62, 58, 109, 148, 88, 128, 39]
13.834[55, 64, 58, 106, 145, 86, 96, 37]
13.857[49, 58, 51, 97, 124, 71, 77, 36]
13.872[46, 58, 47, 82, 128, 70, 61, 35]
13.895[41, 52, 46, 70, 120, 70, 59, 35]
13.917[44, 57, 50, 67, 114, 71, 56, 37]
13.939[45, 58, 53, 85, 128, 73, 56, 35]
13.954[43, 57, 53, 90, 132, 71, 58, 32]
13.977[46, 58, 54, 89, 116, 62, 61, 28]
13.992[46, 55, 51, 90, 125, 69, 98, 32]
14.014[45, 53, 48, 101, 125, 65, 114, 32]
14.037[44, 51, 43, 82, 106, 59, 117, 33]
14.052[45, 51, 41, 80, 100, 61, 123, 36]
14.075[44, 53, 44, 91, 101, 64, 117, 36]
14.097[50, 61, 51, 94, 93, 58, 93, 41]
14.111[50, 58, 48, 81, 97, 66, 77, 43]
14.134[49, 63, 53, 83, 98, 70, 68, 44]
14.158[53, 69, 61, 85, 101, 73, 55, 44]
14.171[52, 65, 59, 74, 99, 73, 82, 44]
14.195[49, 62, 61, 97, 109, 74, 79, 36]
14.217[53, 67, 65, 99, 100, 69, 77, 34]
14.231[50, 59, 60, 99, 101, 65, 79, 31]
14.255[49, 56, 56, 98, 101, 65, 85, 29]
14.277[50, 59, 56, 103, 108, 66, 61, 31]
14.291[47, 56, 49, 79, 99, 65, 66, 32]
14.314[45, 52, 47, 76, 112, 73, 67, 32]
14.344[46, 51, 50, 77, 111, 74, 82, 33]
14.351[48, 50, 47, 75, 108, 70, 77, 33]
14.374[45, 48, 47, 67, 108, 69, 81, 33]
14.404[42, 47, 43, 76, 117, 71, 107, 37]
14.411[38, 44, 40, 81, 108, 59, 113, 37]
14.435[45, 51, 40, 79, 116, 65, 109, 44]
14.457[41, 46, 40, 81, 115, 63, 109, 45]
14.471[44, 46, 43, 82, 112, 63, 110, 49]
14.495[44, 45, 43, 73, 97, 55, 81, 45]
14.517[47, 49, 44, 67, 95, 56, 76, 45]
14.539[43, 49, 44, 62, 94, 50, 65, 38]
14.555[48, 55, 46, 61, 98, 53, 67, 38]
14.577[58, 67, 54, 81, 112, 65, 69, 40]
14.599[61, 70, 58, 82, 110, 65, 68, 44]
14.615[59, 69, 57, 88, 111, 68, 63, 44]
14.637[56, 64, 56, 103, 118, 69, 79, 45]
14.659[57, 67, 58, 107, 125, 74, 91, 49]
14.675[44, 53, 48, 97, 116, 68, 90, 43]
14.696[39, 48, 43, 97, 119, 67, 99, 42]
14.72[41, 51, 45, 96, 116, 67, 99, 42]
14.741[44, 53, 44, 84, 105, 63, 99, 40]
14.756[37, 46, 39, 82, 100, 62, 87, 37]
14.779[38, 47, 39, 73, 94, 54, 89, 40]
14.795[44, 51, 46, 78, 88, 53, 76, 36]
14.817[45, 49, 44, 75, 102, 54, 84, 38]
14.839[41, 45, 42, 70, 96, 56, 69, 37]
14.855[46, 49, 45, 73, 101, 54, 76, 37]
14.876[56, 57, 48, 77, 103, 59, 69, 41]
14.899[56, 57, 45, 70, 101, 58, 73, 44]
14.915[52, 55, 44, 69, 94, 58, 67, 44]
14.936[57, 59, 46, 80, 105, 59, 68, 46]
14.959[52, 53, 42, 71, 92, 54, 57, 44]
14.975[48, 53, 47, 81, 99, 50, 56, 40]
14.996[44, 49, 45, 81, 100, 52, 48, 35]
15.019[45, 50, 46, 84, 100, 53, 41, 34]
15.035[42, 52, 49, 80, 98, 56, 62, 34]
15.056[46, 52, 48, 81, 100, 59, 92, 42]
15.079[40, 45, 45, 70, 96, 62, 95, 42]
15.095[41, 46, 46, 71, 96, 62, 103, 44]
15.116[40, 44, 45, 65, 91, 57, 103, 42]
15.139[38, 38, 43, 62, 92, 60, 96, 48]
15.155[38, 37, 43, 68, 101, 59, 71, 46]
15.176[39, 39, 41, 65, 94, 58, 82, 48]
15.199[45, 43, 38, 64, 95, 55, 73, 48]
15.215[48, 49, 40, 64, 94, 58, 75, 51]
15.236[48, 49, 38, 66, 97, 53, 66, 43]
15.259[51, 54, 41, 66, 94, 54, 68, 40]
15.275[49, 52, 43, 76, 105, 51, 49, 35]
15.296[45, 48, 43, 76, 109, 55, 50, 32]
15.326[44, 44, 43, 79, 110, 56, 52, 28]
15.335[43, 44, 43, 74, 99, 58, 97, 33]
15.356[35, 43, 41, 67, 94, 56, 107, 35]
15.379[36, 44, 38, 65, 93, 62, 111, 37]
15.402[44, 57, 44, 68, 91, 64, 120, 40]
15.416[41, 57, 42, 67, 87, 62, 118, 42]
15.439[49, 66, 50, 74, 91, 61, 87, 40]
15.455[49, 65, 49, 81, 93, 59, 75, 37]
15.478[47, 63, 49, 76, 89, 57, 81, 38]
15.499[40, 56, 47, 71, 87, 54, 70, 35]
15.523[42, 54, 46, 73, 103, 56, 71, 34]
15.538[32, 41, 39, 84, 119, 54, 69, 31]
15.559[39, 46, 41, 78, 117, 56, 64, 31]
15.581[43, 50, 45, 80, 120, 57, 50, 30]
15.596[40, 45, 42, 83, 122, 59, 76, 33]
15.619[39, 45, 43, 84, 110, 60, 82, 31]
15.641[42, 49, 46, 78, 104, 65, 92, 32]
15.656[37, 44, 45, 81, 104, 65, 92, 30]
15.686[32, 39, 40, 84, 102, 61, 105, 31]
15.701[36, 46, 46, 91, 108, 63, 88, 31]
15.716[41, 49, 45, 90, 108, 59, 84, 34]
15.739[39, 46, 42, 80, 92, 50, 73, 32]
15.761[38, 45, 43, 84, 102, 52, 77, 34]
15.776[41, 45, 44, 80, 94, 52, 62, 33]
15.799[38, 37, 37, 76, 96, 47, 68, 36]
15.821[37, 36, 41, 85, 107, 50, 68, 36]
15.838[40, 42, 43, 88, 109, 52, 78, 38]
15.859[40, 42, 41, 87, 102, 50, 75, 37]
15.881[39, 43, 40, 82, 102, 46, 73, 37]
15.896[48, 49, 42, 81, 95, 46, 72, 34]
15.919[44, 48, 37, 66, 76, 45, 73, 30]
15.942[46, 50, 44, 66, 71, 43, 69, 32]
15.956[54, 61, 48, 64, 69, 42, 71, 35]
15.979[54, 61, 50, 67, 79, 49, 70, 37]
16.002[54, 61, 51, 64, 74, 53, 83, 46]
16.033[56, 66, 57, 74, 92, 66, 101, 47]
16.039[52, 62, 52, 68, 93, 65, 97, 46]
16.061[51, 58, 51, 86, 108, 66, 95, 44]
16.076[50, 57, 51, 92, 114, 71, 95, 41]
16.099[41, 51, 48, 96, 123, 67, 81, 29]
16.121[41, 44, 41, 88, 112, 55, 73, 35]
16.136[47, 48, 42, 98, 121, 58, 71, 36]
16.16[40, 39, 38, 92, 121, 60, 69, 36]
16.181[40, 41, 35, 94, 109, 52, 71, 36]
16.198[41, 42, 37, 88, 100, 53, 67, 36]
16.219[40, 43, 37, 86, 99, 55, 53, 33]
16.241[33, 39, 34, 80, 92, 54, 54, 28]
16.256[33, 42, 38, 74, 75, 49, 54, 29]
16.28[34, 42, 39, 67, 78, 49, 48, 28]
16.302[35, 43, 39, 70, 81, 52, 58, 29]
16.316[35, 42, 41, 72, 86, 56, 73, 28]
16.339[40, 45, 40, 68, 87, 59, 88, 30]
16.369[40, 44, 34, 62, 89, 58, 92, 31]
16.376[44, 49, 38, 70, 99, 58, 92, 29]
16.399[44, 47, 36, 71, 95, 52, 86, 27]
16.422[45, 47, 36, 70, 92, 45, 85, 36]
16.436[40, 43, 37, 79, 95, 45, 78, 35]
16.459[40, 41, 39, 79, 92, 58, 133, 44]
16.482[38, 37, 39, 72, 80, 60, 141, 48]
16.504[38, 38, 39, 75, 82, 62, 144, 48]
16.519[42, 44, 42, 82, 88, 65, 139, 45]
16.55[40, 45, 44, 77, 78, 63, 140, 46]
16.564[41, 46, 45, 75, 79, 56, 87, 37]
16.579[46, 53, 44, 75, 82, 56, 75, 33]
16.61[47, 55, 44, 78, 91, 55, 68, 32]
16.624[41, 49, 40, 73, 95, 53, 59, 28]
16.639[43, 49, 37, 69, 94, 51, 42, 26]
16.663[40, 47, 36, 73, 99, 48, 42, 26]
16.684[30, 35, 35, 78, 107, 53, 44, 27]
16.699[35, 37, 36, 80, 113, 58, 56, 28]
16.721[34, 36, 38, 81, 117, 62, 57, 28]
16.752[31, 32, 39, 82, 120, 62, 62, 29]
16.759[31, 32, 36, 83, 120, 64, 62, 27]
16.782[41, 43, 41, 84, 111, 58, 65, 28]
16.804[36, 39, 40, 74, 95, 57, 91, 33]
16.819[44, 50, 47, 81, 104, 64, 115, 50]
16.841[46, 50, 46, 84, 107, 62, 115, 51]
16.872[64, 76, 68, 110, 125, 76, 120, 55]
16.88[60, 73, 66, 107, 124, 75, 120, 54]
16.901[61, 77, 74, 118, 135, 83, 97, 52]
16.924[59, 79, 78, 122, 126, 79, 89, 39]
16.939[58, 79, 79, 120, 125, 81, 91, 39]
16.961[43, 58, 64, 99, 105, 70, 86, 34]
16.984[42, 56, 63, 95, 103, 69, 82, 34]
16.999[46, 54, 56, 83, 93, 57, 80, 35]
17.021[42, 44, 43, 74, 91, 50, 74, 32]
17.043[42, 46, 46, 83, 93, 48, 71, 31]
17.059[42, 45, 44, 81, 102, 51, 73, 33]
17.081[42, 47, 42, 86, 105, 54, 80, 32]
17.104[36, 42, 38, 83, 97, 52, 80, 31]
17.12[36, 39, 37, 78, 90, 53, 63, 30]
17.141[59, 64, 49, 73, 96, 62, 73, 37]
17.164[57, 64, 47, 79, 98, 59, 75, 35]
17.179[58, 65, 47, 78, 105, 56, 69, 36]
17.201[59, 68, 51, 83, 118, 66, 96, 40]
17.223[59, 69, 52, 92, 126, 65, 98, 41]
17.239[42, 51, 39, 85, 118, 59, 94, 34]
17.27[41, 50, 39, 75, 104, 59, 96, 36]
17.283[40, 47, 38, 74, 98, 58, 94, 34]
17.299[48, 56, 45, 77, 100, 60, 68, 37]
17.321[51, 56, 45, 64, 91, 58, 64, 46]
17.343[48, 54, 48, 67, 89, 56, 58, 48]
17.359[52, 55, 49, 67, 92, 58, 54, 50]
17.381[51, 54, 49, 66, 90, 60, 56, 50]
17.403[42, 40, 39, 70, 101, 49, 54, 45]
17.427[48, 50, 50, 84, 115, 60, 55, 36]
17.442[45, 47, 45, 82, 116, 57, 53, 31]
17.464[41, 45, 44, 85, 129, 65, 58, 26]
17.487[47, 50, 48, 90, 148, 67, 90, 33]
17.501[47, 51, 49, 81, 136, 71, 94, 38]
17.524[36, 40, 36, 68, 127, 66, 100, 36]
17.547[36, 40, 40, 70, 129, 68, 104, 37]
17.561[37, 39, 41, 74, 127, 58, 97, 37]
17.584[42, 52, 43, 69, 111, 57, 81, 35]
17.607[41, 51, 43, 72, 108, 52, 79, 31]
17.621[42, 52, 45, 77, 109, 51, 79, 30]
17.643[42, 51, 43, 85, 115, 55, 76, 33]
17.667[43, 53, 44, 90, 116, 60, 76, 33]
17.682[41, 44, 44, 88, 109, 60, 63, 33]
17.703[42, 45, 44, 85, 106, 59, 62, 33]
17.727[41, 45, 43, 82, 104, 62, 83, 37]
17.741[43, 47, 41, 74, 95, 55, 85, 37]
17.763[46, 49, 42, 64, 88, 55, 89, 41]
17.787[42, 46, 38, 64, 89, 55, 91, 42]
17.801[41, 46, 39, 66, 93, 57, 91, 39]
17.824[42, 48, 42, 67, 94, 55, 73, 36]
17.847[40, 45, 42, 69, 96, 58, 73, 33]
17.861[42, 46, 44, 73, 94, 56, 70, 30]
17.884[39, 43, 44, 76, 98, 58, 66, 27]
17.907[47, 52, 46, 78, 97, 57, 68, 38]
17.921[47, 53, 49, 79, 101, 67, 111, 44]
17.943[48, 54, 49, 74, 98, 71, 117, 46]
17.967[43, 50, 48, 74, 100, 78, 129, 45]
17.989[44, 51, 44, 69, 96, 78, 134, 45]
18.004[36, 42, 42, 64, 92, 79, 134, 43]
18.027[34, 39, 38, 59, 84, 68, 104, 36]
18.041[32, 37, 37, 59, 92, 65, 98, 38]
18.064[36, 40, 35, 51, 80, 54, 84, 43]
18.087[39, 41, 37, 51, 76, 54, 95, 45]
18.101[38, 38, 35, 56, 88, 52, 92, 41]
18.125[41, 41, 35, 61, 90, 54, 84, 40]
18.147[40, 43, 36, 65, 84, 55, 80, 38]
18.161[42, 40, 36, 73, 100, 58, 77, 31]
18.184[38, 38, 38, 82, 108, 55, 65, 27]
18.207[40, 39, 38, 77, 101, 53, 66, 29]
18.222[44, 44, 39, 74, 101, 53, 66, 41]
18.244[55, 58, 47, 76, 96, 52, 65, 46]
18.267[54, 61, 48, 81, 102, 59, 65, 47]
18.281[57, 65, 50, 84, 104, 58, 61, 47]
18.304[59, 68, 55, 100, 111, 65, 100, 49]
18.327[60, 68, 56, 105, 114, 67, 102, 39]
18.341[56, 60, 51, 105, 116, 66, 115, 36]
18.364[54, 57, 49, 102, 110, 63, 117, 34]
18.387[50, 53, 44, 94, 107, 63, 114, 33]
18.409[45, 48, 37, 81, 107, 57, 80, 29]
18.424[39, 43, 34, 79, 108, 59, 81, 37]
18.447[38, 46, 35, 77, 107, 61, 69, 37]
18.469[40, 46, 35, 71, 96, 61, 98, 39]
18.484[41, 50, 40, 78, 101, 63, 108, 42]
18.507[42, 50, 40, 74, 95, 63, 109, 43]
18.53[42, 50, 39, 71, 86, 56, 105, 35]
18.552[39, 43, 37, 72, 89, 55, 102, 33]
18.567[38, 46, 41, 69, 92, 47, 83, 37]
18.589[37, 40, 38, 63, 86, 44, 96, 44]
18.604[49, 60, 49, 73, 96, 52, 103, 49]
18.627[48, 59, 49, 74, 102, 61, 106, 50]
18.65[46, 61, 51, 73, 99, 62, 102, 50]
18.664[45, 58, 48, 75, 96, 62, 94, 45]
18.687[50, 66, 52, 86, 110, 63, 86, 39]
18.709[38, 49, 44, 78, 98, 54, 75, 32]
18.724[44, 54, 46, 75, 97, 53, 106, 33]
18.747[43, 54, 44, 77, 105, 55, 110, 30]
18.769[45, 55, 46, 80, 112, 61, 113, 29]
18.784[40, 47, 38, 64, 92, 60, 101, 24]
18.807[48, 54, 42, 66, 97, 67, 107, 27]
18.829[44, 52, 43, 78, 101, 61, 79, 23]
18.844[44, 51, 42, 70, 94, 59, 75, 24]
18.868[43, 52, 46, 79, 105, 59, 73, 36]
18.89[43, 53, 47, 83, 110, 59, 77, 37]
18.904[31, 42, 41, 80, 109, 54, 76, 35]
18.927[36, 47, 47, 84, 131, 70, 80, 40]
18.949[36, 43, 48, 92, 138, 71, 104, 42]
18.972[36, 41, 47, 93, 136, 71, 104, 35]
18.987[37, 43, 50, 100, 149, 79, 101, 38]
19.009[40, 47, 50, 102, 149, 78, 97, 37]
19.024[36, 39, 41, 92, 126, 70, 95, 35]
19.047[39, 47, 42, 86, 128, 76, 70, 35]
19.07[37, 44, 36, 74, 113, 70, 68, 30]
19.084[50, 59, 40, 66, 97, 64, 83, 34]
19.107[53, 62, 44, 65, 100, 64, 82, 35]
19.13[52, 63, 45, 62, 96, 55, 74, 32]
19.143[50, 59, 42, 64, 82, 42, 75, 31]
19.167[50, 59, 43, 74, 91, 43, 79, 35]
19.19[40, 46, 38, 70, 84, 37, 61, 29]
19.212[33, 37, 33, 70, 83, 43, 81, 35]
19.227[33, 38, 35, 82, 104, 56, 86, 40]
19.249[31, 33, 32, 80, 103, 57, 85, 42]
19.263[40, 41, 39, 83, 106, 62, 83, 40]
19.287[35, 35, 35, 83, 110, 63, 84, 40]
19.309[35, 35, 35, 85, 113, 62, 64, 35]
19.332[35, 34, 31, 77, 106, 57, 55, 28]
19.347[36, 36, 34, 81, 110, 56, 51, 25]
19.369[33, 36, 36, 73, 112, 61, 57, 28]
19.392[33, 36, 37, 71, 109, 60, 58, 29]
19.407[33, 36, 38, 66, 99, 57, 57, 27]
19.429[32, 35, 37, 61, 84, 49, 56, 29]
19.453[32, 33, 38, 52, 77, 49, 54, 27]
19.467[25, 29, 35, 44, 53, 37, 35, 23]
19.489[24, 30, 34, 42, 49, 35, 30, 23]
19.512[25, 31, 34, 50, 57, 33, 27, 24]
19.527[24, 32, 35, 52, 57, 33, 27, 23]
19.55[23, 31, 33, 52, 56, 32, 26, 23]
19.572[20, 25, 25, 47, 51, 25, 23, 21]
19.586[21, 23, 22, 45, 47, 26, 22, 21]
19.617[35, 25, 26, 31, 32, 21, 24, 26]
19.632[36, 24, 26, 26, 25, 20, 24, 25]
19.646[36, 25, 27, 27, 24, 19, 24, 29]
19.67[38, 24, 26, 25, 24, 20, 23, 29]
19.692[37, 23, 26, 25, 28, 19, 24, 27]
19.715[23, 20, 22, 22, 29, 18, 23, 24]
19.73[22, 20, 22, 22, 30, 18, 23, 24]
19.751[23, 21, 22, 19, 29, 20, 21, 21]
19.774[21, 22, 23, 22, 29, 22, 30, 23]
19.79[23, 22, 24, 32, 25, 22, 31, 22]
19.811[25, 24, 25, 65, 23, 25, 35, 31]
19.834[27, 24, 26, 78, 24, 86, 79, 34]
19.85[26, 23, 28, 80, 23, 89, 83, 36]
19.871[29, 22, 29, 90, 22, 92, 83, 36]
19.893[28, 21, 29, 88, 22, 93, 84, 36]
19.91[26, 20, 28, 69, 24, 94, 83, 27]
19.931[23, 18, 27, 53, 23, 46, 45, 23]
19.954[24, 18, 24, 51, 24, 40, 38, 22]
19.97[19, 16, 21, 27, 22, 33, 31, 20]
19.992[19, 15, 21, 24, 20, 29, 27, 20]
20.013[20, 14, 20, 21, 19, 27, 27, 18]
20.03[21, 15, 19, 22, 19, 22, 24, 18]
20.058[18, 15, 19, 21, 19, 23, 23, 17]
20.073[18, 19, 22, 20, 19, 20, 23, 17]
20.09[19, 20, 22, 20, 23, 19, 23, 18]
20.111[17, 23, 22, 21, 23, 19, 20, 18]
20.127[17, 22, 22, 20, 23, 19, 20, 19]
20.148[17, 23, 24, 22, 23, 18, 19, 19]
20.171[17, 21, 21, 22, 23, 22, 18, 19]
20.188[17, 21, 20, 19, 21, 22, 19, 18]
20.208[17, 23, 22, 18, 21, 20, 20, 19]
20.231[16, 24, 24, 19, 21, 20, 17, 19]
20.254[16, 24, 24, 19, 22, 21, 18, 18]
20.269[20, 26, 25, 18, 20, 19, 17, 19]
20.291[21, 26, 26, 20, 20, 19, 17, 17]
20.314[20, 22, 26, 21, 19, 20, 16, 19]
20.329[22, 21, 26, 21, 19, 19, 18, 17]
20.351[22, 22, 24, 21, 19, 17, 17, 17]
20.374[19, 20, 23, 22, 20, 17, 18, 16]
20.388[17, 19, 23, 20, 19, 17, 19, 17]
20.411[18, 19, 22, 21, 18, 18, 20, 15]
20.434[15, 20, 21, 20, 19, 18, 19, 15]
20.448[18, 19, 20, 18, 17, 19, 19, 17]
20.471[18, 18, 19, 19, 18, 19, 18, 19]
20.494[18, 19, 19, 19, 18, 19, 19, 20]
20.509[19, 19, 19, 18, 19, 18, 17, 21]
20.531[19, 18, 17, 18, 21, 19, 18, 23]
20.554[18, 18, 19, 19, 21, 19, 20, 23]
20.568[20, 18, 19, 19, 24, 18, 21, 21]
20.591[20, 19, 21, 20, 25, 18, 19, 21]
20.614[20, 18, 20, 20, 25, 19, 20, 22]
20.629[21, 17, 20, 20, 24, 18, 19, 21]
20.651[20, 17, 20, 19, 23, 18, 17, 21]
20.674[20, 18, 22, 19, 21, 20, 18, 22]
20.688[21, 17, 19, 19, 21, 21, 19, 21]
20.711[22, 18, 25, 31, 30, 23, 20, 20]
20.734[22, 20, 26, 31, 32, 25, 20, 20]
20.749[21, 20, 27, 33, 33, 26, 23, 21]
20.772[21, 20, 26, 34, 33, 24, 22, 21]
20.794[19, 21, 28, 34, 33, 25, 22, 22]
20.808[20, 21, 24, 25, 27, 22, 19, 22]
20.831[18, 21, 22, 25, 24, 20, 22, 21]
20.854[19, 21, 23, 24, 24, 21, 18, 19]
20.869[20, 21, 24, 20, 25, 22, 18, 18]
20.891[19, 21, 23, 23, 26, 20, 18, 17]
20.913[20, 21, 22, 26, 26, 19, 18, 16]
20.928[21, 21, 23, 27, 28, 20, 16, 17]
20.951[21, 22, 20, 27, 27, 19, 18, 19]
20.974[20, 23, 19, 28, 27, 19, 17, 21]
20.988[22, 25, 20, 27, 24, 22, 17, 21]
21.011[20, 25, 20, 24, 25, 24, 19, 20]
21.033[20, 25, 19, 23, 23, 23, 19, 20]
21.05[20, 24, 20, 23, 22, 22, 18, 18]
21.071[22, 23, 20, 24, 24, 22, 19, 18]
21.094[22, 22, 19, 24, 24, 21, 21, 19]
21.108[22, 22, 21, 23, 23, 19, 20, 20]
21.131[22, 21, 21, 24, 23, 19, 19, 21]
21.153[23, 23, 22, 24, 23, 21, 20, 22]
21.168[22, 24, 24, 23, 22, 21, 19, 40]
21.191[21, 24, 23, 22, 21, 20, 17, 41]
21.215[21, 25, 23, 21, 21, 20, 18, 43]
21.245[21, 25, 24, 21, 20, 20, 19, 43]
21.251[20, 24, 23, 22, 19, 21, 18, 44]
21.276[23, 23, 21, 21, 16, 20, 18, 29]
21.304[23, 21, 21, 21, 18, 19, 20, 27]
21.311[23, 21, 21, 21, 19, 21, 19, 24]
21.335[24, 21, 20, 21, 21, 21, 18, 23]
21.364[23, 21, 19, 20, 21, 22, 20, 22]
21.371[20, 23, 20, 20, 22, 24, 19, 22]
21.395[19, 24, 18, 20, 21, 25, 21, 21]
21.416[18, 22, 17, 19, 20, 23, 21, 21]
21.431[16, 21, 18, 19, 19, 22, 20, 22]
21.454[16, 22, 19, 18, 21, 20, 19, 25]
21.476[17, 22, 19, 19, 22, 18, 19, 24]
21.492[16, 21, 21, 21, 22, 17, 14, 23]
21.522[16, 22, 21, 23, 22, 17, 14, 24]
21.544[19, 23, 19, 23, 22, 17, 15, 23]
21.551[19, 22, 20, 24, 20, 18, 15, 20]
21.574[18, 20, 20, 23, 20, 17, 16, 20]
21.596[20, 22, 20, 21, 22, 18, 17, 20]
21.611[20, 23, 21, 20, 23, 18, 18, 18]
21.634[18, 23, 22, 22, 22, 18, 18, 17]
21.656[20, 24, 21, 23, 22, 28, 18, 16]
21.671[20, 23, 23, 22, 22, 34, 18, 16]
21.695[18, 22, 22, 23, 21, 40, 19, 17]
21.716[18, 21, 21, 22, 19, 46, 20, 16]
21.731[19, 20, 21, 19, 19, 47, 19, 17]
21.754[18, 20, 20, 18, 17, 43, 20, 18]
21.776[19, 22, 18, 21, 18, 38, 19, 17]
21.791[20, 21, 19, 20, 17, 31, 19, 18]
21.814[20, 21, 20, 21, 20, 21, 18, 18]
21.836[19, 21, 20, 21, 21, 17, 19, 18]
21.851[17, 19, 22, 20, 22, 17, 20, 17]
21.882[17, 19, 23, 16, 22, 17, 20, 17]
21.896[15, 20, 23, 18, 22, 17, 19, 17]
21.911[15, 19, 22, 18, 21, 19, 20, 19]
21.934[19, 21, 23, 18, 21, 19, 19, 16]
21.956[21, 22, 22, 18, 20, 17, 17, 18]
21.971[23, 21, 22, 19, 20, 18, 16, 18]
21.994[24, 22, 22, 18, 21, 19, 17, 41]
22.016[26, 23, 22, 17, 19, 18, 17, 44]
22.031[23, 21, 21, 18, 18, 19, 18, 46]
22.053[22, 20, 22, 21, 18, 18, 19, 45]
22.076[21, 21, 22, 22, 19, 18, 20, 46]
22.099[20, 20, 22, 21, 18, 18, 18, 29]
22.114[19, 20, 22, 21, 20, 17, 21, 25]
22.136[19, 20, 23, 20, 20, 17, 20, 22]
22.159[18, 21, 21, 18, 20, 17, 20, 23]
22.174[18, 21, 19, 17, 19, 18, 18, 21]
22.196[18, 20, 17, 18, 19, 18, 20, 19]
22.227[19, 20, 20, 20, 18, 18, 18, 19]
22.25[18, 19, 20, 21, 18, 18, 18, 20]
22.272[19, 20, 21, 20, 18, 18, 18, 19]
22.287[18, 19, 21, 20, 20, 19, 19, 20]
22.294[19, 19, 22, 20, 19, 19, 22, 18]
22.316[22, 18, 20, 18, 20, 18, 21, 18]
22.34[24, 20, 19, 18, 20, 19, 22, 18]
22.362[24, 19, 19, 18, 20, 19, 22, 18]
22.392[24, 20, 17, 19, 19, 18, 21, 17]
22.407[25, 20, 17, 19, 22, 19, 19, 20]
22.413[22, 21, 17, 20, 22, 20, 20, 19]
22.437[21, 19, 18, 22, 24, 19, 19, 20]
22.459[20, 19, 19, 22, 23, 20, 19, 19]
22.473[19, 18, 19, 24, 24, 21, 19, 19]
22.496[18, 19, 21, 24, 22, 19, 20, 17]
22.519[19, 19, 21, 23, 22, 19, 19, 20]
22.534[19, 21, 20, 20, 20, 18, 19, 21]
22.556[20, 20, 19, 21, 20, 19, 20, 21]
22.579[20, 20, 21, 19, 18, 20, 20, 21]
22.594[20, 19, 20, 18, 17, 22, 19, 20]
22.616[19, 18, 20, 20, 19, 22, 19, 19]
22.639[19, 17, 20, 22, 19, 23, 18, 17]
22.654[19, 19, 21, 21, 18, 22, 17, 18]
22.684[20, 19, 20, 22, 19, 21, 18, 19]
22.716[19, 20, 22, 21, 22, 20, 18, 19]
22.718[21, 22, 21, 21, 19, 17, 18, 21]
22.736[20, 21, 21, 18, 20, 18, 18, 23]
22.76[19, 20, 23, 17, 21, 18, 19, 22]
22.773[20, 21, 24, 17, 20, 19, 18, 22]
22.796[23, 21, 23, 17, 20, 19, 17, 22]
22.819[21, 20, 24, 15, 20, 20, 18, 20]
22.833[25, 21, 24, 17, 20, 19, 18, 20]
22.856[24, 20, 23, 18, 18, 19, 17, 19]
22.895[22, 20, 24, 16, 21, 18, 18, 21]
22.896[23, 20, 25, 17, 19, 19, 18, 21]
22.917[26, 20, 24, 19, 20, 21, 19, 23]
22.939[25, 19, 23, 19, 20, 20, 21, 22]
22.962[25, 21, 20, 19, 23, 20, 22, 25]
22.992[28, 19, 20, 20, 22, 20, 24, 22]
22.999[25, 19, 19, 21, 22, 21, 23, 22]
23.014[24, 20, 19, 22, 22, 18, 22, 20]
23.036[27, 22, 18, 21, 22, 18, 21, 21]
23.059[25, 21, 19, 21, 20, 18, 21, 20]
23.073[23, 22, 18, 21, 19, 20, 20, 20]
23.096[25, 22, 20, 20, 21, 20, 20, 20]
23.119[24, 21, 20, 19, 20, 22, 20, 20]
23.156[19, 20, 20, 20, 21, 22, 19, 17]
23.173[21, 21, 20, 20, 20, 20, 19, 17]
23.194[20, 21, 23, 20, 19, 18, 17, 16]
23.204[22, 21, 23, 20, 22, 18, 16, 15]
23.216[21, 21, 23, 19, 22, 18, 17, 17]
23.239[22, 21, 24, 19, 22, 19, 17, 18]
23.269[22, 20, 23, 17, 23, 21, 15, 18]
23.284[24, 20, 23, 18, 24, 21, 16, 18]
23.307[24, 23, 22, 18, 20, 23, 17, 20]
23.329[24, 23, 21, 18, 20, 23, 15, 19]
23.336[24, 23, 21, 20, 19, 22, 16, 19]
23.359[23, 24, 20, 20, 18, 21, 19, 18]
23.381[23, 26, 18, 19, 19, 22, 18, 18]
23.396[23, 24, 19, 17, 20, 19, 19, 18]
23.427[23, 22, 20, 17, 20, 18, 20, 17]
23.449[22, 24, 20, 15, 21, 18, 20, 18]
23.458[22, 21, 22, 16, 19, 17, 19, 19]
23.481[22, 20, 22, 17, 17, 18, 20, 20]
23.502[19, 19, 22, 19, 17, 19, 20, 19]
23.525[19, 20, 24, 20, 18, 20, 18, 21]
23.541[19, 20, 23, 20, 18, 21, 18, 19]
23.562[21, 21, 22, 21, 19, 21, 18, 19]
23.576[21, 20, 22, 21, 21, 21, 19, 18]
23.599[23, 20, 22, 20, 20, 21, 18, 18]
23.622[22, 20, 20, 20, 18, 22, 19, 16]
23.636[22, 20, 22, 20, 19, 20, 20, 16]
23.659[21, 22, 23, 18, 20, 20, 20, 17]
23.682[20, 21, 22, 19, 18, 20, 19, 17]
23.697[19, 24, 22, 20, 18, 18, 19, 18]
23.72[21, 24, 22, 19, 18, 15, 19, 18]
23.742[21, 23, 20, 19, 18, 16, 17, 17]
23.756[22, 23, 19, 20, 17, 18, 17, 18]
23.779[23, 25, 18, 21, 18, 19, 15, 18]
23.802[21, 22, 19, 19, 21, 19, 16, 20]
23.824[22, 24, 20, 21, 21, 21, 17, 19]
23.839[21, 23, 20, 22, 21, 21, 17, 21]
23.862[20, 23, 21, 22, 19, 20, 17, 20]
23.876[19, 23, 21, 22, 20, 19, 19, 20]
23.899[20, 22, 22, 22, 16, 20, 20, 18]
23.922[21, 20, 21, 21, 16, 19, 20, 19]
23.936[21, 21, 21, 20, 16, 20, 20, 18]
23.967[23, 20, 21, 20, 17, 20, 21, 17]
23.998[22, 19, 21, 21, 16, 21, 22, 17]
23.999[22, 18, 20, 22, 18, 19, 21, 16]
24.019[20, 16, 19, 23, 19, 20, 19, 16]
24.042[19, 18, 19, 22, 19, 19, 20, 19]
24.064[17, 18, 19, 22, 19, 18, 20, 19]
24.086[18, 17, 19, 19, 20, 18, 20, 19]
24.102[17, 19, 18, 19, 20, 18, 20, 20]
24.124[17, 20, 19, 17, 19, 19, 22, 19]
24.139[18, 19, 20, 16, 19, 20, 22, 16]
24.162[20, 19, 19, 18, 20, 19, 21, 16]
24.184[20, 20, 18, 19, 19, 19, 21, 15]
24.199[22, 17, 19, 18, 20, 20, 21, 17]
24.222[22, 18, 20, 18, 20, 19, 19, 16]
24.245[21, 18, 19, 20, 20, 20, 19, 17]
24.259[19, 19, 20, 19, 20, 22, 19, 17]
24.282[19, 18, 22, 20, 20, 23, 20, 17]
24.304[18, 19, 20, 20, 19, 21, 19, 16]
24.319[19, 19, 19, 19, 20, 21, 20, 17]
24.349[17, 19, 20, 17, 19, 19, 20, 20]
24.364[17, 18, 20, 17, 19, 19, 21, 21]
24.38[19, 19, 20, 17, 20, 19, 20, 46]
24.402[18, 19, 21, 17, 21, 20, 21, 47]
24.424[21, 19, 22, 18, 20, 21, 23, 49]
24.439[21, 19, 20, 20, 21, 22, 22, 48]
24.462[22, 20, 22, 18, 21, 20, 21, 48]
24.484[22, 21, 21, 19, 23, 21, 20, 28]
24.499[22, 22, 20, 20, 21, 20, 19, 26]
24.522[22, 21, 19, 20, 22, 18, 18, 22]
24.544[23, 21, 21, 17, 21, 18, 18, 21]
24.558[21, 20, 19, 20, 22, 16, 19, 22]
24.582[20, 21, 19, 18, 19, 17, 21, 18]
24.604[19, 22, 20, 18, 20, 19, 20, 22]
24.634[16, 24, 20, 18, 21, 19, 18, 21]
24.642[16, 24, 19, 18, 21, 20, 19, 21]
24.664[18, 25, 20, 17, 19, 22, 18, 20]
24.678[19, 23, 20, 20, 19, 20, 17, 20]
24.702[18, 20, 19, 20, 21, 19, 18, 18]
24.724[18, 21, 21, 21, 20, 19, 20, 18]
24.747[18, 22, 21, 23, 21, 18, 20, 17]
24.762[17, 20, 22, 23, 21, 18, 22, 19]
24.783[18, 21, 20, 22, 21, 20, 21, 18]
24.806[19, 22, 20, 21, 20, 18, 21, 18]
24.822[17, 21, 18, 20, 20, 19, 20, 19]
24.843[17, 20, 19, 20, 19, 21, 20, 19]
24.866[18, 22, 20, 19, 19, 20, 20, 18]
24.914[16, 23, 20, 20, 19, 19, 20, 19]
24.915[16, 23, 20, 19, 18, 20, 21, 20]
24.934[18, 22, 20, 22, 19, 19, 19, 20]
24.95[18, 23, 20, 21, 20, 19, 19, 20]
24.963[17, 22, 18, 21, 20, 21, 19, 18]
24.986[20, 18, 19, 19, 21, 22, 19, 19]
25.002[20, 18, 20, 21, 21, 22, 19, 17]
25.024[19, 20, 20, 17, 19, 22, 19, 18]
25.046[20, 19, 20, 17, 20, 21, 19, 17]
25.062[20, 19, 19, 18, 18, 20, 18, 18]
25.083[18, 20, 18, 18, 16, 19, 19, 18]
25.106[17, 20, 17, 20, 18, 17, 18, 20]
25.122[18, 21, 20, 22, 19, 18, 20, 19]
25.145[18, 21, 20, 22, 18, 20, 20, 20]
25.182[21, 22, 21, 21, 18, 20, 21, 20]
25.184[21, 22, 22, 21, 19, 20, 20, 19]
25.211[22, 24, 21, 18, 18, 21, 20, 19]
25.226[21, 22, 19, 18, 16, 20, 18, 20]
25.242[24, 22, 19, 20, 17, 18, 17, 20]
25.263[21, 21, 18, 19, 16, 17, 18, 19]
25.286[21, 22, 18, 19, 19, 17, 19, 20]
25.302[21, 19, 18, 21, 19, 15, 21, 18]
25.324[20, 19, 19, 20, 18, 15, 20, 17]
25.346[17, 19, 17, 20, 20, 16, 21, 16]
25.362[18, 22, 18, 21, 21, 17, 19, 16]
25.383[17, 21, 19, 21, 20, 19, 18, 15]
25.406[17, 21, 21, 21, 21, 20, 16, 16]
25.422[19, 22, 21, 20, 23, 20, 16, 18]
25.451[18, 23, 23, 19, 22, 21, 15, 19]
25.466[18, 21, 24, 18, 22, 20, 17, 20]
25.482[18, 21, 24, 17, 21, 19, 19, 21]
25.504[18, 22, 23, 16, 20, 18, 20, 20]
25.526[16, 23, 23, 17, 20, 20, 19, 19]
25.541[15, 22, 21, 16, 19, 18, 21, 20]
25.563[15, 23, 19, 18, 20, 20, 19, 19]
25.586[15, 23, 19, 19, 22, 18, 19, 18]
25.601[15, 22, 19, 20, 22, 18, 19, 19]
25.623[17, 20, 19, 20, 21, 14, 21, 19]
25.646[17, 23, 19, 22, 23, 16, 19, 18]
25.661[18, 22, 19, 22, 21, 16, 19, 19]
25.683[19, 22, 19, 22, 21, 18, 18, 19]
25.706[19, 21, 20, 21, 20, 18, 19, 19]
25.721[18, 22, 20, 22, 22, 21, 19, 18]
25.743[21, 20, 19, 21, 20, 20, 20, 18]
25.767[21, 18, 19, 22, 21, 19, 21, 18]
25.789[21, 19, 20, 21, 21, 19, 21, 19]
25.803[21, 20, 19, 22, 22, 21, 19, 19]
25.826[21, 19, 19, 23, 20, 18, 19, 20]
25.841[19, 18, 21, 22, 20, 20, 18, 21]
25.864[19, 21, 20, 21, 20, 21, 18, 21]
25.886[18, 20, 20, 21, 21, 22, 17, 20]
25.901[18, 20, 19, 21, 21, 19, 19, 18]
25.924[18, 22, 22, 19, 21, 20, 19, 17]
25.946[17, 23, 22, 18, 20, 22, 19, 16]
25.968[18, 22, 23, 18, 20, 21, 18, 16]
25.985[18, 23, 23, 19, 18, 21, 18, 17]
26.006[19, 23, 22, 19, 20, 22, 17, 18]
26.029[19, 22, 19, 21, 20, 22, 17, 18]
26.043[19, 20, 19, 20, 21, 19, 17, 19]
26.067[19, 21, 19, 21, 22, 19, 17, 18]
26.088[18, 20, 19, 19, 22, 18, 18, 18]
26.103[19, 20, 20, 19, 21, 18, 18, 18]
26.127[21, 19, 23, 17, 22, 19, 20, 19]
26.148[22, 20, 22, 20, 21, 18, 20, 19]
26.163[21, 19, 21, 20, 20, 19, 21, 19]
26.186[21, 20, 23, 23, 21, 18, 19, 19]
26.208[19, 20, 23, 23, 21, 18, 18, 20]
26.239[16, 22, 22, 23, 21, 18, 15, 20]
26.246[17, 21, 22, 22, 21, 18, 17, 19]
26.268[18, 22, 23, 24, 22, 17, 15, 19]
26.283[20, 22, 22, 22, 21, 17, 16, 19]
26.306[19, 20, 24, 21, 20, 18, 17, 18]
26.328[22, 19, 23, 22, 20, 19, 19, 19]
26.344[20, 21, 23, 21, 20, 18, 18, 20]
26.367[21, 20, 22, 20, 20, 20, 18, 19]
26.389[19, 19, 22, 18, 22, 22, 17, 19]
26.403[21, 20, 19, 18, 21, 21, 19, 22]
26.426[18, 21, 23, 18, 20, 21, 17, 21]
26.448[20, 19, 24, 19, 23, 22, 18, 19]
26.463[19, 19, 24, 17, 22, 21, 19, 20]
26.486[20, 20, 24, 17, 20, 19, 20, 21]
26.508[18, 21, 24, 18, 20, 19, 20, 18]
26.523[19, 21, 19, 17, 22, 19, 21, 19]
26.546[17, 22, 19, 20, 18, 18, 21, 19]
26.569[16, 21, 19, 20, 18, 18, 20, 20]
26.583[18, 20, 19, 20, 20, 19, 21, 19]
26.606[18, 17, 21, 20, 20, 19, 19, 19]
26.628[19, 18, 22, 21, 19, 18, 19, 19]
26.643[19, 19, 21, 18, 20, 20, 18, 18]
26.666[21, 21, 23, 19, 19, 20, 19, 17]
26.688[19, 22, 22, 21, 19, 19, 18, 18]
26.703[21, 22, 19, 22, 19, 19, 18, 18]
26.727[20, 22, 19, 21, 20, 21, 17, 17]
26.748[20, 21, 23, 21, 19, 19, 19, 17]
26.771[20, 19, 22, 21, 20, 19, 18, 17]
26.786[22, 20, 22, 19, 20, 19, 17, 17]
26.809[22, 21, 23, 18, 21, 18, 17, 17]
26.823[22, 19, 23, 17, 20, 18, 18, 19]
26.847[23, 21, 22, 16, 20, 19, 17, 20]
26.868[22, 22, 21, 17, 21, 21, 17, 20]
26.891[22, 22, 21, 17, 20, 22, 17, 19]
26.906[20, 21, 20, 16, 19, 22, 17, 20]
26.928[20, 22, 20, 19, 20, 20, 17, 18]
26.951[19, 21, 17, 19, 19, 20, 17, 18]
26.966[20, 19, 20, 19, 19, 19, 19, 17]
26.989[19, 20, 20, 20, 18, 17, 19, 20]
27.011[19, 19, 22, 21, 16, 18, 20, 19]
27.026[19, 19, 22, 19, 18, 19, 19, 18]
27.048[19, 19, 22, 19, 17, 21, 19, 18]
27.071[18, 20, 20, 19, 17, 19, 17, 18]
27.086[19, 21, 22, 19, 18, 20, 17, 16]
27.108[21, 22, 21, 18, 20, 21, 15, 17]
27.131[21, 21, 21, 20, 17, 22, 16, 19]
27.154[20, 22, 21, 20, 19, 21, 18, 19]
27.168[19, 22, 20, 20, 21, 22, 18, 18]
27.191[19, 21, 17, 20, 21, 21, 18, 19]
27.206[18, 21, 18, 21, 21, 21, 20, 19]
27.229[18, 22, 20, 19, 22, 19, 22, 17]
27.251[19, 21, 20, 20, 21, 23, 19, 17]
27.266[20, 19, 21, 20, 19, 21, 19, 16]
27.288[20, 21, 21, 21, 18, 22, 20, 16]
27.311[20, 22, 21, 21, 19, 21, 21, 17]
27.326[21, 20, 20, 22, 17, 24, 18, 17]
27.349[20, 21, 23, 21, 20, 22, 19, 17]
27.372[19, 23, 22, 22, 20, 23, 19, 19]
27.386[18, 22, 22, 22, 21, 22, 20, 19]
27.409[19, 21, 21, 20, 19, 22, 18, 17]
27.432[17, 23, 22, 21, 21, 19, 19, 19]
27.446[18, 22, 19, 19, 18, 18, 19, 19]
27.468[19, 20, 21, 16, 18, 17, 19, 18]
27.492[20, 20, 21, 16, 18, 17, 18, 17]
27.506[20, 20, 22, 17, 18, 17, 18, 18]
27.537[21, 19, 21, 16, 19, 16, 17, 17]
27.552[20, 20, 22, 18, 19, 18, 19, 17]
27.566[19, 20, 20, 18, 19, 18, 20, 17]
27.588[19, 20, 18, 18, 21, 17, 19, 18]
27.612[19, 20, 18, 20, 21, 18, 20, 18]
27.626[20, 19, 19, 22, 18, 19, 20, 21]
27.648[19, 17, 18, 21, 19, 19, 19, 21]
27.672[20, 16, 20, 23, 20, 19, 17, 22]
27.686[21, 17, 21, 23, 20, 20, 18, 23]
27.708[21, 17, 20, 22, 20, 18, 18, 22]
27.732[20, 16, 19, 23, 22, 19, 18, 20]
27.746[22, 21, 20, 23, 21, 17, 17, 21]
27.768[22, 21, 18, 23, 21, 18, 20, 20]
27.792[22, 22, 18, 23, 19, 17, 21, 19]
27.814[21, 22, 17, 22, 19, 17, 21, 19]
27.828[21, 22, 21, 23, 20, 15, 20, 19]
27.853[22, 18, 19, 23, 20, 17, 21, 19]
27.874[22, 18, 22, 21, 20, 16, 19, 17]
27.888[21, 20, 22, 20, 21, 17, 18, 17]
27.919[21, 20, 22, 22, 21, 19, 18, 17]
27.934[22, 20, 18, 18, 21, 19, 18, 17]
27.948[19, 21, 19, 19, 22, 17, 19, 15]
27.972[19, 21, 18, 19, 22, 19, 18, 16]
27.994[20, 19, 17, 20, 23, 18, 20, 17]
28.008[22, 19, 19, 20, 23, 18, 20, 17]
28.031[21, 21, 19, 20, 21, 18, 20, 17]
28.055[21, 21, 19, 20, 20, 18, 18, 18]
28.069[21, 21, 18, 21, 20, 17, 19, 19]
28.091[21, 22, 20, 20, 21, 18, 18, 18]
28.114[20, 22, 19, 20, 23, 16, 18, 19]
28.128[20, 21, 19, 21, 22, 18, 18, 21]
28.151[20, 22, 19, 20, 21, 16, 19, 22]
28.174[21, 21, 18, 20, 21, 17, 17, 21]
28.188[22, 21, 18, 21, 21, 16, 19, 22]
28.212[21, 21, 20, 21, 18, 17, 19, 21]
28.234[21, 20, 21, 21, 19, 15, 19, 20]
28.248[20, 18, 23, 21, 19, 18, 20, 21]
28.271[18, 17, 25, 21, 19, 18, 22, 20]
28.295[19, 19, 24, 20, 18, 20, 20, 20]
28.308[19, 20, 22, 21, 20, 21, 19, 18]
28.332[18, 22, 21, 22, 21, 21, 20, 18]
28.354[18, 21, 20, 21, 21, 20, 19, 18]
28.368[18, 22, 19, 22, 19, 20, 19, 18]
28.392[15, 20, 20, 23, 18, 19, 19, 17]
28.414[15, 22, 22, 22, 19, 19, 19, 17]
28.428[15, 20, 21, 21, 18, 19, 21, 19]
28.452[16, 19, 21, 21, 20, 19, 20, 18]
28.475[18, 20, 21, 20, 22, 18, 18, 18]
28.488[20, 21, 21, 19, 23, 18, 18, 18]
28.511[20, 21, 22, 20, 22, 18, 19, 18]
28.542[22, 21, 22, 19, 22, 17, 17, 19]
28.548[21, 22, 22, 18, 20, 18, 15, 19]
28.572[22, 21, 23, 19, 17, 17, 15, 20]
28.594[21, 20, 21, 19, 18, 17, 15, 19]
28.608[22, 18, 20, 18, 18, 18, 16, 19]
28.632[20, 18, 20, 19, 19, 18, 15, 18]
28.654[20, 17, 20, 20, 19, 17, 16, 19]
28.668[20, 19, 19, 19, 20, 18, 18, 18]
28.691[18, 19, 19, 20, 20, 17, 19, 19]
28.73[18, 18, 18, 20, 19, 17, 19, 20]
28.731[19, 19, 20, 18, 19, 17, 18, 19]
28.751[20, 18, 19, 19, 22, 17, 19, 17]
28.774[19, 16, 19, 19, 21, 17, 17, 17]
28.805[18, 18, 19, 20, 21, 17, 15, 18]
28.811[18, 19, 19, 19, 22, 17, 17, 17]
28.834[18, 19, 18, 21, 20, 17, 17, 17]
28.857[16, 21, 19, 23, 19, 18, 17, 17]
28.871[17, 22, 17, 22, 19, 18, 19, 17]
28.894[17, 22, 19, 21, 19, 18, 19, 17]
28.917[18, 20, 19, 21, 20, 18, 17, 17]
28.931[17, 20, 20, 20, 20, 20, 19, 18]
28.955[18, 18, 20, 16, 20, 19, 18, 19]
28.977[19, 20, 20, 19, 19, 18, 18, 21]
28.991[21, 19, 20, 20, 21, 19, 19, 20]
29.014[20, 21, 19, 21, 19, 18, 19, 22]
29.037[21, 21, 19, 21, 20, 17, 18, 22]
29.051[20, 22, 19, 23, 21, 17, 21, 21]
29.074[20, 21, 19, 22, 22, 17, 19, 18]
29.097[17, 23, 18, 21, 19, 17, 19, 21]
29.112[18, 22, 18, 19, 20, 18, 19, 19]
29.134[17, 23, 17, 19, 18, 17, 18, 19]
29.157[19, 22, 17, 18, 21, 20, 15, 19]
29.172[19, 21, 19, 19, 20, 19, 16, 19]
29.194[19, 21, 20, 20, 20, 19, 18, 16]
29.216[20, 20, 20, 20, 20, 18, 18, 15]
29.239[21, 20, 21, 22, 21, 18, 19, 17]
29.254[20, 21, 22, 20, 18, 16, 21, 19]
29.277[20, 22, 21, 21, 20, 17, 21, 19]
29.291[20, 20, 20, 20, 19, 18, 20, 19]
29.314[18, 20, 20, 20, 19, 18, 21, 20]
29.337[16, 20, 20, 20, 19, 21, 20, 20]
29.359[16, 21, 18, 20, 19, 20, 22, 18]
29.374[16, 19, 19, 18, 18, 20, 21, 19]
29.397[17, 20, 19, 18, 20, 20, 21, 20]
29.411[17, 20, 19, 18, 21, 20, 20, 19]
29.434[18, 21, 18, 19, 19, 18, 20, 18]
29.457[19, 20, 21, 19, 18, 20, 17, 18]
29.471[20, 21, 19, 19, 20, 20, 18, 18]
29.494[20, 22, 19, 20, 18, 19, 18, 17]
29.516[21, 21, 20, 19, 17, 20, 18, 18]
29.531[22, 20, 21, 20, 18, 19, 18, 18]
29.554[20, 20, 20, 20, 17, 17, 18, 18]
29.576[19, 21, 21, 21, 16, 18, 18, 18]
29.591[19, 21, 21, 21, 18, 18, 18, 18]
29.622[18, 21, 20, 20, 19, 18, 18, 17]
29.637[16, 21, 22, 18, 18, 19, 17, 18]
29.659[18, 22, 21, 18, 20, 20, 16, 21]
29.674[19, 19, 21, 16, 23, 19, 16, 20]
29.696[18, 18, 20, 16, 22, 21, 17, 19]
29.711[19, 19, 20, 16, 22, 20, 18, 20]
29.734[19, 18, 19, 20, 23, 20, 18, 20]
29.756[17, 18, 20, 20, 22, 18, 18, 18]
29.779[19, 20, 19, 21, 19, 21, 19, 20]
29.795[18, 21, 20, 21, 19, 20, 20, 21]
29.817[20, 21, 21, 21, 19, 19, 19, 23]
29.839[20, 21, 19, 17, 19, 20, 19, 22]
29.855[21, 21, 19, 19, 19, 19, 20, 23]
29.876[20, 20, 21, 20, 21, 17, 21, 22]
29.899[20, 20, 22, 20, 20, 17, 18, 21]
29.915[18, 18, 20, 20, 21, 18, 19, 21]
29.937[19, 20, 20, 19, 20, 17, 20, 21]
29.959[20, 18, 21, 18, 20, 18, 20, 20]
29.975[20, 17, 19, 17, 18, 18, 18, 21]
29.996[21, 17, 18, 18, 20, 19, 19, 21]
30.019[20, 18, 21, 19, 20, 19, 18, 20]
30.035[22, 17, 21, 21, 20, 20, 18, 20]
30.056[20, 19, 19, 21, 20, 21, 19, 19]
30.079[20, 19, 17, 21, 20, 21, 19, 18]
30.095[21, 20, 18, 20, 18, 21, 19, 20]
30.116[20, 19, 14, 20, 19, 21, 20, 19]
30.139[18, 19, 14, 21, 19, 21, 19, 18]
30.169[18, 18, 15, 21, 20, 21, 18, 19]
30.176[18, 19, 17, 22, 20, 20, 18, 19]
30.198[17, 19, 16, 22, 20, 20, 18, 17]
30.215[17, 19, 19, 22, 19, 19, 17, 16]
30.236[18, 20, 20, 20, 19, 20, 17, 17]
30.258[20, 21, 21, 21, 17, 20, 17, 17]
30.275[21, 21, 19, 19, 19, 21, 19, 16]
30.296[20, 21, 23, 21, 18, 20, 17, 15]
30.319[22, 22, 20, 20, 18, 20, 19, 18]
30.335[22, 22, 22, 21, 17, 20, 20, 18]
30.356[21, 23, 21, 22, 18, 18, 19, 18]
30.38[20, 21, 22, 21, 17, 18, 19, 18]
30.395[21, 22, 19, 20, 19, 18, 20, 19]
30.416[20, 23, 21, 21, 20, 18, 18, 17]
30.438[19, 23, 21, 19, 19, 17, 17, 17]
30.455[20, 21, 20, 17, 19, 18, 18, 18]
30.477[20, 22, 20, 19, 20, 17, 18, 18]
30.5[22, 21, 21, 20, 19, 16, 17, 19]
30.522[21, 21, 21, 23, 26, 17, 20, 20]
30.543[22, 22, 21, 27, 30, 19, 19, 20]
30.559[29, 26, 25, 33, 35, 19, 19, 19]
30.575[29, 26, 26, 33, 38, 23, 21, 21]
30.596[28, 27, 27, 37, 45, 27, 22, 23]
30.62[30, 28, 28, 43, 63, 35, 27, 23]
30.635[37, 33, 30, 49, 65, 37, 29, 25]
30.656[38, 38, 31, 57, 70, 40, 30, 29]
30.679[41, 43, 41, 78, 93, 50, 30, 29]
30.703[48, 49, 55, 132, 110, 61, 75, 36]
30.717[54, 57, 68, 156, 108, 59, 83, 43]
30.747[54, 56, 69, 181, 119, 64, 101, 47]
30.761[58, 59, 87, 242, 182, 86, 106, 49]
30.776[58, 61, 90, 259, 183, 89, 112, 53]
30.799[58, 63, 88, 246, 189, 96, 104, 51]
30.821[56, 62, 82, 243, 196, 102, 102, 48]
30.836[57, 71, 89, 255, 254, 111, 89, 47]
30.859[55, 70, 72, 203, 225, 99, 89, 43]
30.881[55, 69, 69, 181, 228, 94, 84, 40]
30.896[53, 67, 67, 182, 223, 87, 67, 36]
30.918[52, 69, 70, 177, 237, 91, 63, 34]
30.941[51, 62, 62, 139, 187, 79, 62, 35]
30.957[53, 68, 70, 159, 247, 88, 58, 36]
30.98[55, 71, 73, 157, 246, 89, 62, 38]
31.001[60, 78, 79, 177, 255, 88, 68, 40]
31.025[63, 78, 80, 178, 266, 90, 75, 41]
31.038[67, 85, 89, 189, 279, 100, 76, 41]
31.061[78, 94, 91, 179, 244, 98, 84, 44]
31.076[81, 100, 90, 179, 246, 101, 79, 44]
31.099[81, 100, 87, 152, 246, 103, 82, 45]
31.122[84, 104, 91, 149, 233, 105, 89, 53]
31.136[82, 101, 85, 129, 215, 102, 106, 55]
31.166[75, 98, 81, 109, 188, 97, 119, 52]
31.189[74, 93, 76, 114, 181, 101, 125, 52]
31.196[71, 88, 73, 132, 185, 99, 123, 49]
31.218[69, 86, 64, 145, 188, 92, 116, 39]
31.249[69, 87, 64, 147, 187, 96, 99, 34]
31.256[60, 73, 55, 150, 183, 96, 74, 38]
31.28[59, 72, 57, 149, 183, 94, 69, 43]
31.309[63, 82, 60, 126, 164, 91, 101, 43]
31.316[62, 81, 57, 95, 138, 86, 105, 44]
31.338[59, 78, 53, 96, 134, 76, 112, 44]
31.361[59, 79, 54, 95, 146, 75, 113, 39]
31.376[54, 74, 53, 88, 142, 68, 112, 33]
31.4[48, 62, 46, 85, 138, 63, 83, 31]
31.421[52, 67, 50, 94, 158, 73, 72, 33]
31.436[49, 63, 52, 90, 148, 70, 60, 30]
31.458[47, 62, 53, 91, 137, 70, 63, 31]
31.481[49, 64, 56, 87, 131, 69, 60, 31]
31.496[48, 63, 53, 90, 147, 76, 66, 36]
31.518[35, 48, 51, 85, 114, 68, 74, 39]
31.549[38, 51, 50, 85, 124, 71, 90, 40]
31.555[40, 52, 51, 87, 124, 72, 88, 38]
31.58[38, 47, 45, 86, 133, 69, 88, 37]
31.601[45, 54, 51, 87, 110, 62, 79, 34]
31.623[46, 54, 50, 86, 124, 64, 78, 29]
31.638[53, 66, 61, 105, 140, 59, 67, 37]
31.661[56, 68, 61, 103, 143, 61, 63, 39]
31.683[57, 68, 62, 105, 135, 65, 63, 39]
31.698[58, 67, 59, 104, 141, 67, 62, 43]
31.721[58, 65, 56, 102, 130, 65, 54, 41]
31.743[49, 52, 44, 85, 126, 77, 42, 36]
31.76[46, 50, 42, 86, 121, 73, 66, 37]
31.789[46, 48, 39, 94, 146, 79, 69, 39]
31.812[41, 40, 38, 94, 153, 83, 85, 34]
31.819[43, 45, 40, 96, 163, 89, 88, 36]
31.841[49, 55, 44, 95, 158, 87, 96, 37]
31.863[49, 56, 43, 90, 158, 91, 85, 34]
31.88[49, 57, 44, 77, 139, 86, 93, 34]
31.901[49, 61, 45, 69, 129, 83, 79, 33]
31.923[51, 63, 49, 71, 135, 89, 80, 34]
31.939[49, 58, 52, 69, 121, 86, 71, 35]
31.961[48, 58, 53, 74, 120, 94, 68, 36]
31.983[52, 62, 56, 82, 136, 111, 104, 45]
31.998[51, 61, 57, 85, 138, 112, 104, 45]
32.03[50, 58, 55, 80, 130, 102, 104, 43]
32.043[47, 57, 50, 75, 137, 98, 108, 41]
32.058[47, 56, 49, 81, 152, 91, 108, 41]
32.081[46, 58, 50, 75, 145, 77, 62, 29]
32.111[46, 56, 50, 82, 149, 86, 61, 32]
32.118[45, 55, 49, 90, 156, 90, 58, 33]
32.149[43, 54, 50, 89, 148, 96, 108, 36]
32.171[45, 54, 49, 81, 131, 93, 115, 37]
32.178[42, 49, 47, 80, 130, 86, 115, 37]
32.201[44, 53, 47, 83, 139, 79, 117, 38]
32.223[43, 53, 46, 83, 131, 80, 124, 38]
32.247[47, 56, 43, 88, 146, 72, 83, 34]
32.261[46, 58, 48, 95, 162, 76, 76, 34]
32.283[51, 64, 50, 95, 154, 73, 75, 33]
32.299[49, 61, 50, 87, 141, 68, 73, 30]
32.323[50, 62, 50, 80, 129, 59, 58, 30]
32.343[49, 60, 53, 73, 115, 63, 66, 34]
32.358[49, 60, 53, 71, 110, 64, 60, 33]
32.389[42, 55, 51, 81, 119, 70, 68, 36]
32.411[43, 54, 51, 78, 116, 70, 68, 36]
32.418[45, 59, 54, 84, 127, 72, 70, 36]
32.441[45, 58, 52, 84, 126, 64, 56, 35]
32.463[43, 54, 48, 75, 107, 62, 71, 39]
32.478[44, 55, 49, 67, 100, 64, 69, 37]
32.501[44, 56, 49, 73, 112, 68, 70, 40]
32.523[43, 52, 51, 75, 107, 67, 74, 40]
32.538[43, 56, 54, 75, 104, 67, 76, 38]
32.561[43, 58, 56, 82, 114, 66, 69, 47]
32.583[41, 54, 54, 83, 117, 63, 67, 50]
32.607[45, 57, 55, 82, 130, 61, 64, 48]
32.621[42, 53, 48, 75, 128, 62, 69, 49]
32.643[40, 47, 45, 80, 141, 69, 68, 49]
32.666[39, 42, 42, 74, 135, 68, 76, 38]
32.681[42, 49, 43, 80, 143, 79, 122, 40]
32.712[37, 45, 43, 105, 159, 87, 129, 42]
32.726[39, 46, 45, 106, 162, 87, 123, 40]
32.741[40, 51, 49, 107, 155, 85, 122, 39]
32.763[41, 54, 50, 111, 160, 88, 116, 39]
32.787[40, 51, 48, 106, 149, 77, 74, 35]
32.801[44, 58, 51, 79, 110, 73, 68, 43]
32.823[47, 61, 50, 76, 113, 70, 74, 44]
32.846[50, 62, 48, 73, 110, 73, 81, 45]
32.861[52, 63, 49, 70, 126, 75, 87, 45]
32.883[54, 64, 52, 69, 126, 75, 78, 44]
32.907[53, 64, 49, 67, 134, 73, 72, 34]
32.921[50, 60, 53, 68, 133, 80, 80, 37]
32.944[46, 57, 53, 64, 130, 75, 76, 41]
32.966[46, 55, 50, 63, 109, 68, 68, 41]
32.981[43, 53, 51, 69, 116, 78, 76, 46]
33.004[40, 45, 51, 73, 108, 75, 78, 46]
33.026[40, 49, 51, 76, 110, 70, 65, 43]
33.041[39, 47, 49, 88, 123, 74, 66, 41]
33.064[36, 46, 49, 89, 130, 76, 73, 41]
33.087[35, 43, 45, 88, 125, 67, 87, 53]
33.101[39, 47, 45, 88, 120, 69, 124, 57]
33.124[39, 43, 40, 82, 113, 71, 127, 56]
33.147[44, 51, 42, 74, 111, 78, 125, 54]
33.161[45, 55, 42, 72, 107, 76, 123, 53]
33.185[48, 58, 47, 69, 116, 76, 129, 38]
33.206[53, 62, 46, 64, 133, 78, 98, 37]
33.221[56, 70, 55, 72, 142, 79, 97, 36]
33.244[53, 64, 53, 72, 137, 70, 100, 36]
33.266[54, 62, 53, 71, 136, 70, 97, 37]
33.281[52, 59, 48, 68, 125, 65, 66, 35]
33.304[45, 53, 48, 68, 106, 60, 60, 32]
33.326[42, 46, 39, 74, 111, 60, 63, 38]
33.349[43, 50, 41, 71, 105, 56, 57, 44]
33.371[38, 48, 40, 68, 98, 59, 64, 49]
33.402[39, 48, 39, 67, 97, 60, 76, 52]
33.416[42, 52, 41, 72, 108, 60, 78, 49]
33.424[40, 49, 43, 63, 93, 57, 71, 47]
33.447[46, 53, 46, 64, 97, 64, 73, 42]
33.461[52, 58, 50, 68, 107, 69, 96, 39]
33.492[54, 61, 53, 70, 112, 71, 98, 36]
33.507[51, 57, 53, 75, 114, 71, 97, 44]
33.537[57, 60, 51, 75, 120, 75, 101, 46]
33.545[51, 52, 46, 73, 118, 71, 99, 45]
33.566[45, 46, 43, 70, 111, 65, 70, 42]
33.589[49, 54, 48, 74, 110, 69, 61, 41]
33.604[47, 55, 48, 75, 111, 67, 64, 33]
33.627[45, 59, 51, 75, 105, 65, 58, 30]
33.649[47, 61, 52, 76, 105, 64, 60, 29]
33.664[51, 66, 54, 78, 106, 64, 58, 28]
33.694[48, 62, 54, 83, 106, 61, 50, 28]
33.717[49, 61, 50, 73, 101, 63, 52, 34]
33.724[43, 54, 47, 68, 94, 60, 72, 36]
33.762[43, 54, 49, 74, 100, 60, 79, 37]
33.769[38, 48, 45, 82, 110, 59, 86, 43]
33.784[40, 50, 45, 92, 138, 63, 87, 44]
33.806[40, 50, 46, 93, 135, 61, 86, 41]
33.829[41, 54, 49, 98, 142, 63, 74, 41]
33.844[43, 56, 48, 92, 138, 61, 74, 41]
33.874[47, 61, 55, 93, 139, 60, 65, 35]
33.889[43, 55, 50, 75, 108, 57, 66, 34]
33.904[45, 55, 49, 76, 110, 58, 63, 33]
33.926[49, 53, 46, 71, 103, 53, 61, 36]
33.949[46, 49, 45, 73, 107, 58, 49, 36]
33.964[42, 42, 38, 62, 94, 55, 50, 36]
33.994[44, 44, 38, 62, 92, 50, 45, 36]
34.009[42, 46, 41, 62, 91, 45, 39, 36]
34.032[39, 46, 44, 70, 114, 54, 39, 36]
34.047[44, 51, 49, 72, 117, 59, 43, 36]
34.069[47, 53, 50, 79, 121, 60, 59, 39]
34.083[47, 56, 51, 79, 120, 65, 65, 38]
34.107[47, 52, 49, 77, 114, 68, 68, 37]
34.129[49, 51, 46, 66, 86, 61, 64, 31]
34.143[49, 56, 50, 74, 85, 60, 70, 32]
34.167[49, 58, 53, 77, 92, 67, 82, 34]
34.189[54, 66, 59, 85, 96, 66, 81, 36]
34.203[54, 67, 59, 88, 106, 64, 79, 36]
34.226[49, 64, 58, 92, 111, 66, 82, 36]
34.249[50, 61, 54, 87, 123, 61, 76, 37]
34.263[48, 58, 50, 79, 122, 54, 49, 32]
34.287[40, 47, 43, 83, 140, 60, 42, 29]
34.309[41, 48, 45, 80, 132, 58, 62, 33]
34.331[42, 49, 45, 81, 141, 62, 76, 33]
34.354[38, 46, 43, 74, 131, 60, 77, 30]
34.376[42, 49, 43, 84, 148, 60, 78, 31]
34.383[49, 56, 44, 76, 137, 59, 82, 33]
34.406[47, 56, 44, 78, 139, 64, 68, 29]
34.429[50, 59, 46, 77, 131, 60, 48, 29]
34.443[52, 58, 45, 77, 127, 61, 45, 31]
34.467[50, 55, 45, 64, 98, 60, 49, 31]
34.489[45, 46, 42, 63, 94, 54, 58, 32]
34.511[46, 44, 40, 64, 99, 54, 70, 33]
34.527[52, 51, 44, 90, 136, 59, 70, 34]
34.549[46, 49, 43, 89, 134, 61, 78, 37]
34.571[48, 52, 46, 94, 141, 61, 75, 38]
34.587[44, 50, 44, 93, 145, 64, 64, 36]
34.609[45, 55, 44, 91, 139, 62, 67, 35]
34.631[35, 51, 44, 76, 113, 64, 87, 36]
34.654[36, 51, 43, 80, 114, 65, 81, 32]
34.669[33, 47, 37, 74, 104, 64, 95, 33]
34.691[45, 56, 42, 80, 114, 67, 115, 38]
34.707[43, 52, 43, 81, 117, 69, 109, 38]
34.736[41, 45, 37, 70, 108, 62, 93, 36]
34.759[44, 49, 40, 70, 115, 64, 93, 35]
34.767[47, 51, 42, 72, 118, 66, 80, 31]
34.788[40, 47, 41, 67, 123, 67, 51, 24]
34.811[40, 49, 41, 70, 128, 70, 65, 28]
34.844[49, 57, 47, 70, 138, 74, 66, 27]
34.872[47, 56, 46, 67, 132, 76, 69, 27]
34.873[48, 58, 46, 71, 139, 79, 71, 29]
34.893[46, 54, 44, 72, 125, 78, 68, 30]
34.909[47, 55, 44, 69, 118, 74, 53, 27]
34.931[48, 59, 45, 69, 118, 77, 58, 29]
34.947[48, 58, 42, 70, 116, 71, 68, 36]
34.968[49, 57, 44, 69, 110, 72, 89, 55]
34.991[50, 58, 47, 61, 98, 67, 92, 58]
35.015[51, 56, 47, 61, 98, 65, 91, 57]
35.036[42, 44, 41, 57, 82, 63, 88, 56]
35.058[42, 44, 42, 54, 86, 62, 81, 54]
35.067[41, 46, 42, 48, 79, 59, 53, 33]
35.088[41, 44, 40, 54, 94, 58, 48, 27]
35.111[39, 43, 39, 60, 108, 63, 59, 27]
35.15[38, 40, 39, 63, 112, 58, 57, 30]
35.151[38, 40, 38, 63, 107, 57, 51, 29]
35.171[34, 35, 35, 67, 112, 58, 51, 29]
35.193[39, 42, 34, 73, 113, 63, 51, 29]
35.21[42, 45, 37, 75, 114, 57, 37, 28]
35.231[45, 49, 40, 79, 111, 63, 49, 30]
35.247[44, 51, 42, 80, 113, 69, 60, 31]
35.268[43, 53, 41, 82, 125, 69, 86, 32]
35.292[37, 48, 40, 87, 141, 82, 94, 33]
35.307[37, 48, 40, 81, 133, 86, 96, 33]
35.336[39, 48, 39, 75, 129, 82, 96, 32]
35.359[39, 45, 38, 83, 134, 80, 92, 28]
35.367[41, 48, 42, 81, 123, 78, 72, 28]
35.404[43, 49, 44, 76, 110, 72, 74, 32]
35.426[43, 53, 44, 80, 114, 70, 80, 35]
35.433[37, 50, 42, 85, 132, 74, 77, 33]
35.448[39, 51, 44, 83, 125, 71, 101, 34]
35.471[47, 61, 46, 84, 123, 74, 106, 35]
35.502[45, 59, 42, 79, 114, 62, 99, 31]
35.508[43, 54, 41, 77, 122, 60, 102, 34]
35.531[44, 53, 43, 74, 106, 53, 110, 33]
35.553[45, 56, 45, 80, 123, 57, 94, 34]
35.57[36, 44, 45, 96, 136, 56, 90, 30]
35.591[37, 45, 51, 99, 139, 58, 88, 31]
35.613[38, 47, 52, 97, 128, 64, 80, 28]
35.636[40, 51, 55, 112, 156, 74, 72, 29]
35.651[41, 53, 55, 108, 149, 76, 63, 28]
35.681[40, 51, 51, 90, 135, 72, 69, 44]
35.688[46, 55, 51, 95, 136, 74, 72, 45]
35.711[45, 54, 51, 96, 140, 72, 69, 45]
35.742[46, 54, 50, 82, 118, 67, 63, 47]
35.757[47, 54, 52, 81, 110, 64, 60, 49]
35.771[45, 53, 52, 87, 120, 64, 44, 34]
35.793[39, 49, 46, 77, 111, 60, 36, 32]
35.808[40, 50, 47, 78, 106, 63, 41, 33]
35.831[38, 49, 47, 81, 106, 60, 67, 35]
35.853[32, 44, 45, 80, 110, 60, 81, 34]
35.87[32, 44, 46, 78, 103, 65, 86, 37]
35.892[34, 46, 47, 74, 96, 66, 116, 39]
35.915[33, 44, 47, 87, 120, 62, 116, 37]
35.936[38, 49, 45, 84, 116, 62, 106, 34]
35.951[38, 49, 43, 85, 119, 58, 100, 34]
35.983[45, 54, 43, 83, 118, 51, 99, 32]
36.004[44, 54, 41, 84, 128, 55, 77, 31]
36.011[43, 53, 40, 72, 113, 56, 86, 33]
36.033[38, 45, 36, 69, 111, 56, 84, 32]
36.048[39, 43, 33, 68, 106, 59, 82, 33]
36.071[32, 38, 34, 71, 117, 63, 80, 31]
36.101[31, 33, 34, 73, 115, 59, 75, 32]
36.108[31, 33, 33, 69, 103, 58, 58, 28]
36.131[31, 34, 32, 65, 95, 60, 83, 32]
36.17[37, 38, 33, 81, 122, 60, 83, 33]
36.171[38, 36, 31, 80, 115, 56, 94, 35]
36.192[37, 35, 30, 77, 114, 61, 90, 33]
36.221[38, 36, 30, 76, 113, 57, 96, 34]
36.236[36, 34, 32, 97, 143, 56, 75, 30]
36.251[32, 36, 33, 89, 127, 59, 76, 29]
36.275[32, 38, 35, 88, 127, 60, 63, 26]
36.304[35, 40, 40, 90, 126, 55, 86, 30]
36.311[40, 44, 43, 96, 134, 59, 84, 29]
36.333[43, 48, 44, 76, 111, 59, 113, 34]
36.356[42, 49, 47, 69, 106, 58, 112, 34]
36.379[42, 51, 46, 71, 109, 58, 110, 35]
36.402[45, 52, 42, 73, 113, 59, 93, 32]
36.424[44, 51, 41, 68, 126, 64, 91, 33]
36.431[42, 49, 39, 80, 133, 67, 60, 31]
36.469[40, 43, 36, 84, 141, 67, 78, 37]
36.475[40, 43, 38, 94, 143, 67, 79, 38]
36.491[36, 43, 42, 93, 137, 65, 81, 38]
36.513[36, 41, 39, 90, 119, 64, 76, 38]
36.536[39, 43, 40, 82, 109, 65, 70, 35]
36.576[40, 45, 42, 80, 92, 62, 44, 29]
36.578[39, 45, 40, 68, 89, 65, 60, 36]
36.596[38, 43, 38, 63, 91, 67, 59, 36]
36.611[42, 48, 42, 64, 93, 59, 61, 36]
36.633[39, 46, 42, 63, 89, 52, 57, 35]
36.656[40, 47, 37, 56, 92, 55, 71, 33]
36.68[46, 48, 38, 54, 80, 55, 82, 30]
36.702[48, 50, 40, 61, 85, 56, 85, 30]
36.724[42, 45, 39, 60, 93, 57, 85, 28]
36.747[43, 47, 38, 62, 103, 63, 90, 31]
36.753[43, 49, 42, 69, 112, 66, 84, 32]
36.776[35, 43, 40, 81, 120, 65, 69, 29]
36.791[35, 44, 39, 78, 119, 64, 65, 29]
36.814[43, 51, 40, 79, 115, 66, 67, 32]
36.836[43, 51, 40, 78, 108, 62, 61, 30]
36.852[42, 50, 40, 73, 103, 59, 55, 30]
36.873[49, 59, 42, 64, 105, 59, 54, 32]
36.904[49, 59, 42, 66, 108, 63, 74, 35]
36.911[45, 56, 44, 69, 107, 60, 74, 35]
36.935[44, 56, 45, 68, 103, 58, 75, 34]
36.957[43, 53, 40, 69, 94, 53, 74, 33]
36.98[35, 46, 44, 83, 93, 52, 66, 31]
37.002[37, 46, 47, 92, 106, 60, 45, 28]
37.024[34, 41, 44, 97, 120, 64, 42, 27]
37.031[37, 44, 44, 99, 126, 67, 43, 30]
37.054[39, 47, 49, 103, 134, 72, 51, 34]
37.084[39, 46, 46, 99, 138, 78, 53, 34]
37.091[43, 48, 46, 90, 126, 70, 62, 37]
37.113[46, 51, 48, 81, 109, 69, 67, 35]
37.137[45, 49, 48, 81, 113, 67, 65, 34]
37.16[46, 51, 49, 76, 110, 62, 67, 30]
37.173[52, 56, 50, 69, 100, 56, 71, 32]
37.204[47, 56, 48, 73, 96, 55, 66, 30]
37.219[44, 52, 46, 75, 100, 63, 122, 41]
37.234[44, 51, 45, 72, 88, 64, 128, 46]
37.256[39, 47, 42, 74, 89, 64, 132, 47]
37.28[43, 47, 42, 102, 99, 65, 134, 47]
37.302[43, 46, 41, 103, 111, 67, 132, 47]
37.348[45, 49, 46, 116, 123, 67, 87, 40]
37.349[53, 57, 53, 123, 139, 68, 83, 36]
37.353[56, 61, 54, 124, 136, 68, 71, 35]
37.377[46, 55, 53, 98, 134, 65, 64, 31]
37.407[48, 55, 55, 108, 142, 65, 61, 31]
37.413[54, 63, 55, 95, 133, 63, 52, 31]
37.436[47, 56, 48, 87, 134, 73, 48, 28]
37.459[51, 66, 59, 101, 149, 77, 50, 29]
37.474[52, 65, 56, 101, 145, 80, 47, 28]
37.496[51, 64, 58, 94, 136, 81, 54, 29]
37.519[49, 60, 56, 99, 139, 81, 57, 30]
37.533[58, 70, 60, 99, 129, 76, 92, 40]
37.556[57, 63, 54, 90, 118, 75, 96, 44]
37.579[57, 63, 54, 92, 117, 77, 101, 44]
37.593[63, 70, 54, 97, 123, 76, 99, 45]
37.615[61, 69, 55, 93, 124, 82, 104, 46]
37.646[55, 65, 58, 106, 137, 92, 95, 37]
37.653[54, 64, 57, 97, 151, 96, 92, 31]
37.676[52, 65, 59, 99, 156, 93, 90, 31]
37.699[46, 57, 54, 88, 147, 93, 88, 29]
37.713[46, 56, 53, 101, 172, 93, 81, 27]
37.744[42, 47, 45, 102, 182, 86, 60, 34]
37.759[42, 46, 43, 104, 168, 84, 74, 37]
37.773[47, 51, 42, 102, 163, 81, 72, 38]
37.796[47, 55, 42, 110, 167, 81, 72, 40]
37.819[49, 57, 48, 112, 138, 68, 77, 40]
37.833[51, 64, 56, 111, 120, 68, 72, 36]
37.855[50, 65, 57, 114, 124, 72, 62, 34]
37.879[51, 64, 62, 125, 134, 79, 72, 40]
37.893[53, 62, 65, 119, 139, 83, 75, 37]
37.931[50, 59, 61, 104, 138, 85, 66, 35]
37.947[50, 55, 57, 90, 141, 86, 74, 35]
37.969[47, 55, 60, 105, 171, 88, 74, 34]
37.976[43, 49, 53, 94, 171, 83, 63, 27]
37.999[41, 53, 56, 98, 164, 78, 67, 30]
38.013[40, 52, 54, 96, 163, 79, 67, 28]
38.035[39, 49, 56, 104, 162, 71, 59, 31]
38.059[43, 49, 56, 94, 136, 73, 57, 31]
38.082[45, 52, 58, 100, 140, 76, 59, 34]
38.096[46, 52, 59, 106, 151, 79, 50, 33]
38.119[52, 57, 61, 108, 159, 79, 66, 40]
38.133[50, 57, 56, 101, 153, 81, 77, 45]
38.155[50, 54, 51, 90, 141, 70, 76, 48]
38.18[48, 53, 50, 85, 138, 76, 82, 49]
38.202[49, 47, 40, 71, 125, 77, 87, 51]
38.224[44, 44, 39, 72, 132, 78, 100, 58]
38.247[50, 48, 44, 89, 135, 75, 98, 58]
38.262[49, 51, 51, 99, 145, 77, 98, 60]
38.276[47, 50, 50, 95, 137, 64, 95, 59]
38.299[48, 55, 54, 114, 147, 60, 95, 56]
38.322[54, 60, 58, 120, 139, 73, 75, 46]
38.344[49, 56, 56, 116, 136, 82, 66, 41]
38.366[47, 53, 53, 114, 129, 82, 71, 34]
38.389[67, 76, 63, 121, 126, 85, 85, 35]
38.396[62, 71, 60, 104, 110, 83, 83, 35]
38.42[59, 68, 54, 97, 105, 78, 80, 33]
38.442[65, 76, 60, 91, 105, 82, 85, 33]
38.464[66, 76, 61, 97, 115, 84, 130, 48]
38.487[54, 67, 59, 101, 124, 83, 123, 49]
38.509[54, 69, 62, 103, 127, 86, 128, 52]
38.531[59, 74, 63, 107, 124, 84, 130, 54]
38.539[53, 69, 60, 106, 120, 71, 132, 54]
38.562[53, 69, 56, 95, 110, 64, 91, 42]
38.576[57, 70, 56, 83, 105, 68, 91, 42]
38.599[62, 73, 62, 96, 105, 65, 83, 40]
38.622[56, 68, 62, 97, 111, 59, 82, 42]
38.636[55, 64, 59, 95, 109, 60, 81, 43]
38.659[58, 69, 65, 98, 107, 65, 83, 47]
38.689[45, 54, 57, 96, 111, 68, 77, 43]
38.698[45, 53, 54, 89, 116, 76, 82, 44]
38.719[48, 57, 54, 81, 107, 78, 77, 39]
38.741[52, 59, 55, 81, 113, 81, 67, 37]
38.771[48, 55, 49, 86, 113, 82, 57, 31]
38.78[51, 59, 51, 97, 127, 78, 59, 35]
38.802[53, 59, 49, 99, 138, 71, 56, 44]
38.824[49, 53, 42, 101, 141, 68, 55, 45]
38.839[48, 53, 51, 114, 169, 83, 57, 46]
38.862[46, 52, 52, 111, 171, 84, 70, 47]
38.876[46, 51, 51, 103, 164, 87, 95, 48]
38.899[40, 43, 47, 92, 149, 86, 95, 42]
38.921[39, 44, 48, 89, 147, 86, 105, 42]
38.936[39, 42, 38, 73, 117, 68, 103, 42]
38.958[50, 54, 43, 69, 121, 68, 98, 43]
38.989[46, 48, 41, 62, 108, 67, 72, 37]
39.012[44, 48, 41, 71, 118, 65, 71, 30]
39.019[45, 51, 49, 84, 142, 76, 63, 32]
39.041[45, 52, 51, 84, 132, 75, 68, 31]
39.056[34, 41, 48, 83, 127, 73, 66, 28]
39.079[37, 44, 47, 88, 128, 69, 76, 36]
39.102[37, 47, 49, 89, 135, 77, 76, 38]
39.116[39, 46, 44, 78, 122, 70, 86, 43]
39.139[42, 51, 45, 78, 123, 73, 103, 46]
39.161[42, 47, 42, 80, 129, 76, 109, 49]
39.176[42, 51, 45, 76, 132, 82, 107, 46]
39.199[50, 57, 49, 67, 117, 79, 108, 46]
39.222[46, 53, 45, 65, 108, 79, 100, 39]
39.244[43, 50, 42, 77, 127, 80, 78, 38]
39.267[47, 54, 44, 74, 116, 74, 70, 33]
39.281[46, 52, 44, 72, 108, 64, 62, 32]
39.304[40, 49, 40, 72, 111, 62, 83, 41]
39.319[40, 51, 42, 77, 120, 64, 91, 42]
39.341[37, 49, 39, 62, 104, 62, 99, 43]
39.371[33, 50, 43, 78, 124, 72, 100, 43]
39.379[36, 47, 44, 84, 127, 73, 98, 43]
39.402[32, 44, 47, 93, 137, 75, 78, 32]
39.424[33, 43, 47, 90, 126, 74, 70, 36]
39.439[38, 47, 52, 98, 137, 86, 70, 38]
39.462[42, 49, 52, 94, 133, 88, 64, 38]
39.484[42, 52, 52, 93, 129, 88, 64, 37]
39.499[44, 51, 48, 87, 126, 89, 86, 47]
39.521[49, 55, 52, 95, 141, 87, 88, 49]
39.544[55, 65, 54, 93, 134, 77, 80, 48]
39.567[53, 62, 52, 91, 135, 68, 85, 49]
39.589[51, 61, 50, 91, 134, 65, 86, 51]
39.604[52, 61, 51, 91, 130, 63, 69, 44]
39.626[49, 62, 49, 86, 126, 65, 65, 37]
39.642[40, 50, 42, 80, 123, 63, 78, 34]
39.664[42, 52, 40, 79, 127, 70, 113, 43]
39.686[47, 56, 44, 80, 139, 77, 117, 43]
39.701[49, 60, 43, 76, 138, 77, 121, 45]
39.724[49, 55, 40, 71, 126, 74, 118, 46]
39.738[52, 58, 46, 85, 131, 70, 112, 45]
39.761[49, 56, 48, 85, 118, 60, 78, 38]
39.785[44, 52, 45, 81, 110, 57, 90, 40]
39.806[46, 52, 49, 88, 116, 51, 88, 39]
39.822[46, 53, 53, 92, 116, 52, 90, 39]
39.851[46, 55, 52, 79, 103, 53, 85, 39]
39.866[46, 55, 50, 78, 93, 50, 89, 40]
39.882[48, 52, 48, 78, 104, 50, 81, 43]
39.903[44, 49, 45, 73, 93, 52, 79, 41]
39.926[49, 55, 47, 79, 104, 59, 81, 43]
39.948[46, 50, 43, 79, 108, 60, 81, 44]
39.963[46, 46, 41, 77, 115, 66, 70, 42]
39.986[48, 52, 44, 82, 113, 66, 58, 34]
40.008[51, 56, 46, 80, 114, 68, 111, 37]
40.023[44, 47, 40, 72, 110, 60, 114, 34]
40.046[47, 49, 43, 70, 111, 59, 116, 32]
40.063[47, 53, 46, 72, 114, 61, 120, 32]
40.083[46, 50, 48, 75, 123, 70, 128, 37]
40.106[53, 55, 51, 84, 130, 76, 107, 39]
40.122[57, 62, 55, 86, 132, 82, 103, 48]
40.143[54, 59, 52, 87, 136, 84, 112, 49]
40.166[57, 65, 57, 91, 134, 81, 115, 50]
40.196[56, 65, 55, 86, 132, 77, 105, 47]
40.203[46, 56, 49, 78, 126, 68, 90, 44]
40.226[41, 50, 44, 71, 116, 61, 87, 34]
40.242[40, 49, 45, 67, 112, 58, 75, 35]
40.263[33, 38, 37, 66, 114, 62, 83, 36]
40.285[32, 35, 35, 58, 94, 56, 86, 37]
40.302[30, 31, 32, 51, 87, 53, 76, 35]
40.323[28, 28, 30, 50, 82, 50, 76, 36]
40.345[26, 29, 28, 48, 71, 46, 74, 32]
40.362[23, 28, 24, 32, 48, 32, 50, 29]
40.383[19, 26, 22, 26, 36, 23, 36, 24]
40.405[17, 24, 22, 24, 30, 25, 30, 22]
40.422[16, 23, 22, 22, 27, 23, 28, 21]
40.443[17, 20, 21, 22, 25, 22, 24, 21]
40.466[17, 19, 22, 20, 23, 22, 20, 19]
40.497[17, 19, 20, 21, 22, 22, 20, 19]
40.504[16, 20, 19, 21, 22, 19, 21, 18]
40.526[15, 20, 19, 23, 21, 20, 21, 16]
40.542[14, 20, 19, 22, 22, 18, 19, 17]
40.564[14, 21, 21, 24, 23, 19, 21, 16]
40.586[17, 21, 22, 21, 22, 18, 19, 15]
40.602[18, 22, 22, 24, 23, 18, 18, 17]
40.623[25, 24, 24, 22, 23, 17, 19, 21]
40.645[28, 24, 25, 23, 24, 18, 19, 22]
40.663[29, 23, 23, 21, 22, 19, 17, 22]
40.683[29, 24, 21, 23, 22, 21, 17, 22]
40.706[29, 23, 22, 20, 20, 20, 16, 23]
40.722[27, 22, 20, 20, 19, 20, 16, 19]
40.744[25, 21, 20, 21, 19, 21, 18, 18]
40.773[25, 21, 18, 21, 19, 19, 17, 19]
40.796[24, 18, 19, 21, 19, 19, 17, 20]
40.803[23, 18, 19, 20, 20, 21, 18, 17]
40.826[20, 18, 20, 22, 20, 22, 17, 17]
40.84[20, 19, 18, 22, 21, 21, 16, 19]
40.863[17, 19, 17, 21, 21, 21, 16, 17]
40.887[20, 20, 17, 21, 21, 20, 16, 16]
40.901[21, 20, 16, 21, 22, 17, 17, 16]
40.925[20, 21, 17, 20, 22, 17, 19, 17]
40.955[20, 19, 18, 21, 20, 17, 19, 18]
40.96[20, 20, 20, 21, 19, 16, 19, 19]
40.999[19, 22, 21, 21, 18, 17, 19, 21]
41.022[18, 21, 22, 20, 17, 19, 18, 22]
41.024[19, 22, 21, 18, 17, 18, 18, 21]
41.043[18, 23, 20, 19, 19, 19, 18, 21]
41.066[18, 25, 18, 17, 19, 22, 17, 19]
41.081[18, 23, 18, 18, 19, 21, 18, 17]
41.103[19, 23, 17, 18, 19, 21, 18, 17]
41.126[18, 22, 17, 18, 20, 21, 17, 18]
41.148[18, 24, 18, 17, 20, 19, 18, 18]
41.163[19, 22, 19, 19, 21, 18, 19, 19]
41.186[18, 21, 20, 19, 22, 17, 18, 19]
41.208[20, 22, 21, 20, 21, 17, 19, 20]
41.223[20, 21, 21, 21, 20, 19, 19, 18]
41.246[20, 19, 20, 20, 21, 20, 19, 18]
41.268[21, 20, 20, 19, 20, 20, 19, 18]
41.292[22, 22, 19, 19, 18, 21, 18, 18]
41.305[20, 21, 18, 18, 19, 20, 17, 17]
41.328[22, 22, 19, 18, 18, 18, 16, 19]
41.343[22, 23, 21, 19, 18, 20, 15, 19]
41.366[21, 21, 20, 19, 19, 20, 17, 19]
41.389[22, 21, 22, 19, 22, 19, 19, 21]
41.403[22, 22, 21, 17, 21, 23, 20, 21]
41.434[21, 21, 20, 20, 22, 22, 21, 20]
41.448[22, 21, 20, 20, 21, 20, 21, 20]
41.463[22, 22, 20, 20, 24, 20, 19, 19]
41.486[20, 23, 19, 20, 21, 20, 20, 18]
41.508[23, 23, 20, 20, 20, 17, 20, 20]
41.523[23, 23, 20, 17, 20, 17, 21, 20]
41.547[23, 22, 18, 16, 20, 18, 20, 19]
41.568[22, 21, 17, 17, 17, 19, 23, 21]
41.583[21, 21, 16, 17, 17, 20, 21, 21]
41.606[19, 22, 18, 18, 17, 19, 22, 20]
41.628[20, 22, 19, 19, 17, 20, 20, 18]
41.643[20, 21, 18, 20, 18, 20, 21, 18]
41.666[20, 23, 20, 19, 17, 20, 20, 18]
41.688[22, 21, 20, 21, 20, 20, 21, 18]
41.703[23, 23, 18, 21, 20, 21, 20, 19]
41.726[21, 23, 19, 20, 21, 21, 20, 19]
41.748[19, 23, 20, 20, 22, 21, 19, 20]
41.763[19, 22, 19, 20, 23, 21, 19, 20]
41.786[18, 23, 20, 18, 22, 20, 19, 19]
41.808[16, 21, 19, 17, 23, 20, 19, 18]
41.823[17, 19, 18, 18, 21, 19, 20, 17]
41.846[17, 20, 18, 16, 21, 19, 20, 20]
41.868[17, 20, 20, 19, 19, 19, 20, 20]
41.883[16, 21, 21, 21, 21, 18, 20, 21]
41.906[17, 19, 22, 21, 21, 18, 19, 21]
41.928[18, 21, 21, 22, 23, 18, 20, 21]
41.943[19, 21, 22, 25, 22, 18, 20, 18]
41.966[20, 21, 20, 24, 24, 18, 18, 18]
41.988[21, 22, 21, 22, 22, 17, 18, 18]
42.003[21, 23, 20, 21, 21, 16, 20, 17]
42.026[21, 21, 20, 21, 21, 17, 19, 17]
42.048[19, 21, 21, 18, 21, 17, 19, 19]
42.071[20, 22, 22, 18, 21, 18, 19, 19]
42.087[21, 20, 19, 19, 20, 19, 20, 17]
42.108[18, 20, 20, 19, 20, 19, 18, 18]
42.133[20, 22, 22, 19, 21, 18, 18, 17]
42.146[20, 22, 21, 21, 19, 19, 19, 17]
42.176[19, 21, 20, 23, 19, 18, 19, 17]
42.191[17, 22, 23, 22, 19, 19, 19, 18]
42.207[18, 22, 23, 23, 20, 20, 19, 17]
42.228[19, 22, 23, 23, 18, 21, 21, 17]
42.251[20, 20, 22, 20, 19, 19, 21, 16]
42.266[20, 22, 23, 19, 19, 20, 19, 16]
42.296[20, 21, 22, 20, 19, 20, 20, 15]
42.311[21, 21, 22, 20, 19, 19, 20, 16]
42.328[19, 20, 21, 21, 19, 18, 18, 17]
42.348[20, 20, 22, 21, 20, 18, 17, 17]
42.371[19, 20, 21, 20, 21, 17, 18, 17]
42.385[18, 22, 18, 21, 20, 18, 17, 18]
42.408[18, 21, 18, 22, 20, 18, 17, 17]
42.431[18, 21, 19, 20, 20, 19, 18, 15]
42.454[17, 22, 19, 21, 19, 19, 17, 16]
42.468[18, 23, 20, 23, 20, 19, 18, 15]
42.491[19, 21, 21, 22, 22, 18, 17, 16]
42.505[17, 21, 22, 21, 22, 19, 17, 16]
42.528[16, 22, 22, 22, 22, 17, 16, 17]
42.551[16, 22, 21, 22, 22, 17, 17, 16]
42.566[18, 20, 21, 19, 19, 16, 16, 17]
42.596[20, 20, 22, 20, 20, 16, 16, 16]
42.619[21, 20, 20, 21, 20, 16, 18, 18]
42.626[22, 20, 21, 19, 19, 16, 17, 18]
42.648[22, 19, 23, 19, 19, 17, 19, 19]
42.671[22, 18, 23, 19, 21, 17, 20, 21]
42.685[20, 19, 23, 18, 19, 19, 21, 21]
42.708[19, 18, 22, 16, 18, 19, 21, 21]
42.731[19, 17, 22, 17, 18, 19, 22, 24]
42.761[20, 16, 19, 17, 19, 18, 20, 23]
42.768[22, 18, 20, 18, 18, 19, 19, 21]
42.791[22, 17, 21, 19, 19, 17, 17, 21]
42.806[22, 21, 20, 20, 18, 16, 15, 19]
42.828[22, 22, 19, 20, 19, 16, 16, 16]
42.851[21, 22, 21, 20, 18, 18, 17, 17]
42.874[20, 21, 21, 19, 18, 17, 17, 16]
42.896[19, 23, 19, 19, 18, 18, 18, 16]
42.919[19, 22, 21, 19, 21, 19, 18, 18]
42.926[19, 22, 21, 19, 22, 20, 18, 18]
42.948[19, 22, 19, 21, 22, 19, 17, 19]
42.971[20, 23, 20, 21, 21, 20, 17, 20]
42.994[20, 22, 19, 21, 21, 19, 17, 20]
43.008[21, 22, 20, 19, 19, 18, 18, 19]
43.039[22, 22, 20, 21, 17, 18, 17, 20]
43.061[22, 21, 22, 21, 17, 19, 17, 20]
43.068[21, 20, 22, 21, 18, 19, 17, 19]
43.091[21, 19, 24, 19, 18, 20, 19, 19]
43.114[19, 19, 24, 21, 21, 19, 19, 19]
43.128[20, 19, 25, 19, 21, 19, 20, 18]
43.151[20, 21, 22, 17, 21, 20, 21, 19]
43.174[20, 22, 22, 17, 20, 19, 20, 20]
43.197[20, 24, 21, 18, 21, 18, 19, 19]
43.219[22, 24, 21, 17, 19, 18, 17, 19]
43.234[20, 23, 22, 17, 19, 18, 17, 20]
43.248[19, 24, 22, 19, 19, 18, 17, 19]
43.271[19, 23, 24, 20, 17, 18, 18, 19]
43.294[19, 22, 24, 20, 15, 19, 18, 20]
43.316[19, 22, 23, 19, 17, 20, 18, 19]
43.339[20, 20, 22, 20, 18, 20, 21, 17]
43.354[20, 18, 23, 19, 18, 21, 20, 18]
43.368[19, 19, 22, 19, 21, 20, 20, 16]
43.391[22, 17, 19, 18, 22, 20, 19, 16]
43.414[23, 19, 19, 18, 20, 20, 20, 17]
43.436[23, 21, 19, 16, 21, 19, 19, 17]
43.451[24, 21, 19, 16, 20, 18, 20, 18]
43.474[24, 20, 17, 17, 20, 20, 21, 20]
43.488[21, 19, 18, 19, 20, 20, 21, 21]
43.519[18, 21, 19, 19, 20, 20, 20, 19]
43.541[19, 20, 18, 19, 19, 21, 18, 19]
43.548[18, 20, 19, 21, 19, 20, 17, 19]
43.571[17, 20, 21, 44, 22, 19, 16, 17]
43.594[17, 21, 25, 71, 24, 19, 16, 17]
43.616[18, 21, 27, 73, 25, 23, 17, 18]
43.631[20, 22, 29, 79, 28, 24, 19, 18]
43.654[19, 24, 31, 87, 31, 33, 24, 19]
43.668[21, 27, 45, 162, 56, 54, 44, 23]
43.691[22, 28, 44, 166, 58, 54, 45, 22]
43.73[22, 27, 45, 167, 59, 54, 45, 22]
43.731[19, 28, 46, 173, 59, 55, 45, 22]
43.751[19, 28, 46, 175, 60, 51, 44, 21]
43.774[18, 27, 35, 115, 37, 28, 25, 19]
43.788[16, 26, 36, 97, 33, 28, 23, 19]
43.819[18, 27, 35, 98, 33, 27, 23, 22]
43.834[18, 25, 31, 82, 30, 25, 20, 21]
43.848[20, 24, 29, 71, 27, 22, 20, 21]
43.873[20, 22, 27, 50, 24, 20, 19, 21]
43.895[21, 21, 28, 111, 28, 19, 20, 20]
43.908[20, 22, 29, 115, 28, 19, 21, 19]
43.931[19, 22, 31, 119, 28, 17, 24, 21]
43.954[18, 21, 32, 125, 31, 18, 23, 22]
43.976[18, 20, 32, 125, 32, 20, 22, 21]
43.991[17, 21, 26, 75, 27, 21, 22, 23]
44.014[16, 20, 22, 68, 26, 22, 21, 22]
44.036[21, 21, 20, 62, 26, 22, 18, 20]
44.051[25, 23, 20, 52, 23, 23, 19, 19]
44.074[24, 25, 19, 50, 22, 22, 20, 20]
44.096[24, 24, 20, 47, 22, 20, 20, 18]
44.119[27, 23, 23, 42, 20, 19, 21, 18]
44.134[23, 22, 23, 38, 23, 18, 21, 18]
44.156[19, 20, 21, 34, 21, 19, 19, 18]
44.172[19, 18, 22, 36, 20, 19, 21, 17]
44.194[19, 19, 22, 36, 20, 19, 20, 18]
44.216[17, 21, 22, 32, 20, 20, 19, 17]
44.239[17, 22, 21, 32, 20, 21, 19, 19]
44.261[18, 21, 22, 29, 21, 19, 19, 20]
44.276[19, 21, 22, 24, 24, 20, 18, 19]
44.292[21, 21, 22, 38, 24, 20, 20, 19]
44.314[22, 20, 21, 43, 25, 18, 20, 21]
44.336[23, 19, 22, 43, 24, 19, 23, 18]
44.352[23, 21, 21, 42, 23, 20, 22, 18]
44.374[23, 21, 19, 41, 22, 19, 21, 18]
44.396[22, 20, 19, 28, 22, 19, 19, 17]
44.419[21, 21, 17, 29, 21, 22, 22, 17]
44.441[19, 20, 17, 40, 20, 20, 18, 17]
44.472[17, 20, 16, 40, 21, 20, 19, 17]
44.473[19, 22, 19, 41, 21, 19, 21, 18]
44.495[20, 22, 18, 41, 21, 19, 21, 19]
44.517[20, 23, 20, 37, 22, 17, 21, 19]
44.539[24, 22, 20, 25, 21, 19, 21, 19]
44.561[24, 22, 19, 30, 22, 20, 22, 18]
44.584[23, 19, 19, 33, 21, 20, 21, 18]
44.59[22, 19, 20, 34, 21, 20, 22, 18]
44.614[22, 19, 18, 32, 20, 19, 22, 17]
44.637[19, 20, 20, 32, 20, 19, 21, 19]
44.65[20, 23, 21, 27, 19, 18, 18, 18]
44.674[19, 24, 19, 23, 19, 18, 20, 17]
44.696[21, 23, 20, 19, 18, 18, 19, 18]
44.711[21, 21, 20, 22, 19, 18, 19, 19]
44.734[21, 23, 20, 24, 20, 19, 20, 18]
44.756[20, 21, 20, 28, 20, 21, 20, 20]
44.77[20, 20, 21, 29, 21, 21, 20, 20]
44.794[18, 20, 21, 29, 21, 21, 19, 20]
44.816[18, 21, 24, 28, 20, 23, 18, 19]
44.838[19, 19, 24, 30, 21, 22, 19, 19]
44.854[20, 21, 24, 28, 20, 20, 20, 18]
44.876[23, 22, 23, 28, 19, 21, 19, 17]
44.898[22, 23, 23, 30, 19, 20, 21, 16]
44.914[22, 22, 19, 29, 19, 19, 20, 21]
44.935[24, 22, 18, 24, 19, 18, 19, 21]
44.958[23, 21, 16, 27, 18, 18, 19, 23]
44.975[20, 19, 16, 28, 18, 19, 20, 23]
44.996[19, 19, 18, 31, 20, 20, 19, 22]
45.019[20, 20, 19, 32, 20, 20, 19, 19]
45.034[18, 20, 20, 36, 22, 19, 18, 19]
45.063[20, 21, 21, 36, 22, 20, 17, 21]
45.086[20, 21, 21, 36, 23, 21, 16, 20]
45.094[21, 21, 18, 33, 22, 21, 17, 22]
45.115[21, 20, 19, 37, 21, 22, 17, 23]
45.138[21, 20, 19, 34, 21, 21, 19, 22]
45.154[21, 19, 18, 30, 20, 21, 19, 20]
45.176[20, 18, 19, 29, 21, 19, 19, 21]
45.198[19, 19, 21, 29, 20, 19, 18, 19]
45.222[20, 19, 20, 30, 19, 19, 19, 18]
45.235[20, 19, 19, 36, 19, 19, 18, 18]
45.258[18, 20, 19, 36, 22, 20, 19, 18]
45.274[19, 19, 18, 37, 21, 21, 19, 19]
45.295[20, 19, 18, 43, 21, 21, 20, 19]
45.318[18, 21, 17, 41, 22, 20, 19, 19]
45.334[16, 21, 19, 38, 20, 21, 19, 20]
45.363[18, 21, 20, 37, 19, 18, 19, 20]
45.386[18, 21, 23, 44, 19, 20, 20, 17]
45.394[18, 22, 24, 43, 21, 19, 20, 17]
45.415[19, 20, 25, 44, 24, 19, 20, 16]
45.438[20, 22, 24, 44, 24, 19, 20, 16]
45.454[18, 20, 24, 44, 22, 20, 19, 16]
45.475[18, 21, 23, 39, 22, 18, 16, 19]
45.498[18, 20, 22, 34, 20, 17, 17, 19]
45.514[19, 20, 20, 30, 18, 19, 18, 20]
45.535[20, 22, 21, 28, 19, 18, 17, 20]
45.559[21, 23, 22, 27, 22, 19, 18, 20]
45.574[21, 22, 22, 30, 22, 19, 19, 19]
45.595[21, 25, 21, 29, 22, 19, 18, 19]
45.618[21, 25, 23, 28, 23, 18, 16, 18]
45.64[21, 23, 23, 29, 22, 19, 16, 17]
45.656[23, 22, 23, 30, 21, 19, 16, 17]
45.678[23, 23, 21, 23, 21, 19, 19, 16]
45.694[22, 20, 23, 23, 21, 19, 18, 15]
45.715[21, 18, 22, 29, 20, 18, 20, 17]
45.738[21, 18, 22, 29, 20, 19, 20, 16]
45.755[18, 20, 21, 27, 19, 18, 20, 16]
45.775[18, 18, 21, 29, 18, 18, 16, 17]
45.798[17, 19, 20, 27, 19, 17, 17, 17]
45.814[20, 19, 20, 22, 19, 19, 18, 16]
45.835[21, 20, 19, 25, 20, 19, 16, 19]
45.858[21, 20, 20, 29, 21, 20, 17, 19]
45.88[21, 19, 21, 27, 20, 20, 17, 19]
45.895[24, 19, 19, 29, 20, 20, 18, 19]
45.919[21, 20, 22, 30, 19, 20, 17, 21]
45.94[21, 20, 24, 31, 20, 20, 18, 19]
45.955[21, 20, 24, 29, 20, 18, 18, 20]
45.978[21, 23, 25, 31, 19, 19, 20, 20]
46.0[18, 25, 24, 29, 21, 19, 20, 19]
46.015[20, 26, 23, 26, 20, 17, 18, 16]
46.038[19, 25, 20, 31, 20, 18, 19, 15]
46.06[18, 24, 19, 31, 19, 20, 19, 14]
46.075[20, 21, 19, 31, 21, 19, 18, 14]
46.098[21, 20, 21, 32, 20, 19, 18, 16]
46.12[19, 18, 22, 37, 21, 19, 19, 17]
46.135[20, 20, 23, 34, 20, 17, 18, 17]
46.158[20, 20, 24, 34, 20, 15, 17, 17]
46.181[19, 19, 24, 33, 20, 17, 18, 20]
46.195[18, 19, 22, 33, 19, 17, 18, 21]
46.218[19, 21, 22, 32, 19, 17, 18, 22]
46.24[18, 19, 23, 30, 20, 20, 18, 22]
46.255[18, 19, 21, 29, 19, 21, 19, 23]
46.287[17, 19, 21, 31, 19, 19, 17, 22]
46.301[18, 21, 23, 31, 21, 18, 17, 20]
46.315[17, 18, 21, 27, 21, 20, 17, 19]
46.346[17, 19, 20, 32, 22, 17, 18, 18]
46.361[18, 19, 19, 33, 22, 17, 19, 17]
46.375[18, 19, 19, 30, 23, 19, 20, 17]
46.398[19, 18, 18, 32, 22, 19, 22, 16]
46.421[19, 19, 17, 34, 22, 20, 23, 19]
46.435[20, 19, 19, 29, 20, 21, 22, 19]
46.458[19, 20, 19, 28, 20, 22, 22, 21]
46.48[20, 21, 21, 28, 19, 22, 21, 21]
46.496[18, 20, 21, 32, 18, 24, 19, 20]
46.518[18, 20, 21, 31, 20, 22, 18, 20]
46.54[18, 21, 21, 30, 20, 22, 17, 19]
46.555[17, 20, 21, 30, 20, 22, 17, 18]
46.578[18, 20, 19, 33, 20, 20, 20, 18]
46.6[17, 21, 20, 34, 22, 18, 18, 18]
46.615[19, 20, 21, 35, 19, 19, 18, 16]
46.638[19, 19, 22, 35, 20, 19, 18, 19]
46.66[19, 20, 22, 35, 19, 18, 17, 18]
46.675[18, 20, 22, 36, 19, 19, 14, 18]
46.698[19, 20, 22, 33, 20, 20, 17, 17]
46.72[16, 19, 21, 30, 22, 17, 17, 19]
46.735[16, 22, 20, 30, 21, 19, 17, 17]
46.758[17, 21, 20, 33, 22, 19, 18, 18]
46.78[17, 20, 22, 33, 21, 18, 21, 19]
46.803[16, 21, 22, 32, 19, 18, 20, 19]
46.818[17, 22, 22, 31, 19, 21, 19, 18]
46.841[18, 19, 21, 32, 18, 21, 20, 17]
46.863[20, 20, 22, 30, 19, 20, 20, 15]
46.878[21, 22, 18, 30, 19, 21, 17, 15]
46.901[21, 21, 16, 30, 19, 21, 16, 17]
46.923[21, 20, 19, 31, 19, 19, 16, 19]
46.94[20, 21, 19, 31, 21, 19, 17, 19]
46.962[19, 20, 19, 30, 21, 18, 16, 21]
46.983[20, 22, 22, 29, 21, 29, 15, 24]
47.006[19, 21, 22, 32, 23, 29, 16, 23]
47.023[20, 22, 22, 31, 22, 30, 18, 22]
47.043[20, 21, 22, 31, 19, 35, 18, 22]
47.058[20, 23, 20, 33, 21, 37, 18, 19]
47.08[18, 21, 19, 34, 22, 31, 20, 16]
47.103[19, 22, 19, 29, 23, 30, 20, 17]
47.118[18, 21, 18, 32, 23, 28, 20, 17]
47.14[17, 24, 18, 34, 22, 21, 20, 19]
47.163[17, 23, 19, 33, 21, 19, 21, 20]
47.178[19, 22, 19, 30, 20, 16, 20, 20]
47.2[18, 22, 19, 30, 19, 18, 19, 19]
47.223[18, 22, 21, 35, 17, 19, 19, 19]
47.239[20, 20, 21, 35, 21, 22, 19, 20]
47.261[19, 18, 22, 33, 22, 22, 17, 20]
47.283[16, 20, 22, 32, 21, 23, 17, 19]
47.306[18, 19, 21, 33, 19, 21, 18, 20]
47.321[17, 19, 20, 29, 21, 21, 19, 20]
47.351[18, 20, 20, 29, 18, 18, 19, 17]
47.366[21, 19, 21, 30, 17, 18, 20, 18]
47.389[21, 19, 22, 30, 18, 21, 21, 20]
47.404[22, 18, 21, 32, 18, 23, 20, 21]
47.419[23, 19, 21, 30, 18, 22, 19, 21]
47.448[22, 17, 22, 28, 19, 22, 18, 21]
47.463[19, 19, 22, 27, 22, 23, 19, 22]
47.479[22, 18, 20, 34, 22, 22, 19, 21]
47.501[20, 19, 21, 32, 24, 21, 18, 23]
47.524[19, 19, 22, 31, 25, 21, 18, 23]
47.538[20, 20, 20, 31, 24, 22, 20, 23]
47.569[20, 21, 18, 35, 23, 20, 19, 21]
47.583[18, 23, 19, 31, 22, 17, 19, 23]
47.606[18, 23, 20, 30, 21, 18, 19, 20]
47.62[18, 22, 21, 30, 20, 17, 19, 21]
47.651[18, 23, 22, 38, 23, 18, 17, 22]
47.658[18, 21, 23, 36, 23, 18, 17, 24]
47.68[18, 19, 23, 35, 24, 21, 18, 22]
47.703[20, 18, 23, 34, 24, 19, 18, 22]
47.726[19, 19, 23, 34, 24, 19, 17, 21]
47.756[19, 19, 22, 33, 21, 19, 18, 20]
47.779[21, 21, 24, 32, 19, 19, 20, 19]
47.786[20, 22, 22, 32, 18, 16, 19, 19]
47.802[21, 23, 23, 33, 19, 16, 18, 18]
47.824[22, 22, 22, 36, 18, 17, 19, 19]
47.847[23, 21, 24, 29, 19, 19, 18, 18]
47.861[23, 21, 21, 29, 19, 19, 17, 17]
47.891[24, 20, 22, 29, 18, 21, 18, 16]
47.906[22, 20, 21, 34, 16, 20, 20, 17]
47.92[22, 20, 21, 31, 19, 20, 20, 21]
47.944[22, 21, 18, 31, 17, 19, 21, 20]
47.966[21, 21, 18, 29, 19, 19, 20, 21]
47.98[20, 21, 21, 33, 19, 18, 19, 22]
48.003[22, 21, 20, 31, 21, 20, 18, 23]
48.034[20, 19, 20, 31, 21, 21, 19, 20]
48.04[20, 18, 21, 29, 21, 20, 18, 21]
48.064[20, 18, 23, 32, 22, 19, 19, 21]
48.086[20, 19, 21, 30, 23, 20, 19, 20]
48.1[19, 19, 22, 27, 22, 18, 19, 20]
48.123[19, 20, 20, 26, 23, 18, 19, 21]
48.146[21, 22, 22, 31, 22, 19, 19, 20]
48.16[20, 21, 22, 31, 22, 20, 18, 22]
48.184[22, 21, 21, 29, 22, 20, 19, 22]
48.207[21, 21, 21, 29, 22, 20, 20, 22]
48.22[21, 20, 22, 32, 21, 19, 19, 22]
48.243[18, 19, 21, 31, 22, 18, 18, 21]
48.266[18, 20, 19, 29, 22, 19, 19, 18]
48.28[17, 19, 20, 30, 20, 18, 20, 18]
48.303[17, 20, 20, 30, 20, 18, 18, 17]
48.326[17, 21, 20, 32, 22, 18, 17, 18]
48.34[20, 19, 21, 30, 23, 19, 20, 18]
48.363[21, 18, 22, 29, 21, 18, 19, 19]
48.386[20, 21, 22, 28, 22, 18, 18, 19]
48.409[21, 20, 22, 28, 21, 20, 20, 18]
48.423[22, 21, 22, 31, 20, 20, 20, 16]
48.454[20, 24, 22, 30, 18, 18, 20, 16]
48.476[21, 25, 23, 30, 19, 19, 20, 17]
48.483[22, 24, 22, 30, 18, 20, 20, 19]
48.506[22, 23, 22, 31, 19, 19, 17, 19]
48.52[21, 21, 22, 23, 18, 20, 18, 19]
48.543[21, 22, 21, 31, 18, 20, 15, 19]
48.567[21, 22, 22, 31, 19, 19, 16, 18]
48.589[21, 22, 21, 31, 19, 16, 16, 16]
48.611[20, 22, 22, 30, 19, 17, 17, 17]
48.627[22, 22, 22, 32, 21, 15, 18, 16]
48.64[22, 18, 24, 27, 20, 15, 19, 18]
48.663[20, 18, 23, 26, 19, 17, 20, 17]
48.686[19, 17, 24, 27, 20, 18, 20, 19]
48.709[20, 17, 24, 29, 20, 19, 20, 19]
48.723[18, 16, 23, 32, 18, 20, 21, 18]
48.746[18, 17, 21, 31, 20, 21, 21, 17]
48.768[18, 16, 22, 30, 20, 20, 20, 20]
48.784[18, 17, 21, 29, 19, 21, 20, 19]
48.807[19, 17, 21, 34, 20, 20, 21, 21]
48.829[19, 18, 20, 31, 20, 20, 20, 20]
48.844[18, 18, 21, 31, 19, 20, 19, 21]
48.866[17, 20, 21, 31, 19, 20, 19, 20]
48.888[18, 18, 21, 38, 20, 21, 19, 21]
48.903[18, 19, 21, 33, 18, 21, 17, 19]
48.926[18, 20, 22, 30, 18, 20, 16, 20]
48.949[18, 19, 22, 30, 19, 20, 18, 19]
48.964[20, 19, 21, 34, 19, 20, 18, 20]
48.987[20, 21, 20, 35, 19, 18, 19, 18]
49.009[19, 19, 20, 35, 20, 19, 20, 19]
49.024[21, 18, 20, 36, 21, 19, 20, 19]
49.046[24, 19, 20, 40, 21, 20, 19, 20]
49.069[22, 19, 22, 38, 22, 19, 19, 18]
49.084[22, 19, 22, 30, 23, 20, 17, 18]
49.106[22, 19, 22, 31, 22, 19, 18, 17]
49.129[19, 19, 22, 36, 23, 20, 17, 17]
49.144[17, 20, 23, 33, 24, 19, 17, 17]
49.167[19, 19, 22, 33, 22, 19, 17, 19]
49.188[19, 20, 21, 32, 21, 19, 17, 19]
49.211[19, 20, 22, 36, 21, 20, 16, 20]
49.226[19, 21, 22, 33, 20, 20, 18, 20]
49.248[19, 20, 20, 33, 18, 20, 17, 20]
49.263[17, 19, 23, 32, 19, 19, 18, 18]
49.286[17, 19, 24, 33, 19, 19, 17, 17]
49.309[17, 20, 22, 34, 17, 18, 17, 16]
49.323[18, 20, 22, 31, 20, 16, 16, 16]
49.346[18, 20, 21, 29, 21, 17, 16, 17]
49.369[19, 22, 19, 32, 20, 18, 17, 18]
49.383[21, 19, 20, 36, 22, 18, 18, 19]
49.406[20, 19, 20, 32, 24, 20, 18, 18]
49.428[21, 21, 20, 32, 21, 20, 18, 19]
49.443[19, 21, 19, 34, 20, 19, 20, 20]
49.466[18, 20, 19, 35, 20, 20, 18, 19]
49.489[17, 21, 18, 33, 19, 20, 18, 19]
49.503[17, 21, 21, 29, 17, 20, 19, 21]
49.526[16, 21, 20, 29, 17, 21, 17, 18]
49.549[17, 21, 21, 29, 19, 21, 17, 18]
49.563[17, 22, 24, 32, 20, 20, 20, 19]
49.587[18, 22, 25, 32, 21, 19, 20, 18]
49.609[20, 21, 23, 32, 21, 18, 20, 18]
49.631[20, 21, 23, 32, 21, 18, 21, 18]
49.646[24, 21, 24, 32, 23, 18, 20, 19]
49.676[24, 22, 21, 36, 24, 18, 19, 19]
49.691[23, 22, 21, 36, 23, 17, 19, 22]
49.706[22, 23, 21, 36, 23, 16, 21, 21]
49.729[21, 24, 21, 36, 23, 17, 21, 22]
49.751[18, 24, 20, 40, 21, 18, 20, 22]
49.767[17, 22, 20, 32, 20, 18, 21, 20]
49.789[17, 24, 20, 33, 19, 19, 19, 16]
49.811[17, 23, 20, 33, 20, 19, 18, 18]
49.827[17, 21, 20, 36, 22, 21, 17, 18]
49.855[18, 23, 20, 32, 21, 19, 16, 18]
49.87[20, 22, 21, 31, 21, 19, 19, 20]
49.887[19, 20, 21, 29, 20, 18, 19, 22]
49.908[20, 20, 20, 31, 20, 20, 21, 22]
49.93[21, 20, 21, 34, 18, 19, 21, 23]
49.947[21, 18, 19, 33, 18, 20, 20, 23]
49.968[20, 20, 19, 33, 17, 20, 18, 23]
49.99[20, 22, 19, 33, 19, 20, 17, 23]
50.007[20, 21, 20, 35, 20, 18, 16, 22]
50.035[19, 20, 21, 29, 20, 18, 19, 22]
50.051[20, 22, 21, 31, 19, 20, 20, 23]
50.067[18, 20, 22, 31, 20, 20, 21, 23]
50.088[18, 20, 22, 32, 20, 20, 21, 23]
50.11[17, 22, 19, 32, 19, 21, 21, 22]
50.128[19, 21, 18, 32, 21, 21, 21, 21]
50.156[17, 22, 21, 31, 22, 20, 22, 20]
50.17[18, 22, 18, 33, 23, 21, 21, 19]
50.187[19, 20, 20, 33, 23, 21, 22, 19]
50.208[19, 21, 22, 29, 23, 19, 22, 20]
50.231[19, 25, 21, 27, 22, 17, 21, 19]
50.247[19, 23, 23, 28, 23, 16, 19, 19]
50.268[19, 23, 23, 30, 21, 15, 18, 18]
50.291[19, 24, 23, 30, 21, 15, 18, 18]
50.307[20, 25, 24, 31, 19, 17, 20, 17]
50.328[21, 21, 24, 32, 21, 19, 19, 17]
50.351[21, 23, 21, 30, 20, 19, 20, 16]
50.367[21, 24, 22, 29, 18, 19, 20, 20]
50.388[20, 23, 22, 29, 19, 19, 20, 20]
50.41[20, 21, 20, 30, 19, 18, 17, 21]
50.427[19, 22, 22, 31, 19, 17, 17, 21]
50.448[19, 20, 22, 29, 20, 19, 16, 21]
50.471[21, 20, 21, 25, 22, 19, 17, 17]
50.487[21, 21, 21, 24, 20, 19, 16, 17]
50.508[20, 20, 20, 29, 22, 19, 17, 19]
50.531[21, 19, 20, 30, 21, 18, 18, 19]
50.547[22, 21, 20, 32, 21, 17, 18, 20]
50.568[21, 21, 19, 32, 21, 17, 19, 21]
50.591[20, 22, 19, 32, 22, 18, 20, 20]
50.613[19, 21, 21, 32, 22, 17, 19, 18]
50.628[17, 24, 20, 31, 24, 17, 18, 19]
50.651[16, 21, 20, 29, 24, 18, 18, 19]
50.673