[18, 20, 20, 20, 25, 27, 24, 21]
0.589[19, 23, 21, 21, 25, 30, 31, 27]
0.612[20, 24, 23, 22, 27, 31, 30, 28]
0.635[21, 23, 22, 21, 26, 28, 32, 28]
0.65[19, 24, 23, 22, 26, 29, 31, 28]
0.673[23, 23, 21, 21, 23, 28, 30, 27]
0.695[22, 20, 19, 22, 22, 25, 22, 21]
0.709[22, 20, 17, 22, 20, 24, 23, 20]
0.736[20, 21, 16, 20, 22, 31, 24, 28]
0.755[20, 21, 17, 20, 22, 30, 26, 30]
0.769[18, 20, 18, 20, 23, 33, 26, 30]
0.792[19, 21, 19, 18, 23, 37, 26, 31]
0.814[20, 21, 21, 21, 24, 39, 27, 32]
0.829[21, 20, 21, 21, 23, 35, 25, 24]
0.852[20, 20, 18, 19, 23, 33, 23, 22]
0.874[20, 19, 18, 20, 23, 31, 25, 22]
0.889[19, 20, 19, 21, 23, 28, 24, 20]
0.912[18, 19, 18, 20, 25, 27, 20, 19]
0.935[17, 20, 18, 20, 25, 28, 21, 19]
0.957[18, 18, 20, 22, 26, 30, 25, 27]
0.972[17, 20, 20, 20, 25, 29, 24, 26]
0.994[18, 18, 20, 20, 25, 29, 26, 26]
1.018[18, 18, 19, 19, 25, 28, 26, 27]
1.032[18, 18, 20, 19, 24, 27, 26, 28]
1.055[18, 18, 18, 19, 22, 25, 21, 21]
1.069[19, 20, 19, 20, 21, 23, 28, 29]
1.092[18, 20, 19, 22, 20, 22, 27, 30]
1.115[19, 20, 19, 22, 17, 22, 27, 31]
1.129[19, 19, 18, 21, 21, 24, 26, 31]
1.152[18, 21, 18, 22, 22, 26, 27, 31]
1.175[18, 18, 17, 22, 22, 29, 23, 27]
1.189[21, 19, 19, 20, 23, 32, 29, 32]
1.213[21, 19, 20, 19, 22, 32, 29, 31]
1.234[21, 19, 20, 19, 20, 32, 29, 31]
1.258[21, 20, 21, 18, 19, 32, 28, 31]
1.272[21, 20, 22, 21, 21, 31, 26, 31]
1.294[19, 19, 21, 21, 22, 29, 20, 24]
1.31[19, 20, 20, 23, 24, 29, 26, 30]
1.332[19, 20, 21, 24, 23, 30, 27, 30]
1.355[19, 18, 20, 24, 23, 28, 27, 29]
1.369[18, 18, 20, 22, 22, 31, 28, 31]
1.392[17, 20, 20, 22, 21, 32, 28, 29]
1.414[17, 18, 20, 21, 18, 30, 23, 24]
1.438[17, 17, 20, 21, 21, 32, 23, 22]
1.452[16, 18, 21, 20, 22, 34, 26, 28]
1.474[17, 18, 21, 20, 25, 32, 25, 24]
1.498[18, 18, 23, 19, 25, 30, 25, 25]
1.52[18, 19, 23, 19, 25, 31, 25, 25]
1.534[16, 20, 25, 18, 23, 28, 24, 27]
1.558[18, 21, 24, 19, 24, 27, 21, 24]
1.582[18, 22, 24, 19, 22, 26, 26, 30]
1.595[18, 22, 23, 19, 21, 27, 23, 29]
1.618[20, 23, 23, 19, 20, 28, 24, 29]
1.641[21, 24, 20, 18, 19, 26, 25, 31]
1.655[21, 22, 22, 16, 18, 28, 23, 29]
1.679[19, 22, 20, 16, 18, 27, 18, 22]
1.701[21, 21, 23, 20, 20, 26, 31, 29]
1.714[19, 20, 21, 20, 20, 30, 33, 29]
1.737[19, 21, 22, 20, 22, 33, 34, 27]
1.76[17, 21, 23, 21, 22, 31, 35, 27]
1.774[17, 21, 23, 21, 23, 31, 35, 28]
1.798[15, 21, 21, 21, 22, 31, 26, 23]
1.82[17, 21, 24, 21, 23, 25, 29, 28]
1.834[16, 20, 23, 22, 24, 26, 27, 27]
1.857[16, 21, 22, 22, 24, 28, 26, 27]
1.887[17, 21, 22, 22, 25, 29, 26, 27]
1.894[19, 23, 22, 19, 23, 29, 26, 26]
1.925[19, 23, 20, 18, 23, 37, 20, 20]
1.94[21, 23, 21, 18, 22, 37, 24, 25]
1.962[22, 22, 22, 19, 25, 39, 23, 25]
1.977[22, 23, 23, 21, 25, 40, 23, 26]
2.0[21, 20, 24, 22, 26, 40, 23, 26]
2.022[22, 22, 23, 22, 27, 34, 25, 27]
2.037[23, 21, 24, 22, 25, 33, 29, 29]
2.06[22, 22, 22, 21, 23, 29, 30, 29]
2.082[22, 21, 22, 20, 22, 26, 30, 28]
2.097[22, 20, 22, 20, 21, 30, 30, 28]
2.119[21, 18, 22, 20, 24, 29, 28, 26]
2.142[19, 18, 21, 21, 25, 27, 22, 19]
2.158[20, 16, 19, 19, 27, 27, 25, 24]
2.18[20, 19, 19, 20, 26, 27, 27, 27]
2.202[19, 19, 18, 19, 27, 24, 27, 26]
2.225[20, 18, 18, 19, 25, 29, 28, 27]
2.247[21, 20, 18, 21, 26, 30, 27, 31]
2.278[20, 21, 19, 21, 23, 31, 24, 27]
2.28[23, 20, 19, 20, 23, 44, 28, 31]
2.3[23, 20, 19, 20, 21, 47, 28, 31]
2.322[22, 21, 20, 19, 20, 45, 27, 31]
2.337[20, 19, 19, 17, 19, 45, 29, 30]
2.359[19, 19, 21, 17, 18, 44, 29, 30]
2.382[18, 19, 20, 17, 19, 31, 26, 30]
2.397[18, 19, 21, 16, 20, 25, 26, 30]
2.42[17, 21, 21, 18, 20, 21, 27, 32]
2.442[18, 21, 21, 18, 22, 26, 25, 31]
2.456[19, 21, 20, 20, 23, 27, 26, 32]
2.48[18, 20, 23, 21, 23, 27, 22, 25]
2.502[18, 20, 21, 21, 23, 28, 26, 29]
2.524[18, 20, 22, 22, 22, 31, 26, 28]
2.547[17, 21, 21, 22, 21, 29, 25, 27]
2.57[17, 21, 19, 20, 23, 29, 26, 26]
2.576[17, 22, 18, 21, 24, 33, 25, 26]
2.6[19, 22, 19, 21, 25, 31, 23, 23]
2.622[19, 21, 18, 19, 25, 29, 27, 24]
2.636[19, 20, 19, 19, 25, 25, 27, 24]
2.667[23, 20, 19, 19, 21, 26, 28, 24]
2.69[22, 20, 17, 17, 22, 23, 29, 23]
2.698[23, 20, 19, 19, 21, 24, 28, 22]
2.72[22, 22, 21, 19, 21, 25, 25, 19]
2.742[22, 22, 21, 21, 21, 27, 29, 29]
2.756[21, 22, 21, 21, 21, 26, 26, 29]
2.783[20, 23, 21, 21, 18, 25, 26, 30]
2.803[19, 22, 21, 21, 19, 24, 27, 30]
2.824[21, 20, 21, 22, 19, 25, 25, 31]
2.839[20, 20, 21, 21, 19, 21, 20, 21]
2.865[18, 20, 21, 21, 20, 22, 28, 27]
2.885[20, 19, 21, 23, 20, 21, 26, 27]
2.908[18, 20, 20, 23, 18, 25, 27, 27]
2.922[18, 21, 20, 24, 22, 26, 28, 27]
2.945[17, 22, 21, 23, 21, 27, 28, 27]
2.96[18, 23, 19, 23, 20, 27, 23, 20]
2.982[18, 23, 21, 20, 22, 29, 25, 25]
3.004[20, 21, 21, 19, 23, 25, 25, 24]
3.02[19, 19, 21, 19, 20, 27, 25, 24]
3.042[20, 19, 20, 20, 21, 28, 26, 25]
3.065[20, 19, 21, 21, 21, 29, 23, 27]
3.08[21, 20, 20, 24, 20, 27, 22, 22]
3.103[19, 21, 20, 23, 20, 30, 24, 23]
3.125[19, 22, 19, 24, 22, 28, 28, 27]
3.148[19, 22, 20, 24, 20, 26, 27, 26]
3.169[20, 20, 19, 23, 21, 26, 28, 25]
3.184[20, 19, 20, 22, 21, 27, 27, 25]
3.2[21, 19, 21, 22, 21, 26, 24, 25]
3.221[20, 18, 21, 22, 19, 25, 20, 21]
3.244[21, 18, 23, 22, 20, 31, 26, 27]
3.268[20, 17, 24, 21, 20, 30, 25, 26]
3.289[18, 18, 23, 20, 20, 29, 26, 27]
3.304[18, 16, 21, 23, 20, 32, 26, 26]
3.321[18, 19, 22, 22, 19, 31, 26, 31]
3.343[18, 20, 18, 21, 21, 28, 23, 26]
3.365[17, 22, 17, 21, 21, 29, 32, 33]
3.38[18, 22, 20, 20, 21, 30, 32, 33]
3.403[17, 22, 21, 19, 22, 27, 33, 35]
3.425[16, 19, 22, 21, 23, 27, 33, 30]
3.448[18, 19, 23, 21, 23, 30, 32, 31]
3.461[19, 16, 21, 21, 24, 29, 23, 25]
3.484[19, 16, 21, 20, 23, 31, 28, 29]
3.508[20, 17, 21, 20, 23, 30, 27, 28]
3.521[20, 19, 20, 18, 22, 31, 26, 28]
3.552[18, 19, 20, 18, 21, 29, 28, 28]
3.56[19, 21, 22, 19, 21, 32, 28, 30]
3.581[19, 24, 21, 20, 21, 31, 32, 31]
3.604[18, 24, 21, 20, 23, 32, 32, 28]
3.62[19, 23, 21, 20, 21, 31, 32, 29]
3.643[19, 23, 21, 21, 23, 29, 29, 28]
3.664[18, 22, 20, 19, 23, 26, 29, 28]
3.681[18, 20, 20, 19, 24, 22, 17, 22]
3.701[20, 23, 20, 19, 22, 24, 23, 27]
3.725[20, 22, 20, 18, 22, 26, 23, 26]
3.74[20, 22, 21, 17, 20, 26, 24, 28]
3.762[21, 23, 22, 18, 20, 25, 25, 28]
3.785[22, 22, 22, 17, 21, 27, 25, 26]
3.808[19, 19, 22, 18, 22, 26, 23, 30]
3.829[20, 19, 23, 18, 23, 24, 23, 30]
3.851[20, 21, 23, 20, 24, 22, 23, 29]
3.874[19, 21, 23, 19, 24, 22, 21, 28]
3.889[20, 21, 24, 21, 22, 21, 21, 29]
3.92[21, 21, 23, 22, 22, 22, 25, 27]
3.927[20, 21, 22, 21, 22, 22, 30, 28]
3.941[19, 19, 21, 21, 21, 25, 28, 29]
3.964[20, 19, 22, 21, 20, 28, 29, 27]
3.986[18, 19, 19, 20, 20, 30, 30, 29]
4.003[18, 20, 20, 19, 19, 30, 27, 32]
4.024[19, 19, 20, 21, 20, 33, 22, 31]
4.046[19, 20, 18, 21, 19, 32, 22, 30]
4.061[20, 20, 16, 21, 19, 31, 22, 32]
4.085[19, 21, 19, 21, 19, 29, 21, 30]
4.108[18, 21, 19, 20, 21, 30, 23, 27]
4.123[19, 21, 20, 20, 23, 33, 24, 26]
4.145[19, 21, 22, 20, 24, 34, 26, 27]
4.168[19, 20, 25, 21, 25, 34, 28, 26]
4.189[20, 21, 23, 22, 25, 36, 28, 27]
4.211[20, 22, 23, 22, 24, 40, 30, 27]
4.234[20, 22, 23, 21, 25, 38, 29, 29]
4.241[20, 22, 22, 21, 25, 37, 29, 31]
4.264[19, 22, 21, 20, 24, 39, 29, 30]
4.286[19, 20, 22, 19, 25, 39, 28, 31]
4.301[19, 21, 22, 19, 25, 36, 31, 29]
4.331[17, 21, 22, 20, 23, 37, 34, 29]
4.354[17, 20, 22, 19, 24, 37, 33, 26]
4.361[17, 20, 21, 20, 25, 33, 31, 26]
4.384[17, 21, 21, 23, 28, 37, 35, 28]
4.407[18, 20, 19, 23, 28, 37, 28, 26]
4.421[18, 20, 20, 23, 27, 31, 26, 24]
4.444[20, 22, 20, 25, 28, 39, 26, 24]
4.466[20, 22, 18, 26, 28, 45, 31, 28]
4.481[20, 22, 20, 23, 24, 50, 28, 26]
4.504[19, 21, 23, 25, 23, 49, 27, 25]
4.527[19, 21, 22, 25, 23, 50, 27, 26]
4.541[18, 19, 24, 23, 23, 44, 30, 30]
4.564[20, 20, 25, 20, 23, 41, 28, 30]
4.587[19, 21, 23, 22, 24, 33, 28, 30]
4.601[21, 19, 22, 18, 24, 34, 28, 31]
4.624[21, 20, 22, 21, 25, 34, 27, 30]
4.647[21, 19, 21, 23, 24, 40, 28, 29]
4.662[20, 19, 21, 24, 23, 39, 25, 25]
4.684[20, 17, 21, 22, 24, 37, 27, 25]
4.706[20, 19, 19, 23, 25, 36, 27, 24]
4.722[19, 21, 21, 23, 25, 36, 29, 26]
4.744[20, 21, 20, 22, 27, 31, 33, 27]
4.766[20, 21, 22, 22, 28, 30, 34, 28]
4.789[19, 22, 23, 22, 26, 31, 31, 29]
4.804[19, 21, 23, 26, 33, 35, 31, 29]
4.835[26, 19, 22, 25, 33, 47, 30, 29]
4.849[33, 19, 23, 26, 34, 51, 28, 29]
4.864[34, 21, 22, 26, 33, 50, 27, 28]
4.886[35, 21, 23, 27, 33, 52, 28, 28]
4.909[36, 21, 23, 26, 25, 50, 29, 28]
4.932[32, 22, 23, 25, 25, 39, 33, 33]
4.955[25, 20, 21, 23, 22, 35, 28, 28]
4.969[22, 18, 23, 21, 21, 36, 28, 27]
4.984[22, 18, 21, 22, 22, 32, 29, 30]
5.006[20, 20, 21, 20, 21, 32, 31, 34]
5.029[19, 20, 23, 22, 21, 33, 27, 28]
5.044[19, 22, 23, 22, 21, 34, 26, 28]
5.066[19, 22, 22, 23, 21, 33, 26, 28]
5.089[18, 22, 23, 20, 22, 35, 23, 24]
5.104[17, 22, 24, 20, 23, 38, 18, 21]
5.127[18, 22, 25, 18, 24, 38, 24, 26]
5.149[29, 22, 24, 20, 24, 36, 24, 27]
5.164[31, 22, 24, 20, 26, 36, 26, 27]
5.186[32, 21, 24, 21, 25, 32, 28, 27]
5.209[32, 20, 22, 20, 25, 34, 30, 27]
5.224[31, 22, 20, 22, 25, 32, 28, 25]
5.255[22, 21, 22, 23, 25, 34, 28, 25]
5.269[22, 22, 20, 24, 24, 35, 26, 25]
5.284[21, 21, 21, 24, 23, 34, 26, 26]
5.314[21, 22, 21, 24, 22, 35, 26, 29]
5.329[21, 20, 22, 23, 20, 35, 24, 26]
5.344[21, 22, 21, 22, 20, 34, 23, 25]
5.375[27, 24, 22, 19, 21, 33, 25, 24]
5.389[27, 24, 22, 20, 23, 35, 23, 23]
5.404[33, 24, 23, 21, 23, 29, 28, 30]
5.426[77, 35, 23, 21, 24, 29, 29, 32]
5.449[81, 36, 22, 21, 24, 26, 29, 32]
5.464[84, 36, 22, 21, 24, 28, 28, 32]
5.486[85, 38, 22, 19, 24, 27, 29, 32]
5.509[84, 38, 20, 20, 24, 32, 27, 31]
5.532[48, 27, 19, 22, 23, 32, 26, 30]
5.555[46, 26, 18, 22, 22, 32, 26, 30]
5.569[37, 23, 19, 25, 24, 34, 27, 31]
5.584[37, 22, 22, 24, 23, 37, 33, 35]
5.606[36, 23, 23, 24, 22, 31, 28, 26]
5.629[35, 24, 23, 22, 23, 32, 28, 27]
5.644[29, 23, 23, 24, 25, 34, 29, 28]
5.666[30, 23, 24, 22, 22, 32, 28, 27]
5.697[31, 22, 21, 24, 23, 31, 24, 28]
5.704[30, 21, 22, 22, 25, 39, 25, 29]
5.726[30, 22, 24, 23, 23, 40, 26, 27]
5.75[30, 23, 25, 23, 24, 42, 25, 26]
5.772[28, 22, 25, 23, 24, 43, 25, 27]
5.786[22, 21, 26, 22, 23, 41, 29, 27]
5.809[20, 21, 25, 23, 23, 38, 29, 27]
5.84[24, 20, 23, 20, 26, 38, 31, 27]
5.855[29, 19, 24, 18, 26, 32, 32, 27]
5.869[40, 22, 23, 22, 30, 41, 35, 33]
5.892[83, 39, 25, 23, 32, 43, 29, 30]
5.906[95, 46, 24, 22, 31, 45, 29, 31]
5.937[99, 48, 24, 25, 31, 44, 26, 30]
5.952[102, 48, 23, 27, 32, 46, 25, 30]
5.966[100, 48, 23, 23, 27, 37, 24, 30]
5.989[69, 36, 22, 22, 25, 35, 27, 31]
6.012[53, 26, 21, 21, 24, 30, 27, 31]
6.026[49, 25, 23, 20, 25, 29, 27, 32]
6.049[40, 24, 21, 18, 23, 31, 28, 38]
6.072[38, 23, 22, 22, 26, 35, 30, 37]
6.086[36, 22, 20, 23, 27, 38, 28, 36]
6.109[35, 24, 21, 23, 29, 38, 27, 35]
6.132[28, 21, 18, 23, 26, 41, 29, 34]
6.146[29, 22, 19, 23, 26, 37, 29, 28]
6.169[28, 22, 19, 20, 23, 33, 29, 30]
6.192[27, 22, 19, 20, 24, 28, 32, 30]
6.206[28, 22, 20, 21, 23, 27, 32, 29]
6.229[28, 23, 21, 20, 24, 26, 31, 31]
6.252[21, 19, 22, 21, 24, 31, 32, 31]
6.267[23, 20, 21, 20, 25, 31, 28, 28]
6.289[22, 19, 21, 22, 23, 32, 25, 27]
6.312[30, 18, 23, 22, 23, 35, 25, 28]
6.327[30, 18, 22, 22, 23, 34, 29, 29]
6.349[30, 20, 21, 22, 23, 31, 27, 28]
6.372[30, 21, 20, 21, 22, 31, 30, 28]
6.386[32, 23, 19, 20, 22, 32, 29, 29]
6.417[22, 25, 16, 20, 22, 29, 30, 29]
6.432[26, 25, 19, 21, 24, 31, 29, 27]
6.447[25, 25, 22, 21, 28, 32, 29, 29]
6.469[25, 23, 21, 22, 29, 32, 30, 31]
6.492[29, 22, 22, 22, 28, 30, 29, 31]
6.506[30, 20, 23, 24, 28, 33, 28, 29]
6.529[27, 21, 22, 24, 28, 35, 27, 29]
6.553[27, 22, 21, 27, 25, 37, 32, 31]
6.566[27, 23, 22, 26, 25, 36, 27, 26]
6.589[22, 23, 24, 27, 27, 36, 27, 26]
6.613[21, 22, 22, 26, 25, 33, 28, 27]
6.626[20, 22, 23, 25, 23, 27, 27, 27]
6.65[21, 22, 22, 22, 23, 26, 28, 30]
6.672[20, 22, 24, 24, 24, 29, 27, 29]
6.695[20, 20, 21, 23, 23, 28, 28, 28]
6.709[19, 22, 23, 23, 25, 31, 27, 29]
6.732[20, 21, 22, 22, 25, 32, 28, 29]
6.755[18, 20, 21, 21, 25, 30, 25, 23]
6.769[18, 18, 21, 21, 26, 34, 28, 28]
6.792[20, 21, 21, 21, 24, 37, 28, 28]
6.815[21, 21, 22, 20, 23, 36, 30, 29]
6.83[19, 22, 21, 21, 23, 35, 28, 30]
6.852[20, 22, 22, 22, 21, 35, 25, 28]
6.875[20, 23, 21, 21, 20, 32, 20, 23]
6.889[18, 21, 21, 20, 24, 28, 24, 27]
6.912[21, 20, 20, 22, 23, 28, 25, 28]
6.935[22, 18, 23, 20, 23, 28, 27, 29]
6.95[23, 21, 22, 21, 24, 30, 27, 30]
6.972[24, 21, 23, 22, 23, 27, 29, 31]
6.995[24, 22, 21, 22, 20, 26, 27, 27]
7.01[21, 22, 20, 20, 20, 29, 31, 28]
7.032[20, 24, 18, 21, 20, 29, 30, 27]
7.054[19, 22, 20, 20, 19, 26, 30, 27]
7.07[19, 21, 21, 17, 20, 24, 29, 27]
7.092[19, 21, 23, 19, 20, 27, 30, 28]
7.114[20, 21, 22, 19, 20, 24, 27, 27]
7.129[21, 21, 21, 18, 22, 26, 26, 27]
7.152[21, 21, 20, 21, 22, 27, 28, 28]
7.174[19, 21, 19, 21, 21, 31, 28, 27]
7.189[20, 23, 17, 20, 22, 32, 27, 26]
7.212[21, 21, 17, 21, 21, 32, 28, 25]
7.234[20, 19, 18, 21, 20, 34, 28, 27]
7.249[18, 18, 20, 20, 22, 37, 25, 23]
7.272[18, 19, 20, 21, 22, 37, 25, 24]
7.295[17, 17, 20, 21, 22, 35, 23, 25]
7.309[17, 19, 20, 22, 24, 35, 23, 24]
7.34[19, 18, 20, 21, 25, 31, 25, 24]
7.362[20, 18, 19, 23, 25, 30, 25, 28]
7.368[22, 18, 19, 22, 23, 27, 27, 28]
7.392[21, 19, 18, 22, 24, 30, 29, 29]
7.415[21, 19, 20, 21, 26, 36, 28, 30]
7.429[20, 20, 20, 23, 24, 38, 25, 27]
7.452[19, 23, 19, 19, 24, 37, 28, 27]
7.474[17, 24, 21, 20, 25, 37, 27, 26]
7.497[19, 23, 21, 21, 24, 34, 31, 30]
7.52[19, 23, 22, 21, 21, 29, 29, 27]
7.534[19, 23, 21, 20, 22, 29, 30, 28]
7.549[19, 21, 22, 21, 23, 29, 27, 27]
7.572[20, 20, 20, 22, 22, 31, 27, 30]
7.594[18, 20, 21, 22, 22, 33, 25, 27]
7.609[16, 20, 20, 20, 22, 33, 25, 28]
7.632[16, 20, 19, 20, 22, 31, 25, 27]
7.654[17, 22, 19, 20, 21, 32, 25, 27]
7.677[18, 24, 21, 19, 22, 32, 26, 26]
7.692[18, 23, 20, 21, 21, 29, 27, 27]
7.714[19, 24, 20, 21, 24, 29, 26, 27]
7.737[19, 24, 20, 22, 25, 31, 26, 27]
7.76[18, 23, 21, 21, 23, 27, 26, 27]
7.775[18, 20, 19, 21, 25, 25, 30, 32]
7.797[19, 21, 19, 20, 25, 28, 28, 30]
7.812[18, 20, 19, 19, 23, 29, 28, 30]
7.834[19, 20, 21, 19, 23, 29, 27, 30]
7.857[20, 20, 20, 20, 24, 30, 31, 34]
7.872[20, 21, 22, 20, 21, 29, 26, 29]
7.894[20, 20, 22, 18, 22, 26, 27, 26]
7.917[19, 20, 23, 19, 22, 23, 28, 25]
7.932[21, 21, 20, 19, 21, 20, 34, 29]
7.955[21, 20, 21, 18, 21, 19, 35, 30]
7.977[21, 21, 20, 19, 21, 22, 34, 30]
7.992[21, 20, 20, 19, 21, 24, 36, 31]
8.014[21, 19, 19, 20, 22, 27, 36, 31]
8.037[20, 20, 21, 20, 22, 29, 35, 35]
8.052[18, 19, 19, 21, 22, 29, 32, 31]
8.075[19, 18, 20, 21, 22, 26, 34, 33]
8.096[20, 20, 21, 22, 21, 24, 30, 32]
8.113[22, 22, 22, 21, 18, 27, 39, 40]
8.135[38, 20, 21, 22, 18, 27, 47, 89]
8.156[42, 21, 22, 21, 17, 27, 47, 96]
8.173[42, 22, 22, 21, 18, 29, 49, 98]
8.195[43, 20, 22, 20, 20, 31, 51, 99]
8.216[42, 21, 22, 20, 22, 30, 44, 98]
8.233[30, 22, 22, 19, 22, 31, 32, 56]
8.256[25, 21, 21, 19, 24, 32, 35, 52]
8.276[25, 23, 22, 18, 24, 34, 37, 52]
8.293[26, 23, 21, 18, 23, 34, 46, 98]
8.315[26, 21, 19, 20, 23, 36, 54, 143]
8.336[26, 22, 18, 19, 24, 36, 57, 150]
8.353[25, 22, 18, 20, 23, 35, 55, 151]
8.374[24, 19, 17, 20, 23, 31, 52, 151]
8.396[22, 32, 18, 22, 24, 30, 42, 126]
8.413[27, 37, 20, 22, 24, 28, 56, 150]
8.434[27, 37, 23, 21, 25, 32, 54, 151]
8.456[27, 37, 22, 20, 25, 33, 57, 155]
8.473[28, 37, 23, 22, 25, 34, 57, 157]
8.494[27, 29, 23, 20, 24, 40, 59, 158]
8.516[21, 24, 21, 20, 22, 37, 41, 90]
8.534[19, 24, 18, 20, 20, 31, 39, 74]
8.554[19, 26, 19, 23, 22, 32, 34, 58]
8.576[18, 26, 19, 22, 23, 34, 36, 47]
8.599[18, 25, 20, 21, 23, 29, 33, 42]
8.614[18, 25, 23, 22, 24, 39, 29, 33]
8.636[19, 24, 24, 27, 32, 48, 33, 30]
8.659[21, 23, 25, 30, 39, 80, 37, 32]
8.674[25, 24, 26, 32, 41, 86, 45, 128]
8.696[27, 23, 25, 33, 42, 87, 46, 135]
8.719[27, 22, 24, 34, 44, 85, 50, 140]
8.733[27, 23, 23, 30, 39, 81, 47, 142]
8.756[28, 22, 23, 25, 30, 50, 44, 143]
8.779[28, 22, 22, 21, 27, 38, 36, 100]
8.794[27, 22, 24, 21, 28, 37, 40, 131]
8.816[28, 21, 22, 20, 25, 36, 37, 132]
8.839[27, 21, 23, 20, 25, 35, 39, 132]
8.854[25, 22, 22, 21, 27, 38, 38, 131]
8.885[22, 20, 22, 20, 27, 38, 39, 112]
8.899[22, 20, 21, 20, 27, 37, 36, 61]
8.915[20, 20, 23, 21, 26, 34, 33, 47]
8.938[22, 20, 22, 21, 28, 39, 33, 41]
8.959[23, 22, 22, 21, 26, 40, 40, 41]
8.974[20, 22, 21, 21, 25, 39, 35, 34]
8.996[21, 25, 22, 23, 27, 46, 36, 60]
9.019[25, 24, 19, 23, 28, 47, 48, 133]
9.034[26, 23, 20, 22, 27, 44, 55, 144]
9.056[25, 21, 21, 25, 28, 44, 50, 146]
9.079[26, 22, 25, 73, 33, 44, 49, 148]
9.094[24, 19, 28, 90, 36, 37, 48, 141]
9.117[19, 20, 31, 105, 34, 36, 42, 80]
9.139[17, 21, 32, 106, 33, 35, 49, 58]
9.154[20, 20, 31, 108, 33, 32, 52, 51]
9.176[23, 22, 29, 86, 28, 31, 66, 138]
9.199[24, 21, 26, 78, 25, 30, 67, 143]
9.214[25, 22, 22, 86, 28, 31, 65, 146]
9.236[25, 23, 25, 87, 27, 32, 54, 147]
9.259[23, 24, 24, 88, 26, 31, 52, 148]
9.273[21, 23, 24, 86, 28, 31, 34, 74]
9.296[20, 22, 24, 85, 25, 31, 32, 59]
9.319[20, 21, 26, 67, 25, 28, 27, 46]
9.334[20, 20, 23, 78, 26, 26, 26, 39]
9.356[21, 19, 24, 87, 27, 28, 28, 36]
9.38[21, 18, 25, 94, 27, 28, 24, 27]
9.395[20, 19, 24, 97, 26, 29, 26, 27]
9.424[20, 21, 24, 90, 26, 30, 25, 30]
9.439[18, 21, 27, 86, 28, 31, 28, 33]
9.454[18, 23, 26, 89, 27, 32, 24, 31]
9.476[19, 23, 26, 83, 25, 31, 28, 31]
9.499[19, 23, 25, 76, 26, 32, 29, 30]
9.521[19, 22, 24, 78, 24, 34, 30, 28]
9.536[22, 24, 22, 72, 22, 33, 32, 26]
9.559[21, 21, 30, 80, 24, 30, 33, 25]
9.581[21, 21, 34, 82, 25, 29, 30, 23]
9.596[20, 21, 35, 81, 24, 29, 29, 24]
9.619[19, 21, 34, 84, 25, 25, 31, 26]
9.641[17, 19, 35, 85, 26, 26, 31, 28]
9.657[16, 20, 27, 60, 27, 27, 30, 27]
9.679[14, 20, 21, 64, 26, 27, 30, 29]
9.701[18, 19, 22, 100, 34, 26, 30, 33]
9.716[20, 22, 24, 100, 35, 29, 30, 36]
9.739[21, 22, 25, 101, 34, 31, 25, 31]
9.761[21, 21, 26, 106, 33, 30, 25, 32]
9.776[22, 21, 26, 100, 34, 31, 26, 33]
9.799[21, 22, 25, 61, 26, 36, 33, 36]
9.821[19, 21, 24, 55, 27, 37, 32, 36]
9.836[20, 22, 25, 63, 31, 35, 33, 37]
9.859[21, 26, 25, 57, 32, 35, 33, 36]
9.881[22, 28, 25, 68, 34, 35, 34, 36]
9.896[21, 27, 25, 70, 35, 30, 30, 31]
9.919[21, 26, 27, 87, 35, 29, 31, 25]
9.949[20, 25, 27, 83, 32, 29, 33, 25]
9.956[19, 21, 27, 86, 34, 32, 34, 27]
9.979[19, 19, 27, 79, 32, 31, 34, 33]
10.001[19, 21, 27, 86, 33, 30, 33, 31]
10.024[21, 22, 26, 85, 32, 32, 31, 32]
10.047[21, 25, 25, 83, 32, 33, 30, 34]
10.061[21, 24, 24, 82, 32, 31, 28, 32]
10.076[21, 24, 22, 83, 31, 34, 31, 32]
10.099[22, 25, 23, 79, 30, 35, 30, 33]
10.121[20, 27, 22, 59, 30, 33, 31, 34]
10.136[20, 24, 22, 63, 29, 32, 30, 31]
10.159[19, 25, 23, 75, 26, 33, 30, 33]
10.181[20, 24, 24, 76, 26, 35, 29, 27]
10.196[21, 23, 24, 81, 26, 36, 37, 31]
10.219[22, 19, 25, 85, 28, 36, 36, 31]
10.241[22, 24, 25, 83, 28, 35, 35, 32]
10.256[22, 25, 24, 72, 27, 34, 35, 30]
10.279[20, 26, 25, 70, 28, 31, 31, 28]
10.301[21, 24, 25, 57, 25, 33, 28, 22]
10.324[21, 25, 24, 49, 23, 34, 28, 24]
10.339[20, 19, 25, 39, 29, 35, 29, 26]
10.361[21, 19, 25, 34, 29, 34, 27, 25]
10.376[23, 19, 24, 31, 30, 35, 29, 28]
10.399[25, 19, 24, 45, 32, 34, 27, 31]
10.421[23, 22, 25, 56, 34, 35, 29, 29]
10.436[23, 21, 23, 56, 33, 37, 31, 29]
10.459[24, 24, 23, 57, 35, 41, 34, 29]
10.481[21, 23, 24, 56, 33, 40, 33, 28]
10.504[19, 25, 23, 44, 32, 39, 30, 25]
10.52[19, 25, 21, 41, 30, 37, 35, 28]
10.541[19, 25, 21, 59, 30, 38, 33, 35]
10.564[19, 23, 23, 62, 28, 36, 32, 38]
10.579[19, 23, 24, 64, 30, 35, 30, 38]
10.601[18, 21, 24, 63, 29, 33, 60, 37]
10.624[20, 21, 24, 58, 29, 35, 77, 34]
10.639[19, 21, 25, 47, 28, 31, 77, 26]
10.661[20, 23, 23, 48, 28, 32, 78, 27]
10.684[20, 23, 23, 46, 29, 32, 78, 28]
10.699[19, 24, 23, 61, 32, 32, 59, 29]
10.721[26, 27, 30, 96, 47, 61, 50, 41]
10.744[46, 27, 35, 128, 60, 107, 126, 113]
10.759[48, 30, 50, 143, 62, 126, 161, 116]
10.781[61, 39, 59, 151, 65, 147, 169, 129]
10.804[62, 45, 67, 188, 107, 173, 186, 130]
10.819[61, 44, 72, 176, 109, 248, 239, 138]
10.841[53, 46, 72, 159, 104, 252, 242, 108]
10.864[53, 46, 65, 152, 104, 248, 222, 105]
10.879[38, 40, 59, 173, 111, 238, 217, 89]
10.901[39, 36, 53, 181, 89, 237, 207, 89]
10.924[36, 34, 49, 230, 107, 194, 153, 73]
10.939[29, 33, 44, 241, 134, 190, 100, 43]
10.961[25, 31, 44, 241, 136, 204, 111, 38]
10.985[25, 32, 46, 353, 140, 206, 112, 37]
10.999[23, 30, 50, 360, 173, 189, 106, 34]
11.021[25, 41, 87, 431, 241, 147, 80, 36]
11.044[27, 52, 99, 481, 283, 147, 76, 33]
11.059[41, 88, 195, 530, 322, 124, 57, 37]
11.081[46, 106, 254, 468, 326, 129, 61, 40]
11.104[46, 108, 258, 468, 319, 134, 61, 41]
11.119[48, 110, 268, 434, 272, 178, 59, 37]
11.149[48, 108, 274, 447, 223, 167, 62, 38]
11.164[37, 86, 232, 422, 181, 174, 83, 33]
11.178[35, 69, 179, 465, 184, 175, 79, 35]
11.201[41, 77, 194, 588, 200, 193, 84, 40]
11.224[40, 76, 185, 589, 236, 166, 86, 38]
11.239[43, 87, 196, 550, 240, 170, 84, 37]
11.261[43, 82, 185, 540, 231, 176, 63, 36]
11.284[42, 82, 189, 548, 219, 175, 79, 34]
11.299[38, 79, 178, 445, 200, 165, 71, 26]
11.321[35, 76, 171, 402, 156, 151, 67, 27]
11.344[34, 78, 183, 412, 168, 149, 66, 27]
11.367[36, 81, 187, 401, 176, 128, 61, 26]
11.381[34, 81, 192, 345, 202, 131, 40, 24]
11.404[33, 76, 193, 335, 200, 120, 100, 25]
11.427[39, 84, 196, 328, 229, 146, 156, 28]
11.441[36, 68, 163, 311, 207, 136, 167, 31]
11.464[35, 67, 168, 302, 197, 165, 172, 33]
11.487[36, 66, 154, 288, 170, 158, 174, 35]
11.501[37, 68, 142, 245, 153, 168, 151, 34]
11.524[31, 57, 126, 242, 88, 152, 94, 31]
11.547[30, 54, 123, 213, 108, 152, 71, 27]
11.561[29, 51, 103, 233, 106, 128, 61, 27]
11.584[27, 45, 90, 251, 107, 137, 53, 23]
11.607[27, 48, 109, 219, 123, 116, 37, 23]
11.621[25, 44, 106, 215, 132, 119, 33, 23]
11.644[25, 43, 102, 218, 113, 112, 37, 24]
11.667[24, 40, 96, 198, 121, 102, 33, 22]
11.681[25, 39, 94, 163, 136, 107, 40, 23]
11.704[23, 31, 74, 277, 160, 115, 41, 25]
11.734[23, 31, 72, 284, 156, 105, 39, 23]
11.743[22, 32, 69, 287, 157, 103, 35, 23]
11.764[22, 33, 70, 290, 151, 103, 35, 22]
11.787[20, 30, 64, 299, 136, 74, 26, 20]
11.801[20, 30, 66, 215, 93, 62, 24, 20]
11.824[22, 39, 86, 209, 83, 65, 34, 23]
11.847[31, 52, 111, 205, 96, 84, 43, 25]
11.861[32, 54, 115, 195, 94, 93, 45, 25]
11.884[33, 60, 119, 201, 134, 104, 47, 25]
11.907[34, 63, 121, 185, 128, 103, 48, 24]
11.921[35, 72, 163, 256, 130, 96, 44, 26]
11.944[29, 64, 153, 283, 117, 83, 41, 31]
11.967[30, 64, 153, 303, 127, 71, 40, 32]
11.981[27, 59, 150, 286, 85, 68, 40, 32]
12.004[27, 57, 145, 289, 92, 76, 41, 32]
12.027[24, 42, 95, 237, 108, 80, 38, 30]
12.041[24, 46, 124, 283, 121, 86, 34, 23]
12.064[26, 51, 135, 288, 128, 104, 40, 23]
12.087[26, 51, 134, 287, 128, 108, 41, 24]
12.101[24, 48, 131, 278, 121, 104, 39, 23]
12.132[25, 47, 124, 268, 104, 104, 39, 21]
12.147[25, 44, 95, 197, 94, 100, 36, 22]
12.161[24, 39, 79, 158, 84, 85, 29, 21]
12.184[24, 39, 81, 163, 95, 70, 37, 35]
12.207[27, 43, 92, 166, 102, 71, 43, 40]
12.221[26, 38, 90, 154, 112, 75, 43, 40]
12.244[27, 38, 92, 139, 115, 81, 44, 40]
12.267[27, 38, 97, 141, 117, 110, 46, 40]
12.281[26, 37, 95, 128, 107, 114, 40, 30]
12.304[26, 37, 97, 120, 104, 115, 48, 33]
12.327[27, 46, 119, 124, 92, 122, 51, 35]
12.341[30, 50, 134, 140, 103, 119, 51, 35]
12.364[27, 47, 132, 133, 90, 98, 53, 35]
12.387[27, 52, 138, 151, 103, 103, 55, 36]
12.409[25, 48, 131, 155, 107, 110, 44, 27]
12.424[22, 42, 118, 163, 111, 107, 41, 25]
12.447[20, 34, 91, 140, 94, 106, 40, 26]
12.47[22, 38, 90, 139, 103, 105, 35, 26]
12.492[23, 32, 85, 121, 93, 108, 32, 23]
12.507[25, 35, 90, 116, 90, 101, 34, 22]
12.529[25, 33, 75, 97, 90, 91, 32, 23]
12.544[24, 37, 73, 99, 98, 86, 32, 22]
12.567[24, 36, 70, 85, 91, 77, 31, 22]
12.59[23, 36, 63, 88, 91, 66, 29, 22]
12.604[23, 36, 63, 114, 120, 85, 37, 34]
12.627[25, 41, 74, 120, 128, 92, 42, 34]
12.649[24, 40, 74, 115, 124, 92, 46, 34]
12.664[24, 37, 77, 117, 121, 93, 49, 35]
12.687[24, 37, 78, 113, 122, 89, 50, 35]
12.709[27, 38, 83, 163, 107, 69, 44, 23]
12.724[26, 32, 76, 179, 105, 60, 42, 25]
12.747[26, 29, 78, 179, 123, 64, 40, 25]
12.769[24, 29, 72, 179, 126, 63, 34, 24]
12.784[25, 31, 77, 176, 136, 58, 33, 24]
12.806[23, 38, 86, 120, 132, 62, 30, 24]
12.829[22, 40, 95, 98, 128, 65, 30, 20]
12.844[22, 40, 98, 94, 123, 68, 32, 27]
12.875[23, 41, 98, 92, 120, 67, 37, 35]
12.889[22, 38, 92, 89, 100, 71, 37, 36]
12.903[22, 28, 85, 79, 118, 74, 37, 38]
12.927[22, 27, 80, 91, 132, 81, 36, 39]
12.949[22, 25, 74, 99, 134, 76, 32, 33]
12.972[21, 25, 76, 101, 138, 78, 25, 25]
12.987[21, 29, 82, 102, 142, 78, 24, 25]
13.009[21, 32, 77, 98, 127, 80, 25, 20]
13.032[21, 34, 69, 71, 115, 72, 25, 19]
13.047[21, 35, 70, 65, 102, 69, 24, 18]
13.068[23, 39, 79, 76, 125, 71, 26, 20]
13.091[24, 40, 78, 93, 132, 69, 32, 21]
13.108[24, 38, 73, 88, 150, 66, 37, 34]
13.128[24, 35, 73, 89, 154, 60, 41, 37]
13.151[26, 35, 76, 93, 157, 65, 44, 37]
13.167[23, 32, 70, 99, 137, 63, 47, 38]
13.189[22, 33, 67, 97, 134, 65, 42, 37]
13.212[22, 32, 68, 101, 113, 61, 39, 26]
13.228[21, 31, 71, 99, 99, 61, 37, 22]
13.248[23, 47, 112, 200, 106, 69, 49, 35]
13.271[25, 48, 114, 217, 107, 75, 56, 35]
13.287[25, 46, 112, 215, 105, 81, 59, 35]
13.308[24, 45, 111, 216, 108, 87, 57, 34]
13.332[25, 45, 112, 219, 114, 89, 57, 35]
13.347[24, 35, 90, 158, 103, 82, 47, 24]
13.369[23, 33, 92, 156, 121, 74, 35, 20]
13.391[24, 36, 102, 203, 137, 68, 31, 21]
13.407[26, 44, 114, 217, 134, 59, 33, 21]
13.428[25, 44, 112, 217, 135, 64, 32, 21]
13.451[23, 41, 97, 201, 149, 66, 32, 18]
13.467[24, 46, 92, 181, 151, 71, 33, 20]
13.489[24, 64, 96, 125, 134, 69, 32, 20]
13.511[21, 60, 80, 102, 129, 65, 31, 21]
13.528[21, 62, 79, 97, 130, 61, 32, 21]
13.548[20, 61, 76, 88, 119, 57, 31, 25]
13.571[19, 57, 73, 99, 105, 52, 32, 24]
13.587[18, 37, 58, 104, 119, 57, 34, 24]
13.608[20, 40, 67, 104, 126, 71, 31, 24]
13.631[21, 44, 92, 107, 126, 73, 34, 24]
13.647[21, 44, 92, 108, 120, 73, 35, 22]
13.668[21, 48, 113, 114, 125, 78, 31, 23]
13.691[20, 45, 112, 102, 122, 73, 30, 23]
13.707[21, 45, 116, 103, 126, 69, 32, 24]
13.728[19, 38, 98, 98, 115, 61, 28, 22]
13.751[21, 43, 105, 103, 120, 62, 26, 21]
13.767[20, 37, 82, 78, 121, 57, 25, 21]
13.796[21, 36, 76, 76, 116, 62, 23, 22]
13.811[20, 30, 56, 63, 117, 60, 25, 20]
13.828[21, 33, 65, 84, 117, 65, 25, 20]
13.848[19, 34, 56, 80, 108, 68, 25, 21]
13.871[20, 35, 60, 84, 108, 69, 25, 22]
13.886[22, 36, 69, 131, 101, 70, 28, 23]
13.908[23, 43, 76, 139, 101, 70, 27, 23]
13.932[25, 49, 102, 164, 109, 74, 27, 23]
13.946[26, 45, 102, 187, 119, 72, 29, 23]
13.968[25, 48, 105, 244, 125, 72, 29, 23]
13.991[26, 49, 101, 239, 127, 78, 27, 21]
14.006[27, 49, 114, 247, 118, 77, 26, 21]
14.028[26, 41, 87, 226, 128, 78, 28, 20]
14.051[28, 46, 98, 211, 144, 81, 25, 20]
14.067[28, 43, 101, 142, 180, 92, 28, 19]
14.088[27, 41, 102, 116, 183, 84, 28, 20]
14.111[24, 34, 83, 92, 185, 86, 29, 20]
14.126[25, 34, 80, 87, 173, 80, 27, 20]
14.148[22, 26, 62, 76, 167, 75, 27, 20]
14.171[21, 26, 55, 66, 111, 59, 23, 19]
14.187[22, 29, 55, 85, 114, 57, 25, 22]
14.208[22, 31, 61, 80, 131, 58, 25, 22]
14.231[22, 35, 81, 86, 140, 58, 23, 21]
14.253[27, 43, 90, 95, 148, 57, 23, 23]
14.268[26, 43, 88, 98, 148, 57, 26, 21]
14.291[25, 41, 85, 102, 147, 60, 25, 18]
14.313[26, 41, 83, 150, 131, 51, 24, 18]
14.329[26, 46, 84, 159, 137, 51, 28, 21]
14.353[22, 44, 83, 183, 122, 52, 27, 22]
14.373[22, 47, 94, 186, 125, 65, 26, 23]
14.388[23, 48, 96, 179, 116, 66, 27, 23]
14.419[23, 46, 94, 144, 127, 69, 28, 24]
14.433[22, 41, 85, 129, 118, 67, 28, 22]
14.448[22, 38, 91, 107, 113, 67, 29, 24]
14.471[24, 35, 78, 101, 111, 62, 30, 25]
14.493[23, 33, 76, 105, 119, 58, 30, 24]
14.508[24, 35, 86, 116, 123, 55, 29, 25]
14.531[22, 32, 83, 123, 133, 59, 27, 24]
14.553[23, 35, 83, 121, 127, 58, 27, 21]
14.569[24, 38, 104, 130, 124, 52, 26, 20]
14.591[25, 42, 112, 185, 129, 55, 24, 19]
14.614[24, 41, 106, 189, 125, 57, 25, 19]
14.63[25, 42, 109, 220, 113, 56, 23, 21]
14.651[25, 42, 111, 230, 119, 58, 26, 21]
14.673[25, 38, 91, 230, 134, 58, 24, 21]
14.688[23, 36, 96, 189, 123, 56, 24, 22]
14.711[26, 41, 115, 184, 117, 59, 23, 22]
14.734[26, 39, 108, 145, 139, 62, 22, 22]
14.756[24, 35, 104, 140, 139, 60, 19, 22]
14.771[23, 38, 114, 136, 127, 60, 19, 23]
14.793[26, 39, 106, 129, 133, 65, 20, 23]
14.816[21, 36, 86, 130, 133, 71, 18, 23]
14.831[20, 35, 91, 134, 107, 67, 19, 23]
14.853[20, 38, 112, 114, 103, 69, 22, 24]
14.868[21, 37, 107, 108, 97, 67, 24, 23]
14.891[20, 36, 111, 178, 118, 62, 24, 23]
14.913[20, 35, 108, 173, 126, 73, 25, 25]
14.936[24, 39, 124, 170, 132, 82, 28, 24]
14.952[23, 36, 100, 166, 132, 83, 27, 23]
14.976[22, 36, 98, 166, 134, 86, 27, 23]
14.996[24, 33, 91, 172, 167, 96, 28, 22]
15.011[25, 34, 95, 265, 165, 88, 31, 20]
15.034[23, 34, 78, 336, 189, 84, 31, 21]
15.048[26, 34, 76, 375, 196, 83, 30, 23]
15.071[27, 37, 88, 390, 206, 85, 32, 24]
15.093[27, 38, 95, 361, 175, 74, 30, 23]
15.108[25, 38, 94, 298, 166, 66, 28, 24]
15.131[26, 42, 104, 222, 135, 66, 27, 24]
15.162[26, 47, 120, 147, 124, 67, 26, 21]
15.168[25, 45, 112, 107, 113, 62, 24, 20]
15.191[24, 44, 105, 103, 99, 63, 25, 21]
15.214[27, 46, 107, 117, 104, 74, 26, 18]
15.236[26, 42, 98, 114, 96, 84, 26, 21]
15.251[25, 41, 93, 121, 106, 88, 26, 20]
15.282[27, 45, 121, 146, 101, 103, 26, 21]
15.304[28, 47, 124, 148, 105, 110, 27, 25]
15.311[27, 44, 122, 144, 92, 105, 25, 25]
15.335[26, 41, 120, 152, 112, 93, 24, 24]
15.356[23, 37, 113, 158, 102, 87, 25, 24]
15.371[22, 35, 95, 169, 113, 74, 27, 23]
15.393[20, 35, 93, 178, 107, 78, 29, 21]
15.416[21, 34, 89, 181, 134, 84, 28, 21]
15.439[22, 36, 92, 171, 136, 91, 29, 21]
15.462[22, 38, 92, 160, 136, 98, 30, 22]
15.484[24, 40, 76, 155, 130, 102, 29, 27]
15.491[26, 42, 77, 150, 139, 94, 26, 25]
15.513[26, 45, 90, 144, 115, 86, 29, 24]
15.536[24, 43, 83, 139, 98, 79, 28, 24]
15.552[25, 45, 89, 140, 109, 80, 27, 23]
15.574[23, 39, 90, 128, 115, 77, 27, 18]
15.604[20, 35, 88, 123, 104, 74, 26, 19]
15.611[19, 33, 77, 120, 112, 79, 27, 21]
15.633[22, 36, 85, 118, 117, 89, 29, 21]
15.656[22, 29, 69, 124, 121, 98, 29, 21]
15.671[22, 30, 71, 115, 117, 93, 29, 20]
15.693[24, 32, 74, 118, 119, 98, 32, 21]
15.716[23, 29, 75, 115, 120, 105, 28, 19]
15.739[24, 31, 83, 139, 122, 104, 26, 19]
15.761[23, 36, 114, 144, 107, 89, 25, 19]
15.777[22, 34, 115, 136, 98, 96, 23, 18]
15.791[22, 34, 112, 134, 97, 102, 24, 18]
15.813[22, 34, 110, 144, 98, 89, 26, 19]
15.837[23, 34, 99, 160, 86, 83, 26, 19]
15.851[23, 32, 71, 153, 88, 85, 29, 19]
15.882[26, 35, 64, 164, 95, 81, 29, 20]
15.904[26, 35, 75, 176, 103, 84, 26, 20]
15.911[26, 35, 75, 174, 100, 107, 25, 21]
15.934[24, 31, 69, 144, 99, 106, 27, 21]
15.956[24, 29, 65, 147, 103, 105, 26, 22]
15.971[21, 26, 77, 154, 102, 103, 26, 20]
15.993[19, 27, 65, 158, 118, 92, 29, 19]
16.017[19, 26, 62, 159, 162, 75, 40, 18]
16.031[19, 28, 69, 162, 164, 71, 46, 18]
16.053[21, 31, 70, 152, 163, 68, 54, 19]
16.076[22, 31, 56, 134, 162, 70, 63, 31]
16.091[24, 32, 65, 120, 158, 77, 64, 31]
16.113[24, 35, 77, 202, 109, 74, 64, 42]
16.136[24, 34, 78, 214, 120, 94, 67, 44]
16.159[22, 30, 72, 224, 129, 106, 63, 44]
16.173[21, 30, 77, 228, 131, 106, 65, 40]
16.196[22, 29, 75, 229, 120, 99, 63, 41]
16.219[22, 29, 66, 182, 134, 101, 61, 30]
16.233[24, 39, 93, 184, 131, 92, 61, 27]
16.256[25, 41, 96, 182, 145, 98, 61, 27]
16.279[26, 41, 94, 189, 164, 131, 55, 25]
16.293[28, 51, 113, 225, 177, 156, 74, 38]
16.317[27, 49, 115, 208, 200, 178, 76, 39]
16.339[26, 42, 94, 193, 204, 178, 72, 41]
16.354[25, 42, 97, 187, 189, 169, 69, 40]
16.377[24, 44, 106, 209, 195, 163, 66, 39]
16.399[20, 36, 86, 219, 186, 143, 49, 27]
16.414[22, 36, 85, 223, 157, 108, 46, 26]
16.436[23, 40, 97, 236, 144, 122, 47, 34]
16.459[26, 45, 107, 292, 147, 127, 51, 36]
16.473[25, 45, 101, 271, 133, 106, 51, 37]
16.496[25, 42, 104, 224, 139, 106, 48, 35]
16.519[27, 46, 118, 232, 134, 110, 51, 36]
16.533[26, 44, 113, 235, 145, 115, 63, 25]
16.556[26, 39, 106, 166, 181, 124, 69, 26]
16.579[26, 39, 105, 167, 167, 121, 68, 26]
16.593[26, 40, 100, 171, 160, 123, 69, 27]
16.616[24, 36, 81, 159, 174, 125, 70, 27]
16.639[25, 35, 73, 147, 172, 128, 57, 27]
16.653[25, 42, 114, 174, 163, 117, 49, 23]
16.677[24, 40, 116, 192, 183, 150, 54, 21]
16.7[26, 40, 122, 211, 182, 157, 52, 21]
16.713[64, 40, 124, 208, 175, 165, 48, 22]
16.737[214, 58, 128, 196, 178, 146, 53, 33]
16.759[232, 52, 86, 203, 145, 144, 52, 33]
16.774[235, 54, 90, 188, 131, 118, 46, 33]
16.797[239, 54, 83, 174, 142, 112, 45, 33]
16.819[239, 53, 93, 195, 165, 95, 49, 33]
16.833[130, 33, 85, 202, 155, 112, 53, 33]
16.857[95, 34, 87, 166, 172, 120, 62, 37]
16.879[88, 34, 84, 161, 171, 111, 65, 38]
16.893[77, 32, 92, 185, 167, 107, 64, 38]
16.916[55, 36, 92, 196, 164, 113, 60, 37]
16.939[39, 39, 95, 203, 168, 101, 52, 26]
16.953[34, 37, 101, 257, 160, 110, 42, 22]
16.976[33, 36, 98, 269, 168, 109, 41, 22]
16.999[33, 37, 102, 252, 168, 106, 42, 22]
17.014[30, 34, 96, 232, 135, 122, 39, 22]
17.036[27, 32, 98, 224, 140, 121, 38, 25]
17.059[24, 33, 97, 169, 142, 105, 34, 24]
17.081[22, 31, 94, 148, 125, 108, 31, 23]
17.104[21, 30, 89, 149, 124, 105, 33, 23]
17.126[22, 39, 95, 154, 132, 89, 32, 24]
17.149[26, 42, 106, 202, 130, 96, 32, 25]
17.157[27, 43, 103, 192, 132, 96, 33, 25]
17.179[26, 42, 104, 195, 138, 98, 31, 32]
17.201[29, 57, 134, 272, 128, 104, 29, 33]
17.216[27, 53, 135, 269, 137, 92, 29, 33]
17.239[25, 52, 127, 236, 129, 78, 27, 31]
17.262[27, 55, 140, 241, 124, 96, 31, 33]
17.276[28, 56, 138, 237, 119, 93, 32, 27]
17.299[25, 44, 111, 183, 122, 124, 32, 24]
17.322[26, 42, 99, 173, 106, 125, 39, 23]
17.336[24, 40, 95, 181, 106, 125, 40, 22]
17.359[21, 35, 70, 192, 90, 115, 37, 19]
17.382[20, 34, 69, 195, 83, 110, 39, 20]
17.404[20, 30, 67, 148, 126, 79, 37, 22]
17.427[20, 32, 78, 220, 126, 76, 29, 23]
17.442[23, 36, 87, 222, 127, 86, 29, 25]
17.456[23, 36, 88, 211, 133, 86, 31, 26]
17.479[23, 36, 96, 211, 135, 85, 28, 24]
17.502[22, 36, 86, 217, 88, 72, 31, 22]
17.517[22, 36, 81, 153, 93, 81, 32, 23]
17.54[19, 33, 81, 145, 103, 70, 32, 20]
17.561[20, 35, 81, 148, 133, 77, 32, 24]
17.576[20, 34, 81, 143, 140, 105, 34, 24]
17.599[22, 36, 80, 150, 203, 116, 35, 25]
17.621[24, 40, 90, 156, 205, 121, 35, 24]
17.636[24, 38, 86, 161, 200, 121, 36, 27]
17.659[24, 39, 97, 154, 179, 114, 36, 26]
17.682[25, 39, 89, 150, 179, 98, 33, 25]
17.704[24, 42, 97, 135, 109, 85, 31, 25]
17.719[23, 40, 86, 127, 114, 94, 31, 25]
17.742[23, 43, 89, 111, 115, 97, 29, 21]
17.757[26, 49, 99, 125, 125, 111, 31, 24]
17.779[26, 48, 100, 131, 116, 105, 30, 24]
17.801[25, 43, 94, 131, 118, 106, 29, 24]
17.816[26, 42, 95, 124, 104, 87, 26, 24]
17.839[28, 50, 120, 129, 125, 82, 25, 25]
17.862[25, 42, 103, 110, 121, 72, 23, 21]
17.876[25, 47, 119, 143, 131, 105, 27, 22]
17.899[27, 50, 120, 147, 125, 105, 27, 24]
17.921[26, 48, 119, 157, 150, 104, 27, 21]
17.936[23, 37, 92, 170, 138, 105, 26, 26]
17.959[24, 39, 93, 171, 141, 105, 25, 27]
17.982[22, 33, 79, 141, 131, 73, 25, 26]
17.996[19, 30, 73, 142, 144, 93, 27, 26]
18.019[20, 36, 101, 156, 122, 95, 30, 29]
18.042[21, 36, 100, 158, 122, 97, 31, 24]
18.063[21, 35, 97, 166, 114, 90, 33, 23]
18.08[22, 35, 93, 166, 138, 91, 32, 23]
18.101[23, 33, 96, 160, 128, 86, 33, 23]
18.123[22, 29, 73, 158, 124, 86, 31, 22]
18.14[20, 28, 67, 140, 119, 82, 31, 23]
18.168[20, 30, 66, 148, 122, 85, 34, 25]
18.183[19, 31, 70, 151, 115, 98, 35, 26]
18.2[22, 39, 77, 158, 109, 100, 34, 25]
18.221[23, 42, 94, 137, 107, 99, 35, 26]
18.243[27, 54, 122, 133, 138, 108, 34, 24]
18.26[28, 54, 125, 119, 134, 113, 32, 24]
18.281[29, 55, 124, 123, 121, 100, 29, 24]
18.304[26, 52, 121, 127, 133, 110, 30, 25]
18.32[27, 53, 108, 130, 137, 112, 31, 25]
18.341[24, 44, 86, 151, 98, 111, 31, 26]
18.364[24, 44, 81, 152, 133, 116, 30, 28]
18.38[22, 43, 79, 148, 127, 117, 29, 28]
18.401[21, 42, 76, 149, 116, 94, 29, 27]
18.424[18, 34, 70, 140, 119, 88, 30, 26]
18.447[20, 35, 83, 126, 124, 79, 32, 27]
18.469[20, 34, 87, 135, 85, 70, 34, 21]
18.491[21, 34, 87, 140, 87, 67, 35, 24]
18.5[27, 44, 112, 135, 120, 69, 35, 25]
18.521[29, 43, 111, 137, 119, 69, 33, 25]
18.543[28, 40, 97, 144, 124, 67, 29, 23]
18.56[46, 40, 98, 134, 127, 62, 28, 77]
18.581[50, 51, 107, 154, 148, 67, 29, 88]
18.604[48, 43, 85, 160, 132, 65, 26, 87]
18.62[49, 46, 91, 178, 138, 83, 28, 88]
18.641[48, 45, 86, 181, 133, 93, 28, 91]
18.664[31, 44, 79, 182, 136, 97, 28, 55]
18.68[25, 34, 76, 160, 122, 96, 28, 37]
18.701[32, 34, 76, 146, 129, 98, 30, 38]
18.725[37, 31, 81, 117, 132, 89, 29, 38]
18.747[39, 34, 92, 85, 131, 85, 30, 28]
18.768[40, 37, 98, 82, 148, 87, 29, 26]
18.791[40, 37, 97, 81, 158, 84, 30, 24]
18.8[35, 37, 93, 77, 155, 82, 29, 32]
18.821[29, 41, 101, 111, 157, 82, 31, 32]
18.844[28, 44, 101, 111, 157, 76, 30, 33]
18.86[29, 55, 119, 108, 154, 68, 29, 34]
18.881[29, 56, 126, 271, 144, 66, 32, 33]
18.904[38, 78, 190, 517, 182, 71, 35, 32]
18.92[44, 85, 195, 599, 197, 72, 35, 35]
18.941[48, 100, 236, 639, 214, 84, 38, 37]
18.963[48, 97, 232, 652, 220, 95, 42, 38]
18.986[50, 101, 231, 607, 231, 101, 38, 38]
19.002[43, 89, 198, 440, 208, 121, 35, 33]
19.025[37, 85, 206, 340, 200, 121, 33, 29]
19.047[34, 68, 157, 289, 192, 115, 31, 25]
19.068[34, 67, 153, 286, 182, 111, 25, 23]
19.091[32, 61, 147, 290, 164, 127, 32, 23]
19.114[31, 58, 144, 282, 152, 108, 35, 22]
19.121[30, 51, 117, 248, 142, 102, 34, 21]
19.144[29, 49, 117, 257, 149, 103, 32, 21]
19.166[25, 45, 119, 269, 139, 108, 32, 20]
19.181[37, 47, 125, 268, 144, 97, 26, 22]
19.203[41, 43, 113, 294, 147, 103, 23, 27]
19.226[44, 55, 123, 308, 156, 106, 27, 31]
19.241[44, 57, 131, 275, 142, 107, 28, 31]
19.264[45, 58, 143, 237, 163, 102, 29, 31]
19.286[37, 57, 141, 228, 167, 99, 30, 30]
19.301[34, 58, 141, 173, 169, 94, 33, 25]
19.325[30, 46, 130, 174, 154, 97, 31, 21]
19.346[32, 55, 157, 289, 167, 103, 35, 22]
19.368[30, 56, 147, 301, 151, 99, 33, 21]
19.392[29, 57, 146, 314, 147, 91, 35, 21]
19.406[27, 57, 146, 314, 139, 84, 33, 24]
19.428[28, 58, 156, 304, 137, 79, 32, 24]
19.443[24, 47, 119, 218, 143, 66, 28, 33]
19.466[29, 54, 140, 237, 146, 65, 30, 47]
19.481[29, 52, 138, 229, 145, 61, 29, 48]
19.503[28, 49, 131, 224, 152, 65, 27, 47]
19.526[28, 51, 125, 244, 155, 81, 27, 47]
19.541[34, 65, 145, 233, 130, 86, 30, 42]
19.564[44, 62, 133, 202, 141, 81, 28, 29]
19.586[47, 64, 134, 196, 136, 84, 26, 29]
19.602[47, 64, 142, 221, 138, 85, 26, 28]
19.625[47, 65, 140, 214, 139, 68, 27, 29]
19.646[44, 53, 127, 237, 165, 72, 30, 29]
19.661[30, 45, 114, 240, 173, 81, 35, 28]
19.684[26, 43, 115, 232, 175, 83, 38, 26]
19.706[29, 58, 152, 211, 183, 83, 38, 26]
19.721[31, 56, 150, 201, 188, 82, 37, 24]
19.743[29, 54, 144, 215, 176, 74, 33, 22]
19.766[28, 55, 142, 268, 185, 69, 29, 22]
19.788[34, 66, 166, 320, 201, 74, 28, 24]
19.803[32, 54, 130, 323, 191, 76, 27, 22]
19.826[30, 55, 141, 319, 194, 78, 27, 23]
19.841[33, 60, 146, 303, 197, 78, 25, 24]
19.863[33, 59, 145, 251, 180, 80, 27, 24]
19.886[28, 46, 112, 186, 160, 85, 27, 22]
19.902[28, 43, 106, 164, 153, 82, 28, 23]
19.923[27, 40, 83, 148, 136, 77, 29, 23]
19.946[28, 45, 92, 117, 118, 77, 31, 24]
19.968[27, 45, 89, 107, 99, 90, 30, 21]
19.985[25, 45, 88, 88, 89, 88, 29, 21]
20.006[24, 46, 84, 84, 86, 87, 31, 23]
20.029[25, 43, 83, 86, 85, 87, 30, 23]
20.044[24, 31, 56, 109, 78, 114, 29, 22]
20.066[28, 32, 67, 112, 69, 106, 29, 22]
20.088[28, 32, 67, 112, 72, 99, 29, 22]
20.104[28, 32, 66, 116, 73, 98, 29, 21]
20.135[28, 34, 66, 115, 61, 98, 28, 20]
20.156[24, 31, 58, 69, 55, 84, 27, 20]
20.164[20, 30, 35, 59, 53, 78, 25, 20]
20.186[21, 31, 35, 52, 49, 74, 24, 19]
20.208[22, 29, 37, 51, 48, 76, 22, 19]
20.224[20, 29, 38, 87, 46, 80, 26, 22]
20.246[23, 27, 39, 99, 50, 82, 29, 23]
20.276[22, 24, 39, 98, 46, 81, 32, 23]
20.283[25, 24, 37, 96, 44, 84, 34, 67]
20.322[32, 24, 33, 92, 44, 90, 82, 222]
20.328[65, 31, 30, 60, 42, 89, 85, 232]
20.344[68, 33, 27, 38, 35, 67, 88, 235]
20.366[102, 44, 28, 35, 29, 63, 89, 252]
20.388[215, 93, 29, 37, 30, 64, 117, 307]
20.412[233, 98, 28, 34, 25, 53, 105, 230]
20.434[230, 97, 27, 28, 29, 45, 127, 245]
20.457[232, 97, 27, 29, 30, 48, 133, 287]
20.463[409, 142, 29, 71, 104, 67, 212, 399]
20.486[404, 124, 29, 81, 140, 67, 222, 364]
20.508[401, 122, 35, 88, 155, 71, 230, 416]
20.524[407, 125, 36, 89, 157, 83, 232, 421]
20.546[414, 128, 39, 90, 159, 88, 237, 405]
20.576[322, 86, 41, 83, 133, 113, 292, 332]
20.583[297, 86, 56, 120, 215, 168, 320, 349]
20.606[296, 85, 55, 121, 222, 174, 315, 320]
20.628[289, 80, 55, 122, 228, 173, 309, 303]
20.645[276, 76, 52, 123, 234, 173, 306, 313]
20.666[164, 57, 50, 113, 231, 150, 196, 268]
20.688[128, 53, 34, 64, 135, 85, 135, 268]
20.712[112, 54, 29, 52, 106, 70, 130, 232]
20.734[105, 55, 30, 49, 91, 58, 130, 265]
20.748[111, 53, 31, 46, 71, 51, 124, 241]
20.764[100, 51, 31, 42, 65, 49, 119, 240]
20.786[68, 33, 26, 39, 54, 42, 90, 205]
20.808[60, 28, 28, 39, 50, 38, 85, 209]
20.832[54, 26, 27, 40, 52, 32, 71, 173]
20.846[42, 23, 28, 40, 56, 30, 79, 212]
20.868[61, 25, 28, 38, 57, 38, 75, 210]
20.891[64, 27, 28, 34, 52, 45, 77, 222]
20.906[68, 26, 27, 34, 53, 47, 81, 208]
20.928[68, 27, 27, 33, 48, 49, 86, 216]
20.952[66, 27, 26, 30, 45, 50, 71, 168]
20.966[49, 26, 25, 34, 44, 55, 72, 165]
20.988[44, 24, 26, 36, 45, 52, 75, 179]
21.011[34, 26, 26, 36, 44, 57, 61, 177]
21.026[32, 24, 24, 44, 41, 57, 65, 186]
21.048[34, 24, 25, 44, 43, 57, 79, 206]
21.072[32, 23, 25, 41, 43, 48, 78, 206]
21.086[41, 24, 25, 43, 41, 50, 78, 242]
21.108[41, 23, 25, 44, 45, 44, 81, 244]
21.131[39, 24, 28, 40, 46, 44, 69, 216]
21.146[43, 23, 26, 46, 45, 43, 88, 273]
21.168[44, 24, 26, 46, 40, 41, 90, 281]
21.192[34, 22, 25, 43, 36, 42, 94, 250]
21.206[36, 21, 23, 45, 34, 43, 95, 253]
21.228[37, 22, 25, 40, 31, 42, 99, 273]
21.252[32, 21, 26, 58, 31, 46, 81, 223]
21.266[33, 20, 28, 65, 37, 50, 93, 252]
21.289[32, 22, 28, 72, 38, 45, 86, 228]
21.312[32, 22, 28, 80, 41, 46, 93, 251]
21.326[31, 21, 25, 82, 43, 49, 92, 238]
21.356[30, 22, 26, 67, 43, 48, 92, 242]
21.372[29, 22, 25, 59, 38, 43, 77, 203]
21.386[27, 21, 24, 53, 38, 47, 74, 198]
21.416[23, 20, 26, 41, 31, 45, 65, 160]
21.431[22, 20, 26, 44, 30, 41, 60, 148]
21.446[25, 19, 23, 41, 26, 49, 62, 157]
21.469[26, 19, 25, 45, 29, 51, 73, 190]
21.492[28, 21, 26, 42, 27, 48, 73, 194]
21.506[29, 20, 24, 39, 29, 46, 73, 199]
21.529[30, 21, 25, 32, 27, 43, 73, 198]
21.552[35, 22, 25, 31, 26, 31, 101, 272]
21.566[35, 22, 23, 25, 26, 39, 99, 262]
21.589[36, 22, 22, 25, 26, 39, 103, 265]
21.612[40, 24, 26, 76, 31, 41, 102, 264]
21.634[45, 25, 26, 80, 34, 46, 129, 368]
21.649[40, 23, 26, 81, 34, 45, 101, 299]
21.672[39, 23, 27, 83, 32, 41, 103, 297]
21.687[37, 22, 27, 86, 33, 41, 100, 295]
21.709[32, 21, 24, 49, 26, 43, 99, 293]
21.732[27, 22, 28, 109, 27, 39, 81, 220]
21.746[26, 24, 34, 117, 28, 39, 78, 216]
21.77[25, 26, 34, 118, 30, 41, 69, 200]
21.792[25, 27, 34, 117, 30, 40, 66, 196]
21.806[26, 26, 33, 117, 29, 35, 65, 192]
21.829[24, 24, 28, 63, 24, 34, 55, 138]
21.852[26, 22, 23, 44, 24, 37, 68, 188]
21.874[27, 20, 23, 40, 23, 32, 69, 191]
21.889[26, 19, 22, 35, 22, 32, 68, 192]
21.912[29, 20, 22, 79, 27, 36, 88, 239]
21.934[29, 20, 25, 84, 28, 40, 78, 220]
21.95[28, 24, 26, 86, 29, 38, 68, 172]
21.972[29, 25, 24, 87, 31, 40, 74, 202]
21.994[34, 25, 24, 94, 32, 43, 89, 228]
22.009[32, 26, 25, 99, 36, 41, 73, 194]
22.032[31, 26, 25, 102, 37, 38, 76, 200]
22.054[30, 22, 24, 110, 39, 40, 76, 199]
22.069[28, 24, 24, 111, 41, 36, 70, 164]
22.099[24, 24, 25, 121, 44, 31, 53, 140]
22.122[25, 22, 29, 114, 42, 35, 59, 155]
22.144[25, 22, 27, 111, 44, 40, 56, 149]
22.151[24, 21, 27, 104, 41, 38, 53, 149]
22.174[24, 20, 27, 101, 41, 45, 51, 145]
22.189[22, 20, 27, 90, 39, 51, 56, 173]
22.212[27, 22, 22, 66, 36, 53, 85, 222]
22.241[35, 22, 24, 59, 33, 51, 84, 228]
22.249[38, 23, 23, 58, 33, 51, 90, 247]
22.271[38, 22, 23, 61, 30, 46, 94, 254]
22.294[39, 23, 24, 53, 25, 41, 90, 229]
22.309[37, 22, 23, 49, 28, 35, 75, 217]
22.339[30, 20, 23, 67, 32, 35, 80, 213]
22.354[28, 22, 24, 82, 35, 34, 83, 200]
22.376[28, 23, 23, 83, 34, 34, 81, 195]
22.399[27, 22, 25, 88, 35, 34, 79, 190]
22.421[23, 23, 27, 120, 39, 44, 57, 106]
22.428[21, 23, 27, 145, 41, 45, 51, 94]
22.451[25, 22, 30, 146, 41, 45, 56, 144]
22.474[27, 21, 30, 145, 43, 46, 63, 192]
22.488[29, 23, 27, 142, 44, 45, 66, 199]
22.511[30, 22, 27, 132, 41, 37, 68, 202]
22.534[30, 24, 28, 96, 35, 34, 68, 203]
22.548[26, 23, 24, 84, 33, 33, 55, 159]
22.572[32, 24, 25, 85, 30, 34, 73, 178]
22.594[30, 24, 25, 83, 30, 33, 80, 204]
22.608[35, 24, 23, 56, 25, 38, 107, 257]
22.632[37, 25, 21, 48, 24, 39, 113, 271]
22.654[37, 26, 23, 53, 25, 40, 113, 275]
22.677[30, 25, 24, 65, 26, 47, 98, 228]
22.699[29, 25, 26, 73, 25, 48, 91, 199]
22.722[30, 27, 25, 75, 27, 46, 85, 216]
22.728[29, 26, 25, 89, 27, 44, 80, 203]
22.751[30, 25, 24, 96, 25, 42, 80, 204]
22.774[30, 25, 23, 86, 26, 33, 83, 208]
22.796[31, 24, 23, 92, 27, 37, 85, 208]
22.812[28, 21, 24, 96, 26, 36, 69, 165]
22.834[28, 21, 24, 92, 31, 41, 74, 186]
22.857[29, 20, 25, 86, 30, 41, 77, 191]
22.872[27, 19, 25, 85, 29, 40, 73, 191]
22.894[28, 20, 25, 74, 29, 36, 71, 192]
22.917[24, 20, 23, 80, 28, 37, 61, 148]
22.932[31, 20, 26, 80, 25, 31, 107, 278]
22.954[33, 20, 25, 80, 24, 30, 108, 280]
22.977[33, 21, 24, 85, 25, 39, 112, 285]
23.0[34, 21, 24, 92, 25, 39, 114, 288]
23.014[34, 22, 25, 81, 29, 40, 111, 286]
23.037[26, 22, 23, 76, 31, 39, 59, 132]
23.052[27, 22, 23, 72, 31, 39, 70, 169]
23.075[28, 22, 24, 66, 30, 31, 74, 200]
23.096[32, 21, 23, 64, 34, 34, 85, 206]
23.112[33, 20, 23, 71, 34, 30, 86, 210]
23.133[32, 20, 22, 65, 30, 33, 88, 211]
23.164[28, 20, 21, 69, 31, 35, 75, 171]
23.172[29, 20, 20, 67, 32, 35, 73, 144]
23.193[24, 19, 19, 53, 26, 33, 58, 134]
23.216[25, 19, 20, 48, 23, 34, 63, 159]
23.232[28, 20, 22, 46, 24, 36, 69, 198]
23.255[28, 20, 23, 55, 24, 34, 72, 203]
23.276[28, 21, 24, 57, 26, 34, 82, 222]
23.3[28, 22, 23, 66, 26, 34, 84, 222]
23.314[27, 23, 22, 62, 27, 34, 79, 202]
23.336[26, 23, 21, 61, 28, 33, 71, 161]
23.352[26, 22, 20, 52, 27, 33, 73, 181]
23.373[25, 23, 22, 50, 28, 32, 53, 161]
23.396[29, 22, 24, 38, 29, 33, 69, 208]
23.413[29, 23, 24, 48, 26, 35, 71, 209]
23.441[29, 21, 25, 57, 24, 34, 77, 212]
23.463[28, 21, 25, 55, 24, 33, 71, 189]
23.472[26, 19, 24, 57, 23, 32, 72, 165]
23.493[30, 20, 24, 60, 27, 30, 92, 256]
23.517[31, 19, 24, 59, 28, 36, 92, 262]
23.532[31, 20, 23, 60, 28, 36, 94, 270]
23.555[32, 24, 24, 58, 28, 35, 100, 277]
23.576[32, 24, 23, 55, 28, 38, 100, 280]
23.593[25, 25, 22, 55, 25, 40, 73, 168]
23.613[29, 24, 24, 53, 27, 34, 78, 192]
23.636[29, 24, 25, 50, 28, 34, 78, 209]
23.652[30, 22, 23, 56, 27, 36, 77, 208]
23.673[30, 22, 23, 56, 26, 34, 75, 206]
23.696[29, 21, 23, 53, 24, 33, 67, 189]
23.718[26, 22, 21, 46, 21, 31, 73, 194]
23.741[25, 21, 18, 42, 24, 30, 68, 161]
23.765[25, 22, 19, 45, 29, 38, 68, 167]
23.786[28, 23, 21, 47, 28, 38, 90, 230]
23.793[32, 24, 21, 49, 29, 38, 103, 270]
23.816[31, 26, 21, 51, 31, 38, 95, 245]
23.839[31, 25, 21, 55, 29, 39, 93, 246]
23.853[29, 25, 20, 55, 26, 29, 89, 235]
23.885[36, 23, 21, 64, 28, 30, 109, 309]
23.898[35, 25, 23, 63, 26, 30, 102, 286]
23.913[35, 23, 24, 63, 25, 31, 105, 293]
23.937[35, 24, 25, 57, 24, 32, 105, 294]
23.958[37, 23, 27, 54, 25, 34, 114, 318]
23.973[26, 23, 26, 44, 23, 35, 76, 193]
23.997[23, 20, 26, 55, 26, 37, 68, 176]
24.02[24, 21, 26, 54, 28, 37, 65, 167]
24.041[25, 22, 25, 53, 28, 35, 70, 192]
24.063[24, 22, 23, 46, 27, 33, 55, 156]
24.078[24, 21, 23, 61, 28, 33, 53, 152]
24.094[29, 22, 21, 56, 27, 33, 81, 205]
24.116[29, 26, 21, 61, 29, 31, 78, 199]
24.14[27, 25, 23, 63, 29, 32, 72, 171]
24.161[33, 27, 22, 63, 28, 36, 97, 247]
24.185[36, 27, 22, 55, 27, 38, 102, 256]
24.198[33, 27, 24, 57, 25, 35, 90, 235]
24.213[32, 23, 26, 57, 21, 35, 92, 240]
24.236[33, 24, 25, 58, 21, 34, 93, 242]
24.258[27, 22, 26, 59, 20, 30, 65, 162]
24.275[31, 22, 26, 52, 23, 25, 93, 255]
24.297[32, 22, 24, 53, 22, 28, 93, 273]
24.32[33, 21, 22, 50, 24, 29, 94, 275]
24.349[33, 20, 23, 47, 23, 32, 92, 275]
24.372[32, 21, 24, 54, 27, 34, 92, 273]
24.386[25, 20, 24, 54, 27, 35, 58, 178]
24.393[23, 20, 24, 55, 28, 32, 47, 110]
24.417[25, 21, 24, 55, 28, 33, 61, 152]
24.462[30, 21, 26, 62, 30, 30, 76, 212]
24.464[31, 22, 24, 60, 28, 29, 79, 215]
24.483[30, 22, 26, 71, 29, 32, 78, 213]
24.506[30, 21, 27, 66, 30, 33, 78, 215]
24.513[28, 19, 27, 68, 29, 32, 76, 209]
24.536[23, 19, 26, 63, 29, 33, 60, 153]
24.559[23, 18, 26, 65, 30, 33, 55, 146]
24.573[22, 20, 26, 68, 30, 30, 54, 145]
24.597[24, 20, 26, 78, 29, 31, 68, 197]
24.618[26, 22, 27, 81, 32, 31, 56, 167]
24.633[25, 23, 26, 84, 30, 31, 55, 159]
24.656[25, 22, 26, 82, 31, 32, 56, 162]
24.678[28, 21, 25, 73, 28, 32, 70, 198]
24.701[27, 24, 25, 65, 30, 36, 59, 153]
24.716[24, 23, 23, 66, 30, 40, 61, 149]
24.738[25, 23, 25, 64, 32, 42, 61, 148]
24.761[29, 23, 25, 62, 31, 39, 71, 203]
24.776[26, 22, 25, 89, 34, 41, 70, 206]
24.798[26, 18, 27, 90, 33, 38, 70, 208]
24.821[26, 20, 25, 87, 31, 33, 68, 210]
24.836[26, 20, 26, 84, 30, 33, 70, 211]
24.858[23, 19, 25, 83, 29, 38, 60, 155]
24.881[21, 23, 23, 58, 25, 36, 44, 98]
24.897[21, 23, 21, 53, 22, 35, 39, 77]
24.918[23, 22, 23, 52, 22, 35, 58, 137]
24.941[23, 22, 23, 57, 20, 34, 59, 148]
24.956[28, 23, 25, 57, 23, 30, 74, 204]
24.978[28, 21, 26, 46, 24, 32, 77, 212]
25.001[27, 21, 25, 48, 27, 31, 78, 215]
25.017[25, 20, 26, 49, 28, 31, 65, 181]
25.038[27, 21, 26, 56, 30, 29, 78, 208]
25.061[22, 21, 24, 59, 29, 28, 61, 159]
25.076[22, 21, 23, 73, 30, 34, 60, 152]
25.106[29, 20, 23, 74, 33, 41, 73, 208]
25.129[30, 22, 21, 71, 32, 41, 75, 213]
25.136[28, 21, 22, 64, 31, 41, 60, 178]
25.158[28, 21, 23, 74, 29, 40, 59, 171]
25.181[30, 22, 24, 60, 28, 34, 58, 167]
25.196[25, 24, 24, 63, 23, 26, 58, 140]
25.218[25, 24, 24, 69, 24, 31, 56, 137]
25.241[25, 24, 26, 96, 26, 33, 57, 138]
25.256[25, 23, 29, 93, 29, 34, 60, 141]
25.294[25, 24, 29, 96, 28, 32, 60, 143]
25.301[23, 23, 28, 93, 27, 34, 41, 88]
25.316[25, 21, 28, 91, 28, 31, 54, 158]
25.338[27, 21, 26, 63, 27, 30, 60, 193]
25.361[27, 21, 22, 58, 23, 30, 60, 212]
25.376[25, 20, 22, 56, 23, 34, 60, 214]
25.398[26, 20, 23, 69, 27, 33, 60, 215]
25.429[21, 21, 23, 66, 27, 35, 46, 165]
25.436[21, 22, 22, 60, 25, 35, 36, 117]
25.458[20, 23, 24, 59, 29, 35, 29, 68]
25.481[23, 23, 23, 66, 31, 32, 51, 140]
25.496[25, 24, 23, 62, 28, 31, 53, 142]
25.518[25, 23, 23, 67, 29, 26, 53, 143]
25.541[26, 23, 22, 67, 29, 35, 55, 146]
25.556[26, 25, 22, 74, 29, 37, 55, 147]
25.578[29, 26, 24, 69, 29, 39, 56, 165]
25.601[28, 25, 24, 64, 30, 38, 55, 169]
25.624[29, 25, 25, 62, 27, 42, 56, 169]
25.638[28, 24, 24, 63, 29, 37, 56, 169]
25.661[31, 21, 22, 67, 29, 33, 67, 219]
25.684[27, 19, 23, 67, 27, 32, 57, 167]
25.698[27, 22, 23, 63, 27, 34, 57, 162]
25.721[26, 21, 22, 65, 26, 33, 56, 160]
25.745[27, 21, 23, 66, 25, 33, 66, 208]
25.758[23, 22, 24, 57, 20, 34, 56, 159]
25.781[26, 23, 25, 63, 23, 34, 65, 200]
25.804[26, 20, 24, 62, 22, 32, 65, 203]
25.819[26, 21, 25, 56, 26, 31, 66, 204]
25.841[25, 20, 24, 59, 26, 32, 56, 160]
25.864[25, 20, 25, 62, 27, 31, 55, 156]
25.878[20, 19, 23, 54, 26, 31, 38, 89]
25.901[19, 20, 25, 54, 27, 33, 34, 74]
25.924[20, 20, 24, 55, 24, 32, 31, 66]
25.938[20, 21, 25, 61, 25, 29, 28, 47]
25.961[20, 20, 24, 57, 25, 28, 30, 67]
25.984[25, 20, 22, 57, 26, 27, 62, 215]
25.998[27, 19, 21, 63, 25, 24, 69, 231]
26.021[26, 19, 22, 66, 25, 27, 71, 234]
26.044[26, 20, 19, 57, 25, 32, 72, 237]
26.058[26, 20, 19, 56, 24, 33, 70, 233]
26.081[25, 20, 21, 53, 24, 33, 62, 178]
26.104[25, 21, 20, 48, 27, 34, 60, 166]
26.118[27, 21, 21, 52, 28, 31, 60, 169]
26.141[28, 21, 22, 51, 28, 30, 68, 205]
26.164[31, 20, 23, 54, 29, 29, 70, 211]
26.178[28, 22, 22, 60, 28, 31, 55, 164]
26.201[26, 22, 23, 64, 26, 36, 49, 156]
26.224[27, 22, 24, 60, 25, 38, 50, 149]
26.239[24, 22, 22, 61, 25, 36, 37, 91]
26.261[21, 23, 20, 59, 25, 37, 34, 70]
26.284[20, 21, 22, 65, 26, 36, 31, 55]
26.298[28, 20, 21, 58, 24, 31, 66, 203]
26.329[28, 21, 20, 63, 27, 31, 65, 209]
26.344[29, 22, 20, 64, 25, 30, 67, 214]
26.358[29, 22, 20, 66, 25, 29, 67, 217]
26.381[30, 24, 19, 61, 24, 29, 68, 218]
26.404[22, 23, 20, 67, 26, 28, 40, 102]
26.418[21, 23, 22, 62, 23, 28, 38, 85]
26.441[21, 24, 22, 62, 24, 30, 35, 73]
26.464[24, 22, 23, 68, 28, 32, 55, 146]
26.478[23, 21, 25, 69, 29, 31, 58, 158]
26.501[26, 23, 24, 66, 28, 30, 58, 187]
26.524[26, 23, 24, 67, 28, 29, 62, 196]
26.539[25, 23, 24, 73, 28, 28, 63, 200]
26.561[26, 23, 24, 64, 25, 24, 47, 156]
26.584[26, 25, 23, 59, 22, 26, 42, 144]
26.606[25, 23, 24, 57, 24, 28, 53, 166]
26.621[24, 23, 23, 56, 23, 27, 53, 161]
26.644[23, 22, 23, 47, 24, 25, 53, 160]
26.674[21, 21, 23, 55, 26, 32, 53, 159]
26.681[26, 18, 23, 55, 26, 33, 70, 217]
26.704[26, 21, 22, 51, 25, 37, 60, 178]
26.727[28, 21, 22, 49, 27, 37, 61, 178]
26.741[31, 22, 23, 60, 26, 37, 75, 218]
26.772[31, 23, 22, 54, 24, 33, 75, 218]
26.786[28, 22, 22, 56, 23, 31, 62, 167]
26.801[26, 21, 22, 58, 24, 27, 59, 162]
26.831[26, 21, 22, 57, 25, 27, 59, 191]
26.846[24, 21, 21, 43, 25, 28, 41, 151]
26.861[26, 21, 21, 44, 27, 27, 61, 199]
26.884[25, 22, 20, 45, 31, 29, 62, 202]
26.907[26, 21, 20, 57, 31, 27, 61, 204]
26.921[24, 21, 20, 59, 30, 26, 62, 177]
26.951[22, 20, 21, 67, 31, 28, 62, 168]
26.967[23, 19, 21, 65, 30, 28, 48, 135]
26.989[23, 22, 23, 67, 26, 33, 53, 166]
27.011[29, 21, 24, 56, 28, 38, 72, 228]
27.026[29, 22, 23, 54, 27, 38, 70, 228]
27.041[30, 22, 24, 55, 27, 36, 70, 229]
27.064[28, 22, 25, 59, 29, 37, 66, 211]
27.087[27, 20, 23, 61, 29, 31, 61, 178]
27.101[20, 22, 22, 64, 27, 29, 36, 77]
27.124[20, 20, 22, 67, 27, 30, 32, 58]
27.147[19, 19, 23, 63, 29, 32, 35, 53]
27.161[23, 21, 22, 61, 27, 31, 43, 87]
27.184[23, 20, 22, 54, 25, 29, 51, 133]
27.206[27, 20, 22, 51, 24, 28, 57, 167]
27.221[28, 20, 23, 60, 25, 32, 63, 195]
27.244[28, 21, 23, 56, 24, 32, 66, 202]
27.266[25, 18, 22, 51, 25, 30, 62, 192]
27.281[25, 19, 24, 54, 27, 33, 55, 167]
27.304[23, 21, 24, 55, 28, 32, 47, 134]
27.326[21, 20, 24, 59, 27, 28, 39, 90]
27.341[19, 19, 24, 61, 28, 25, 31, 70]
27.364[20, 21, 25, 61, 27, 29, 29, 56]
27.394[19, 20, 22, 57, 25, 28, 27, 44]
27.401[17, 18, 21, 59, 25, 29, 27, 36]
27.424[18, 19, 19, 49, 24, 28, 26, 30]
27.446[21, 18, 18, 49, 21, 27, 25, 30]
27.461[20, 18, 17, 50, 22, 28, 23, 25]
27.484[22, 17, 19, 51, 23, 30, 28, 27]
27.506[25, 20, 20, 71, 27, 33, 48, 137]
27.529[26, 20, 22, 68, 30, 34, 50, 145]
27.544[31, 21, 22, 67, 31, 37, 62, 202]
27.566[31, 20, 22, 68, 30, 37, 64, 214]
27.589[31, 21, 21, 75, 29, 37, 68, 221]
27.604[30, 19, 21, 60, 28, 34, 56, 179]
27.626[28, 18, 20, 62, 25, 33, 54, 174]
27.656[23, 17, 20, 72, 26, 32, 56, 154]
27.671[24, 18, 19, 72, 27, 28, 56, 146]
27.686[29, 19, 21, 74, 28, 27, 57, 187]
27.709[29, 20, 21, 75, 26, 27, 60, 194]
27.724[31, 21, 20, 82, 28, 28, 63, 200]
27.747[30, 20, 20, 74, 27, 31, 53, 171]
27.769[29, 20, 22, 87, 30, 35, 55, 166]
27.784[27, 21, 22, 82, 31, 35, 65, 169]
27.806[28, 21, 23, 81, 31, 36, 64, 164]
27.829[27, 20, 23, 70, 28, 36, 61, 157]
27.844[29, 21, 25, 70, 29, 32, 67, 200]
27.866[31, 20, 25, 69, 27, 27, 66, 206]
27.889[28, 19, 27, 66, 26, 28, 50, 166]
27.904[26, 19, 25, 67, 26, 28, 50, 161]
27.927[29, 21, 26, 78, 27, 28, 64, 199]
27.949[26, 22, 25, 78, 27, 29, 57, 159]
27.964[23, 22, 26, 78, 26, 33, 58, 154]
27.986[23, 21, 26, 80, 25, 32, 57, 148]
28.009[30, 21, 25, 77, 26, 34, 65, 207]
28.032[27, 21, 25, 71, 28, 36, 51, 174]
28.046[28, 21, 24, 100, 32, 35, 51, 170]
28.068[29, 21, 26, 96, 32, 35, 50, 186]
28.091[30, 21, 25, 106, 33, 33, 54, 211]
28.107[23, 22, 26, 106, 33, 31, 43, 156]
28.128[24, 21, 25, 103, 31, 30, 42, 153]
28.151[27, 20, 25, 78, 28, 30, 47, 168]
28.167[27, 21, 25, 75, 29, 28, 50, 182]
28.188[27, 21, 24, 59, 28, 26, 45, 157]
28.205[29, 22, 24, 64, 29, 26, 61, 206]
28.227[29, 22, 24, 67, 33, 26, 64, 212]
28.248[28, 22, 23, 60, 31, 26, 59, 200]
28.264[25, 19, 19, 56, 29, 27, 54, 168]
28.287[25, 21, 19, 63, 30, 29, 55, 164]
28.308[26, 21, 21, 64, 32, 30, 55, 180]
28.324[27, 20, 20, 64, 28, 27, 53, 174]
28.347[31, 21, 21, 68, 27, 29, 71, 231]
28.368[31, 22, 22, 69, 28, 34, 71, 232]
28.385[32, 21, 24, 61, 27, 35, 72, 232]
28.407[28, 21, 22, 51, 23, 36, 59, 174]
28.428[27, 22, 23, 48, 23, 36, 58, 171]
28.451[22, 22, 22, 50, 26, 34, 33, 73]
28.467[20, 23, 24, 55, 26, 33, 31, 65]
28.488[19, 22, 23, 58, 27, 33, 28, 54]
28.511[32, 24, 23, 69, 32, 32, 82, 259]
28.525[33, 26, 25, 75, 33, 34, 84, 273]
28.548[33, 25, 25, 71, 31, 35, 87, 280]
28.579[35, 25, 22, 71, 32, 32, 89, 285]
28.585[35, 26, 21, 69, 33, 32, 89, 288]
28.608[22, 24, 21, 66, 27, 32, 47, 139]
28.63[22, 22, 20, 60, 25, 32, 42, 107]
28.645[22, 22, 22, 62, 24, 32, 35, 88]
28.668[21, 21, 23, 53, 23, 31, 31, 68]
28.69[32, 21, 25, 68, 27, 34, 78, 273]
28.713[34, 23, 24, 66, 28, 35, 83, 283]
28.728[34, 22, 23, 70, 27, 34, 85, 291]
28.751[35, 24, 24, 74, 28, 34, 86, 298]
28.766[34, 24, 24, 73, 27, 32, 87, 301]
28.796[24, 23, 22, 63, 25, 28, 50, 143]
28.811[22, 22, 24, 63, 25, 29, 40, 115]
28.827[21, 21, 25, 63, 26, 31, 39, 92]
28.848[20, 20, 24, 54, 26, 30, 35, 69]
28.871[19, 21, 24, 58, 26, 29, 33, 57]
28.893[21, 21, 23, 55, 25, 30, 31, 39]
28.908[21, 19, 23, 56, 29, 26, 29, 36]
28.931[21, 19, 21, 52, 28, 23, 27, 30]
28.946[20, 20, 21, 57, 29, 23, 29, 47]
28.969[22, 19, 22, 72, 29, 25, 44, 132]
28.992[22, 19, 22, 74, 27, 25, 44, 139]
29.005[21, 19, 22, 69, 24, 27, 46, 144]
29.035[22, 20, 24, 80, 28, 32, 46, 145]
29.051[22, 19, 26, 84, 27, 34, 44, 141]
29.065[26, 20, 26, 69, 27, 32, 45, 162]
29.096[25, 20, 26, 64, 28, 32, 46, 162]
29.11[29, 21, 25, 64, 27, 32, 55, 194]
29.126[30, 21, 24, 57, 26, 33, 58, 201]
29.148[30, 22, 22, 52, 25, 30, 61, 205]
29.171[25, 23, 23, 57, 27, 31, 51, 151]
29.186[24, 22, 24, 86, 33, 30, 49, 146]
29.208[27, 24, 25, 88, 35, 34, 49, 173]
29.231[29, 25, 27, 85, 33, 33, 64, 215]
29.246[32, 25, 26, 84, 34, 33, 72, 240]
29.27[31, 23, 24, 82, 32, 33, 73, 239]
29.292[31, 23, 25, 64, 30, 34, 74, 241]
29.313[26, 21, 24, 66, 30, 32, 68, 194]
29.328[22, 21, 24, 63, 29, 29, 49, 135]
29.351[18, 20, 24, 60, 27, 34, 37, 69]
29.373[22, 21, 25, 66, 30, 34, 38, 87]
29.388[26, 22, 22, 61, 25, 34, 45, 140]
29.411[27, 26, 25, 74, 25, 30, 43, 146]
29.433[27, 24, 27, 93, 27, 34, 43, 149]
29.448[31, 25, 27, 95, 29, 28, 56, 199]
29.47[32, 25, 26, 90, 28, 28, 59, 200]
29.493[29, 25, 27, 92, 28, 27, 53, 165]
29.508[29, 21, 24, 78, 28, 36, 53, 159]
29.531[29, 21, 22, 57, 30, 35, 53, 156]
29.553[25, 20, 24, 85, 30, 34, 36, 85]
29.568[25, 21, 25, 96, 31, 35, 42, 153]
29.592[25, 21, 25, 90, 32, 35, 44, 159]
29.613[28, 20, 24, 95, 32, 27, 57, 202]
29.628[30, 21, 24, 97, 35, 32, 60, 210]
29.65[30, 19, 23, 76, 34, 35, 61, 213]
29.673[27, 19, 25, 85, 33, 33, 53, 161]
29.69[28, 19, 25, 91, 35, 34, 55, 168]
29.711[27, 19, 26, 85, 35, 37, 50, 164]
29.733[28, 19, 25, 83, 32, 32, 48, 163]
29.748[31, 20, 25, 94, 36, 34, 62, 209]
29.771[31, 19, 22, 81, 35, 34, 63, 211]
29.793[29, 17, 19, 75, 34, 35, 63, 203]
29.808[27, 19, 20, 77, 35, 32, 55, 166]
29.831[27, 20, 20, 81, 36, 33, 60, 191]
29.853[27, 21, 20, 68, 32, 28, 50, 176]
29.87[27, 21, 21, 60, 31, 29, 49, 175]
29.891[28, 22, 22, 57, 31, 28, 47, 173]
29.913[32, 24, 21, 54, 29, 27, 65, 221]
29.928[29, 23, 22, 68, 29, 28, 62, 197]
29.951[28, 22, 23, 70, 33, 30, 59, 165]
29.973[30, 23, 22, 71, 32, 31, 67, 191]
29.988[32, 22, 25, 94, 36, 32, 71, 213]
30.02[29, 20, 27, 100, 37, 31, 56, 167]
30.033[30, 20, 27, 85, 33, 29, 54, 166]
30.048[27, 23, 26, 80, 29, 28, 52, 163]
30.071[24, 22, 26, 82, 31, 42, 41, 124]
30.101[20, 21, 23, 57, 26, 41, 39, 96]
30.108[28, 20, 22, 57, 24, 42, 70, 205]
30.131[29, 20, 23, 64, 26, 45, 72, 210]
30.153[29, 16, 24, 73, 29, 43, 74, 216]
30.168[29, 18, 23, 71, 30, 30, 74, 219]
30.191[29, 18, 25, 70, 30, 33, 70, 211]
30.213[22, 19, 24, 62, 30, 34, 44, 106]
30.228[20, 19, 23, 51, 28, 32, 38, 91]
30.251[20, 21, 23, 37, 25, 32, 35, 70]
30.273[18, 19, 24, 29, 25, 34, 34, 56]
30.288[18, 20, 22, 26, 28, 50, 57, 53]
30.311[19, 20, 24, 26, 29, 66, 55, 29]
30.333[30, 23, 26, 35, 32, 73, 79, 204]
30.356[32, 22, 26, 36, 35, 82, 84, 220]
30.379[32, 23, 26, 37, 34, 95, 92, 226]
30.393[33, 22, 26, 36, 31, 90, 83, 228]
30.416[36, 23, 27, 37, 31, 81, 86, 231]
30.43[33, 23, 27, 33, 29, 77, 73, 182]
30.453[34, 22, 25, 39, 28, 68, 73, 191]
30.476[34, 23, 27, 68, 28, 48, 65, 194]
30.49[34, 23, 27, 77, 31, 40, 62, 199]
30.513[32, 23, 27, 106, 32, 40, 60, 199]
30.536[25, 22, 27, 138, 34, 42, 52, 144]
30.551[28, 22, 29, 148, 44, 76, 68, 109]
30.573[39, 46, 53, 177, 125, 131, 109, 103]
30.596[52, 75, 110, 225, 127, 169, 137, 92]
30.611[51, 80, 116, 222, 146, 173, 138, 87]
30.633[51, 80, 118, 204, 151, 179, 140, 77]
30.656[49, 82, 119, 197, 148, 170, 145, 70]
30.671[42, 74, 114, 178, 116, 146, 125, 55]
30.701[29, 49, 72, 218, 134, 100, 95, 49]
30.724[30, 45, 66, 240, 119, 101, 100, 47]
30.732[30, 45, 65, 243, 121, 108, 110, 46]
30.753[32, 46, 66, 249, 133, 109, 101, 51]
30.776[29, 42, 62, 258, 117, 95, 101, 49]
30.791[24, 37, 52, 214, 98, 127, 107, 44]
30.821[25, 34, 48, 198, 106, 137, 103, 42]
30.844[29, 35, 51, 197, 130, 128, 100, 47]
30.851[29, 30, 48, 204, 130, 132, 90, 40]
30.873[28, 31, 48, 213, 133, 141, 93, 42]
30.896[31, 29, 47, 192, 138, 146, 109, 50]
30.911[33, 32, 55, 191, 178, 221, 117, 51]
30.933[31, 35, 64, 215, 169, 255, 114, 49]
30.956[29, 41, 70, 281, 168, 256, 127, 51]
30.971[32, 43, 71, 281, 187, 262, 118, 46]
30.993[31, 42, 69, 274, 199, 256, 94, 38]
31.017[28, 39, 64, 268, 173, 204, 85, 37]
31.03[28, 40, 55, 252, 178, 182, 77, 28]
31.053[31, 40, 64, 237, 197, 213, 57, 27]
31.076[31, 43, 73, 220, 189, 216, 61, 30]
31.099[31, 45, 82, 233, 179, 237, 70, 29]
31.113[39, 58, 95, 250, 201, 229, 82, 35]
31.136[40, 59, 98, 255, 231, 240, 86, 36]
31.15[42, 64, 97, 204, 240, 229, 89, 38]
31.173[42, 63, 93, 211, 241, 223, 96, 40]
31.196[44, 67, 101, 262, 243, 234, 92, 41]
31.21[40, 58, 96, 263, 273, 242, 80, 49]
31.233[40, 66, 113, 265, 247, 217, 94, 53]
31.256[38, 61, 111, 265, 244, 212, 91, 51]
31.27[37, 58, 109, 264, 241, 235, 81, 48]
31.293[35, 55, 100, 194, 247, 201, 84, 48]
31.316[33, 57, 99, 203, 210, 200, 93, 36]
31.339[31, 46, 76, 202, 201, 223, 76, 32]
31.353[28, 46, 81, 223, 223, 218, 83, 33]
31.376[34, 57, 89, 224, 225, 211, 102, 39]
31.399[32, 57, 88, 234, 217, 204, 115, 38]
31.413[33, 60, 92, 237, 202, 190, 107, 37]
31.436[31, 57, 89, 263, 228, 162, 106, 34]
31.458[30, 54, 91, 283, 219, 151, 102, 32]
31.473[26, 47, 103, 286, 243, 129, 105, 28]
31.496[26, 47, 106, 286, 241, 133, 88, 27]
31.519[29, 43, 111, 263, 240, 123, 89, 27]
31.541[28, 44, 111, 234, 235, 120, 90, 26]
31.564[28, 47, 113, 189, 204, 117, 85, 27]
31.586[28, 43, 99, 169, 169, 139, 57, 26]
31.593[29, 39, 97, 155, 165, 148, 73, 28]
31.618[25, 36, 90, 147, 167, 159, 72, 29]
31.639[28, 37, 99, 141, 170, 161, 71, 31]
31.653[27, 33, 91, 118, 167, 168, 69, 30]
31.676[28, 42, 103, 116, 175, 149, 74, 29]
31.699[25, 45, 104, 118, 195, 135, 61, 30]
31.713[26, 45, 97, 121, 265, 138, 60, 30]
31.736[25, 52, 112, 121, 247, 137, 74, 31]
31.759[27, 55, 119, 123, 244, 134, 76, 32]
31.773[28, 53, 115, 163, 256, 144, 70, 33]
31.796[28, 53, 114, 173, 249, 143, 72, 32]
31.819[28, 52, 114, 169, 160, 137, 76, 33]
31.833[26, 43, 90, 159, 161, 138, 73, 41]
31.864[30, 45, 88, 163, 281, 147, 72, 42]
31.886[28, 45, 97, 138, 276, 133, 74, 41]
31.909[28, 44, 96, 127, 273, 140, 70, 39]
31.916[28, 46, 99, 127, 280, 138, 69, 39]
31.939[28, 46, 99, 128, 293, 138, 65, 28]
31.953[23, 47, 115, 132, 202, 121, 63, 25]
31.976[22, 42, 97, 129, 187, 122, 59, 24]
31.999[21, 41, 97, 136, 190, 121, 62, 23]
32.013[21, 41, 101, 155, 214, 129, 67, 21]
32.037[21, 43, 113, 173, 201, 148, 61, 22]
32.067[21, 38, 104, 173, 181, 152, 75, 25]
32.073[20, 35, 104, 164, 178, 148, 80, 28]
32.096[22, 46, 112, 157, 189, 144, 77, 30]
32.119[21, 44, 105, 136, 154, 130, 76, 29]
32.141[22, 43, 92, 114, 142, 107, 77, 29]
32.164[22, 43, 71, 93, 136, 102, 64, 27]
32.179[22, 43, 73, 89, 159, 104, 59, 25]
32.193[22, 39, 83, 102, 145, 115, 61, 25]
32.216[22, 39, 86, 131, 163, 124, 64, 36]
32.239[20, 38, 89, 138, 179, 130, 71, 42]
32.261[20, 37, 91, 135, 192, 127, 72, 43]
32.276[21, 36, 89, 164, 199, 134, 74, 43]
32.299[20, 31, 75, 168, 214, 124, 76, 43]
32.321[22, 30, 75, 150, 216, 128, 77, 35]
32.344[26, 37, 79, 142, 210, 115, 69, 27]
32.366[26, 36, 74, 141, 236, 131, 71, 27]
32.389[26, 37, 81, 105, 234, 144, 73, 33]
32.396[27, 45, 109, 106, 269, 164, 79, 36]
32.419[27, 49, 110, 111, 270, 157, 75, 35]
32.442[24, 48, 107, 116, 272, 167, 75, 37]
32.456[25, 47, 109, 119, 252, 162, 71, 36]
32.486[25, 48, 108, 114, 248, 137, 68, 33]
32.501[26, 40, 83, 103, 212, 131, 68, 29]
32.516[26, 35, 80, 113, 204, 138, 66, 31]
32.539[25, 29, 79, 118, 202, 134, 66, 32]
32.561[28, 31, 79, 123, 210, 134, 67, 31]
32.576[28, 31, 73, 129, 213, 145, 68, 38]
32.599[25, 31, 73, 125, 202, 142, 91, 41]
32.622[26, 31, 73, 109, 196, 138, 89, 41]
32.644[27, 33, 72, 121, 195, 129, 87, 38]
32.667[25, 33, 76, 129, 197, 124, 89, 39]
32.698[25, 33, 82, 130, 189, 131, 86, 30]
32.699[26, 34, 81, 141, 185, 121, 60, 26]
32.719[25, 33, 79, 158, 178, 124, 62, 26]
32.741[26, 33, 85, 146, 193, 125, 66, 27]
32.764[26, 37, 89, 132, 205, 124, 72, 29]
32.787[26, 38, 89, 125, 207, 104, 77, 36]
32.801[25, 35, 81, 104, 221, 92, 67, 36]
32.815[24, 35, 78, 76, 221, 77, 61, 37]
32.839[22, 34, 70, 63, 202, 84, 76, 38]
32.861[21, 29, 55, 84, 168, 89, 70, 37]
32.876[21, 28, 49, 88, 160, 98, 65, 29]
32.899[20, 26, 46, 87, 142, 104, 72, 28]
32.921[22, 31, 72, 99, 145, 112, 86, 26]
32.951[22, 30, 76, 106, 162, 111, 84, 24]
32.959[24, 32, 79, 95, 160, 114, 89, 23]
32.981[23, 32, 80, 108, 168, 110, 88, 24]
32.996[26, 39, 88, 117, 186, 110, 84, 32]
33.019[26, 41, 86, 126, 195, 113, 77, 33]
33.049[28, 49, 100, 150, 204, 115, 63, 34]
33.063[29, 51, 104, 224, 228, 124, 62, 36]
33.08[29, 49, 109, 246, 243, 119, 62, 36]
33.1[26, 46, 100, 242, 220, 119, 65, 29]
33.123[27, 46, 95, 237, 224, 118, 67, 27]
33.139[30, 55, 124, 242, 238, 112, 76, 29]
33.16[28, 54, 122, 183, 238, 124, 74, 27]
33.183[29, 55, 117, 144, 226, 136, 80, 28]
33.2[31, 55, 122, 152, 234, 134, 87, 27]
33.228[29, 61, 133, 150, 228, 130, 77, 28]
33.25[25, 49, 98, 133, 231, 147, 72, 26]
33.26[26, 46, 96, 127, 219, 121, 73, 24]
33.28[26, 46, 99, 123, 210, 120, 70, 32]
33.303[27, 47, 101, 117, 216, 123, 58, 33]
33.319[25, 33, 77, 114, 234, 136, 65, 46]
33.34[25, 30, 69, 90, 224, 125, 61, 45]
33.365[25, 32, 72, 81, 229, 137, 70, 46]
33.385[23, 31, 68, 80, 224, 124, 72, 41]
33.408[21, 30, 62, 82, 212, 120, 78, 42]
33.43[23, 32, 68, 101, 198, 107, 80, 29]
33.439[23, 31, 72, 105, 183, 105, 85, 29]
33.46[22, 30, 67, 106, 161, 96, 83, 34]
33.484[23, 29, 68, 115, 185, 103, 91, 36]
33.499[27, 45, 87, 115, 207, 96, 84, 35]
33.52[27, 45, 86, 102, 200, 92, 78, 34]
33.543[33, 56, 111, 100, 191, 103, 76, 36]
33.559[34, 56, 115, 117, 209, 100, 72, 33]
33.588[34, 56, 114, 109, 202, 110, 63, 30]
33.603[31, 44, 98, 117, 197, 115, 64, 30]
33.619[31, 46, 114, 119, 213, 115, 65, 33]
33.642[25, 35, 94, 119, 215, 105, 72, 39]
33.663[23, 34, 88, 99, 193, 106, 65, 38]
33.687[22, 31, 87, 93, 178, 92, 64, 37]
33.708[22, 33, 87, 76, 164, 95, 71, 38]
33.731[22, 30, 72, 89, 135, 96, 77, 36]
33.739[20, 28, 65, 88, 163, 96, 68, 26]
33.76[20, 30, 73, 98, 196, 93, 69, 27]
33.783[20, 33, 76, 118, 198, 88, 67, 37]
33.805[19, 32, 78, 122, 190, 85, 67, 36]
33.82[19, 33, 76, 109, 191, 81, 62, 38]
33.843[22, 35, 93, 108, 221, 76, 67, 41]
33.859[22, 34, 90, 110, 216, 79, 65, 42]
33.88[23, 35, 97, 109, 237, 86, 70, 33]
33.903[23, 37, 97, 121, 256, 81, 66, 32]
33.92[25, 35, 94, 121, 282, 89, 63, 28]
33.942[25, 34, 78, 130, 244, 84, 62, 30]
33.963[27, 35, 83, 130, 230, 94, 64, 31]
33.987[27, 40, 84, 122, 225, 98, 58, 33]
34.008[28, 39, 83, 108, 204, 97, 54, 35]
34.031[26, 40, 79, 107, 161, 92, 51, 37]
34.04[25, 41, 98, 101, 158, 89, 61, 31]
34.061[24, 39, 92, 94, 183, 87, 62, 29]
34.083[25, 33, 87, 96, 191, 112, 63, 28]
34.098[26, 33, 84, 94, 227, 116, 65, 30]
34.12[27, 32, 85, 91, 226, 116, 77, 38]
34.143[27, 29, 59, 80, 219, 119, 68, 39]
34.165[26, 30, 59, 78, 202, 110, 66, 41]
34.182[24, 30, 74, 77, 199, 82, 62, 40]
34.211[24, 36, 103, 85, 155, 75, 60, 41]
34.225[22, 36, 110, 86, 216, 91, 41, 31]
34.24[26, 38, 110, 88, 221, 102, 57, 48]
34.263[25, 39, 117, 86, 221, 103, 59, 47]
34.286[26, 43, 119, 80, 200, 101, 63, 48]
34.308[24, 39, 94, 72, 217, 100, 63, 47]
34.331[24, 42, 98, 76, 168, 91, 64, 47]
34.345[20, 41, 98, 87, 177, 74, 52, 28]
34.36[22, 40, 88, 84, 189, 70, 51, 25]
34.383[20, 33, 66, 93, 197, 66, 48, 22]
34.405[19, 30, 66, 118, 182, 65, 46, 20]
34.42[20, 26, 55, 137, 177, 51, 46, 18]
34.443[23, 30, 60, 148, 178, 64, 40, 19]
34.465[21, 30, 65, 151, 175, 80, 47, 29]
34.48[21, 32, 73, 144, 161, 86, 55, 39]
34.503[24, 40, 88, 123, 155, 88, 56, 42]
34.526[26, 39, 86, 120, 171, 91, 55, 42]
34.542[53, 36, 84, 99, 198, 86, 70, 96]
34.565[126, 49, 84, 96, 183, 79, 119, 388]
34.585[197, 70, 86, 97, 189, 87, 146, 452]
34.608[214, 78, 76, 103, 194, 86, 157, 459]
34.623[217, 79, 71, 99, 192, 91, 159, 468]
34.645[216, 82, 69, 102, 154, 92, 155, 469]
34.66[189, 79, 75, 131, 161, 89, 119, 292]
34.683[117, 65, 82, 129, 155, 78, 81, 180]
34.706[83, 52, 86, 125, 151, 87, 63, 163]
34.72[75, 59, 108, 109, 145, 83, 60, 137]
34.743[79, 58, 113, 110, 157, 84, 60, 105]
34.774[67, 59, 130, 129, 175, 91, 67, 67]
34.781[61, 55, 122, 138, 204, 97, 75, 61]
34.803[61, 55, 117, 142, 199, 90, 73, 59]
34.825[60, 48, 104, 144, 188, 87, 72, 56]
34.842[35, 51, 102, 168, 179, 94, 78, 43]
34.864[32, 44, 83, 139, 155, 86, 68, 38]
34.894[35, 46, 80, 132, 122, 78, 55, 29]
34.916[33, 44, 78, 125, 133, 74, 60, 28]
34.923[33, 44, 92, 131, 140, 80, 80, 26]
34.945[27, 37, 88, 119, 134, 77, 90, 27]
34.96[27, 37, 80, 113, 167, 85, 94, 33]
34.983[26, 35, 79, 118, 197, 90, 93, 34]
35.005[26, 36, 88, 125, 213, 96, 102, 40]
35.036[25, 31, 61, 125, 212, 93, 104, 40]
35.052[25, 33, 62, 99, 217, 83, 92, 38]
35.065[25, 39, 77, 98, 203, 77, 90, 34]
35.096[23, 42, 101, 95, 178, 81, 99, 33]
35.103[25, 43, 101, 90, 148, 105, 92, 31]
35.125[27, 49, 107, 84, 161, 132, 86, 32]
35.148[30, 48, 107, 95, 158, 142, 85, 34]
35.163[30, 45, 105, 133, 144, 148, 90, 33]
35.194[29, 49, 108, 144, 126, 144, 86, 34]
35.216[32, 52, 106, 168, 129, 127, 91, 47]
35.223[33, 48, 102, 167, 108, 99, 83, 46]
35.254[30, 49, 104, 159, 110, 96, 82, 47]
35.268[30, 47, 95, 132, 139, 104, 95, 48]
35.283[33, 41, 76, 131, 156, 103, 98, 49]
35.305[29, 36, 75, 102, 185, 113, 94, 36]
35.328[32, 37, 77, 106, 199, 169, 100, 37]
35.351[33, 38, 77, 106, 198, 180, 112, 49]
35.374[32, 37, 84, 106, 178, 172, 97, 47]
35.396[31, 44, 89, 105, 177, 179, 97, 46]
35.403[32, 44, 84, 99, 156, 182, 93, 43]
35.425[28, 43, 87, 92, 130, 134, 86, 40]
35.448[25, 43, 86, 98, 145, 115, 68, 24]
35.471[25, 45, 78, 90, 173, 114, 73, 24]
35.494[23, 34, 60, 102, 179, 108, 67, 23]
35.508[23, 32, 59, 103, 167, 94, 68, 36]
35.523[27, 41, 59, 115, 172, 105, 65, 37]
35.545[27, 42, 70, 117, 166, 107, 73, 36]
35.568[31, 50, 94, 125, 177, 125, 72, 41]
35.583[30, 51, 96, 103, 164, 126, 67, 41]
35.605[34, 57, 104, 102, 172, 128, 63, 33]
35.628[31, 57, 120, 93, 172, 119, 80, 39]
35.652[33, 55, 113, 101, 184, 134, 74, 42]
35.674[31, 52, 110, 111, 171, 117, 73, 45]
35.688[31, 51, 109, 130, 167, 126, 79, 46]
35.703[27, 45, 102, 132, 163, 121, 83, 46]
35.726[26, 39, 81, 134, 172, 131, 69, 41]
35.748[25, 37, 82, 124, 153, 121, 68, 40]
35.763[21, 30, 64, 115, 133, 119, 72, 33]
35.794[23, 28, 62, 91, 142, 115, 70, 33]
35.809[22, 28, 64, 94, 152, 117, 73, 32]
35.823[22, 28, 62, 87, 151, 106, 73, 33]
35.845[20, 29, 68, 89, 171, 99, 80, 32]
35.868[22, 32, 64, 97, 175, 100, 75, 30]
35.883[21, 36, 83, 112, 178, 95, 74, 26]
35.906[23, 42, 115, 118, 172, 96, 68, 26]
35.929[24, 45, 115, 117, 167, 96, 77, 37]
35.951[23, 46, 118, 112, 142, 90, 74, 36]
35.965[23, 45, 129, 111, 142, 86, 72, 38]
35.989[24, 43, 124, 106, 128, 75, 69, 38]
36.003[21, 36, 97, 102, 139, 74, 67, 37]
36.025[22, 33, 95, 101, 137, 91, 55, 25]
36.049[23, 34, 109, 103, 166, 95, 55, 26]
36.071[21, 32, 99, 90, 158, 102, 52, 25]
36.086[23, 32, 95, 76, 161, 104, 61, 36]
36.116[24, 36, 96, 64, 162, 106, 62, 38]
36.131[23, 36, 95, 70, 172, 90, 67, 39]
36.145[23, 32, 77, 68, 144, 90, 60, 39]
36.169[24, 32, 72, 80, 140, 93, 63, 39]
36.191[24, 33, 89, 114, 149, 94, 59, 30]
36.205[23, 34, 87, 130, 169, 97, 82, 40]
36.229[23, 33, 88, 141, 168, 99, 79, 41]
36.251[23, 33, 83, 150, 175, 99, 81, 41]
36.274[24, 36, 86, 145, 180, 90, 84, 45]
36.289[22, 37, 72, 130, 201, 99, 89, 45]
36.311[27, 40, 105, 142, 184, 121, 97, 37]
36.325[28, 45, 108, 142, 189, 123, 97, 34]
36.356[29, 46, 108, 137, 184, 122, 104, 44]
36.371[28, 44, 105, 133, 189, 122, 106, 41]
36.385[28, 41, 101, 125, 155, 113, 104, 43]
36.408[24, 36, 72, 105, 162, 83, 98, 44]
36.439[27, 32, 64, 117, 150, 69, 97, 44]
36.445[28, 37, 80, 120, 182, 98, 92, 34]
36.469[27, 37, 81, 124, 173, 107, 88, 32]
36.491[27, 36, 79, 121, 169, 104, 90, 44]
36.505[26, 34, 69, 132, 152, 104, 71, 41]
36.528[23, 33, 77, 118, 184, 103, 73, 44]
36.551[21, 28, 67, 133, 151, 84, 67, 45]
36.574[21, 28, 65, 133, 154, 74, 66, 43]
36.589[23, 38, 82, 134, 214, 77, 55, 31]
36.611[26, 38, 81, 122, 216, 77, 54, 32]
36.634[24, 36, 74, 119, 197, 84, 59, 33]
36.649[25, 40, 84, 126, 233, 77, 63, 38]
36.671[26, 46, 119, 135, 239, 82, 63, 38]
36.694[24, 39, 107, 143, 191, 84, 67, 37]
36.716[24, 39, 110, 136, 188, 82, 68, 38]
36.731[26, 41, 112, 133, 177, 82, 59, 33]
36.746[28, 42, 108, 110, 137, 77, 57, 40]
36.769[52, 38, 74, 106, 130, 85, 59, 117]
36.791[59, 44, 81, 97, 127, 85, 68, 189]
36.805[61, 48, 94, 110, 144, 87, 67, 196]
36.829[61, 48, 99, 126, 169, 94, 70, 199]
36.851[63, 44, 92, 143, 178, 110, 74, 200]
36.865[47, 47, 102, 149, 185, 112, 73, 169]
36.889[38, 46, 111, 174, 190, 123, 64, 85]
36.912[35, 42, 100, 168, 190, 137, 64, 65]
36.925[35, 50, 141, 171, 191, 138, 71, 63]
36.949[32, 53, 149, 188, 182, 128, 64, 52]
36.971[28, 50, 142, 213, 194, 137, 65, 44]
36.994[27, 49, 137, 213, 221, 126, 59, 40]
37.009[27, 53, 138, 222, 221, 112, 70, 39]
37.039[25, 45, 97, 230, 209, 113, 68, 36]
37.061[25, 41, 82, 209, 207, 118, 76, 39]
37.069[28, 45, 92, 175, 199, 100, 74, 40]
37.091[39, 48, 102, 170, 196, 113, 73, 41]
37.114[41, 47, 108, 193, 202, 114, 66, 44]
37.129[42, 45, 104, 183, 196, 114, 62, 45]
37.152[43, 48, 111, 232, 204, 119, 59, 41]
37.174[40, 46, 115, 245, 208, 121, 58, 42]
37.189[35, 48, 102, 235, 197, 113, 61, 40]
37.211[31, 47, 108, 215, 193, 106, 55, 37]
37.233[31, 50, 104, 213, 201, 109, 49, 27]
37.249[29, 47, 98, 151, 217, 111, 44, 28]
37.271[29, 43, 81, 128, 206, 105, 44, 28]
37.294[28, 35, 78, 156, 189, 99, 43, 34]
37.316[27, 33, 53, 153, 176, 106, 46, 32]
37.339[28, 30, 70, 143, 181, 106, 48, 33]
37.361[27, 31, 67, 147, 147, 101, 47, 32]
37.369[31, 63, 98, 156, 162, 104, 45, 35]
37.391[30, 68, 108, 146, 179, 107, 42, 29]
37.414[36, 82, 146, 168, 215, 121, 46, 35]
37.429[34, 81, 139, 163, 207, 110, 62, 36]
37.451[39, 87, 147, 177, 217, 114, 77, 47]
37.481[39, 87, 173, 173, 197, 110, 78, 44]
37.488[64, 156, 295, 184, 218, 113, 78, 48]
37.511[62, 154, 288, 159, 220, 102, 76, 44]
37.534[63, 158, 295, 160, 210, 103, 67, 74]
37.548[63, 156, 295, 142, 205, 91, 63, 133]
37.571[64, 148, 277, 137, 221, 104, 68, 141]
37.594[40, 71, 149, 93, 223, 123, 75, 145]
37.616[38, 64, 144, 116, 196, 120, 75, 147]
37.639[37, 55, 130, 117, 220, 122, 70, 140]
37.661[33, 50, 119, 120, 224, 124, 55, 86]
37.668[34, 46, 109, 124, 248, 130, 56, 93]
37.699[34, 38, 86, 115, 244, 131, 51, 99]
37.714[35, 38, 93, 92, 244, 132, 49, 97]
37.728[35, 42, 109, 96, 233, 133, 49, 88]
37.751[36, 52, 130, 103, 230, 135, 51, 84]
37.781[34, 57, 143, 137, 210, 126, 49, 63]
37.788[36, 65, 146, 146, 201, 115, 49, 40]
37.811[33, 60, 132, 145, 214, 118, 48, 39]
37.834[37, 56, 123, 151, 219, 118, 59, 43]
37.849[150, 55, 103, 145, 215, 114, 59, 41]
37.871[207, 60, 87, 114, 267, 123, 53, 43]
37.894[212, 57, 82, 111, 255, 108, 48, 41]
37.916[216, 66, 100, 121, 269, 101, 49, 39]
37.939[219, 68, 109, 123, 265, 96, 35, 31]
37.961[169, 64, 112, 118, 263, 92, 46, 34]
37.976[94, 55, 119, 125, 216, 100, 50, 25]
37.991[79, 51, 126, 136, 239, 101, 51, 26]
38.014[70, 44, 114, 145, 222, 115, 52, 26]
38.036[57, 45, 115, 142, 227, 120, 51, 26]
38.051[42, 44, 114, 145, 253, 121, 51, 22]
38.08[32, 44, 106, 138, 253, 103, 57, 23]
38.096[34, 50, 112, 126, 221, 103, 58, 23]
38.112[32, 46, 108, 114, 199, 89, 59, 22]
38.133[30, 45, 106, 127, 203, 83, 61, 22]
38.155[28, 44, 108, 150, 206, 90, 54, 24]
38.172[27, 45, 107, 153, 187, 82, 53, 26]
38.194[28, 43, 106, 151, 211, 90, 55, 29]
38.217[26, 42, 104, 144, 221, 87, 53, 30]
38.24[26, 43, 98, 139, 236, 86, 51, 29]
38.253[34, 68, 126, 124, 236, 90, 53, 31]
38.276[35, 68, 130, 117, 232, 88, 47, 30]
38.292[36, 68, 119, 132, 221, 83, 47, 30]
38.314[37, 68, 120, 130, 210, 83, 50, 29]
38.337[44, 89, 145, 142, 172, 95, 53, 31]
38.36[37, 74, 139, 149, 127, 82, 50, 27]
38.38[37, 74, 139, 154, 153, 86, 45, 26]
38.403[34, 70, 135, 143, 136, 79, 39, 22]
38.412[35, 75, 145, 155, 200, 97, 39, 24]
38.433[27, 52, 122, 145, 206, 82, 44, 26]
38.456[28, 51, 105, 157, 211, 89, 49, 28]
38.472[28, 50, 98, 152, 197, 90, 53, 29]
38.494[31, 56, 115, 149, 218, 105, 53, 30]
38.517[28, 47, 103, 143, 158, 87, 50, 29]
38.532[25, 42, 90, 124, 160, 91, 42, 25]
38.561[22, 38, 82, 79, 171, 91, 36, 23]
38.583[22, 38, 85, 86, 182, 107, 30, 22]
38.592[19, 35, 77, 96, 183, 104, 30, 20]
38.613[23, 39, 92, 90, 206, 110, 31, 21]
38.637[25, 40, 97, 93, 209, 112, 31, 18]
38.652[26, 39, 97, 93, 200, 109, 47, 22]
38.673[27, 42, 100, 101, 202, 89, 47, 23]
38.703[27, 40, 92, 119, 188, 80, 49, 24]
38.712[26, 39, 78, 120, 185, 84, 49, 23]
38.733[25, 36, 73, 135, 179, 98, 49, 23]
38.755[25, 40, 87, 138, 177, 101, 34, 19]
38.772[25, 36, 81, 131, 160, 101, 42, 20]
38.793[25, 33, 76, 106, 153, 104, 41, 19]
38.817[22, 37, 81, 125, 193, 106, 43, 20]
38.832[22, 41, 95, 110, 184, 105, 54, 21]
38.853[24, 39, 91, 113, 176, 104, 58, 24]
38.875[28, 43, 104, 123, 174, 109, 52, 26]
38.898[31, 48, 107, 122, 174, 109, 49, 28]
38.914[31, 44, 103, 105, 108, 101, 48, 27]
38.937[32, 43, 92, 126, 120, 100, 35, 26]
38.959[31, 42, 83, 122, 127, 97, 29, 22]
38.98[27, 38, 67, 110, 124, 95, 32, 20]
39.003[24, 29, 59, 111, 123, 89, 34, 18]
39.026[25, 32, 65, 119, 124, 108, 33, 20]
39.033[25, 30, 66, 99, 115, 96, 32, 19]
39.055[25, 31, 64, 98, 107, 94, 29, 21]
39.088[24, 35, 70, 127, 102, 92, 25, 22]
39.093[25, 34, 70, 127, 95, 90, 24, 21]
39.117[23, 30, 55, 113, 79, 63, 24, 22]
39.139[23, 30, 50, 104, 70, 61, 24, 22]
39.153[21, 29, 48, 104, 64, 71, 26, 22]
39.178[21, 22, 33, 66, 60, 68, 27, 21]
39.198[18, 23, 36, 77, 114, 69, 26, 22]
39.214[20, 25, 36, 86, 120, 61, 26, 18]
39.237[19, 24, 33, 84, 121, 58, 24, 19]
39.258[19, 23, 34, 82, 128, 49, 25, 18]
39.28[20, 23, 35, 79, 134, 66, 26, 23]
39.303[25, 25, 35, 103, 137, 73, 59, 151]
39.318[25, 24, 33, 102, 148, 76, 67, 180]
39.334[26, 23, 34, 104, 150, 76, 68, 183]
39.357[28, 24, 32, 102, 143, 71, 67, 184]
39.378[30, 25, 28, 100, 137, 56, 77, 210]
39.393[30, 23, 24, 58, 98, 46, 69, 206]
39.416[41, 23, 25, 48, 70, 46, 74, 203]
39.438[49, 25, 25, 43, 66, 44, 81, 212]
39.453[48, 25, 26, 46, 66, 44, 87, 215]
39.475[47, 23, 26, 44, 62, 41, 78, 189]
39.498[46, 25, 26, 39, 56, 44, 69, 127]
39.513[38, 26, 24, 31, 52, 36, 65, 150]
39.537[31, 24, 26, 36, 52, 49, 70, 200]
39.559[35, 25, 27, 34, 57, 52, 77, 214]
39.58[35, 25, 27, 43, 67, 53, 85, 220]
39.604[50, 25, 27, 46, 69, 52, 104, 267]
39.618[67, 35, 27, 46, 67, 53, 109, 246]
39.633[109, 44, 25, 45, 65, 43, 130, 264]
39.655[126, 52, 24, 51, 66, 42, 137, 271]
39.679[154, 53, 28, 49, 61, 64, 257, 394]
39.7[163, 57, 28, 48, 57, 70, 293, 386]
39.725[184, 54, 50, 47, 56, 71, 305, 392]
39.746[166, 48, 67, 51, 55, 70, 300, 355]
39.753[160, 40, 68, 46, 47, 68, 297, 340]
39.776[142, 40, 68, 41, 36, 49, 214, 308]
39.798[128, 35, 67, 39, 37, 40, 154, 286]
39.82[85, 29, 54, 38, 33, 36, 124, 278]
39.835[77, 26, 30, 28, 31, 35, 111, 277]
39.859[65, 30, 28, 27, 31, 39, 114, 321]
39.888[75, 34, 25, 28, 36, 38, 103, 278]
39.903[100, 43, 25, 28, 31, 35, 100, 283]
39.918[104, 42, 24, 27, 31, 34, 94, 282]
39.94[103, 43, 24, 26, 31, 31, 93, 279]
39.955[104, 42, 23, 27, 44, 27, 111, 341]
39.978[87, 38, 23, 36, 52, 27, 98, 295]
40.0[54, 28, 22, 38, 57, 26, 96, 290]
40.016[48, 26, 21, 38, 56, 28, 98, 288]
40.038[48, 27, 22, 39, 59, 31, 99, 291]
40.06[44, 22, 22, 39, 52, 37, 72, 215]
40.075[39, 19, 21, 32, 40, 35, 68, 205]
40.098[43, 20, 22, 28, 32, 35, 64, 201]
40.12[41, 22, 22, 29, 33, 39, 64, 200]
40.137[42, 21, 21, 30, 28, 40, 75, 239]
40.158[42, 22, 22, 29, 29, 44, 86, 274]
40.18[40, 24, 22, 27, 29, 50, 88, 280]
40.204[34, 23, 22, 28, 30, 50, 87, 280]
40.218[35, 21, 23, 27, 29, 50, 88, 284]
40.24[34, 22, 22, 24, 29, 48, 97, 309]
40.256[36, 21, 22, 23, 25, 44, 78, 231]
40.278[36, 18, 23, 22, 24, 41, 76, 222]
40.3[35, 19, 23, 24, 26, 41, 74, 219]
40.316[34, 19, 25, 23, 27, 38, 74, 210]
40.338[30, 19, 24, 25, 29, 38, 42, 100]
40.36[37, 23, 26, 26, 30, 40, 112, 280]
40.376[39, 23, 25, 26, 29, 40, 115, 288]
40.398[39, 25, 27, 27, 28, 53, 121, 297]
40.42[40, 28, 28, 30, 30, 61, 123, 301]
40.437[39, 27, 29, 29, 30, 64, 123, 303]
40.458[26, 23, 27, 27, 28, 59, 66, 149]
40.48[32, 26, 28, 30, 32, 64, 97, 256]
40.504[31, 23, 25, 27, 31, 55, 93, 256]
40.519[32, 19, 25, 23, 28, 55, 96, 257]
40.54[34, 21, 25, 23, 27, 53, 98, 263]
40.556[33, 22, 25, 22, 27, 53, 98, 262]
40.578[25, 19, 23, 19, 23, 46, 61, 136]
40.601[23, 19, 23, 19, 26, 42, 54, 109]
40.616[32, 21, 21, 21, 26, 33, 78, 255]
40.638[31, 19, 21, 23, 27, 40, 78, 255]
40.66[32, 19, 22, 22, 29, 39, 79, 260]
40.676[34, 21, 21, 23, 33, 38, 78, 261]
40.698[34, 22, 22, 25, 39, 49, 79, 263]
40.72[27, 21, 24, 26, 39, 54, 65, 182]
40.737[29, 22, 24, 26, 38, 58, 70, 220]
40.758[29, 24, 23, 27, 39, 62, 69, 216]
40.781[28, 23, 24, 25, 35, 64, 71, 217]
40.804[28, 24, 25, 25, 29, 58, 70, 217]
40.826[29, 23, 23, 22, 27, 52, 71, 213]
40.84[29, 23, 23, 22, 28, 42, 70, 203]
40.864[31, 21, 21, 23, 27, 41, 70, 204]
40.878[31, 22, 21, 27, 26, 38, 68, 203]
40.9[33, 21, 19, 26, 25, 36, 79, 216]
40.924[29, 21, 19, 28, 25, 36, 63, 168]
40.938[24, 21, 18, 27, 26, 40, 52, 116]
40.968[24, 22, 19, 28, 27, 40, 65, 169]
40.991[24, 23, 19, 24, 27, 41, 68, 177]
40.998[23, 22, 20, 24, 26, 42, 57, 160]
41.02[23, 24, 23, 25, 30, 42, 57, 161]
41.044[24, 23, 24, 25, 29, 38, 57, 161]
41.058[20, 22, 24, 22, 27, 35, 39, 90]
41.081[20, 22, 25, 23, 27, 35, 32, 64]
41.104[23, 20, 25, 22, 27, 32, 65, 183]
41.118[23, 20, 22, 20, 24, 33, 67, 193]
41.14[24, 21, 22, 19, 24, 32, 69, 200]
41.164[24, 20, 21, 20, 23, 35, 71, 203]
41.178[23, 20, 19, 20, 24, 35, 71, 204]
41.2[17, 20, 18, 20, 24, 34, 41, 107]
41.224[22, 20, 19, 20, 24, 34, 63, 159]
41.238[22, 20, 21, 22, 25, 37, 61, 155]
41.269[28, 22, 22, 20, 25, 36, 75, 216]
41.284[29, 23, 21, 21, 26, 34, 76, 219]
41.298[30, 23, 22, 21, 26, 35, 80, 221]
41.32[27, 21, 21, 20, 25, 36, 62, 176]
41.343[27, 22, 21, 20, 24, 34, 62, 171]
41.358[23, 20, 22, 19, 22, 34, 40, 73]
41.381[21, 21, 23, 20, 22, 36, 39, 60]
41.404[22, 21, 24, 20, 23, 35, 28, 49]
41.418[21, 21, 23, 21, 21, 33, 33, 41]
41.441[23, 22, 23, 22, 20, 32, 31, 36]
41.463[26, 22, 22, 23, 22, 33, 57, 158]
41.478[28, 21, 22, 22, 22, 31, 58, 167]
41.501[26, 22, 21, 21, 22, 29, 59, 173]
41.524[27, 23, 20, 22, 24, 31, 57, 174]
41.546[26, 22, 20, 19, 25, 31, 61, 176]
41.561[20, 23, 20, 18, 24, 27, 37, 88]
41.584[22, 23, 19, 20, 23, 28, 55, 146]
41.598[26, 23, 20, 21, 22, 34, 69, 201]
41.621[26, 24, 24, 20, 23, 34, 75, 210]
41.651[26, 24, 22, 21, 23, 35, 73, 212]
41.66[27, 24, 24, 21, 24, 35, 73, 213]
41.681[23, 23, 23, 21, 25, 37, 58, 172]
41.711[19, 22, 21, 20, 26, 34, 41, 96]
41.733[19, 21, 19, 21, 24, 33, 29, 69]
41.741[17, 20, 19, 22, 23, 31, 31, 62]
41.764[17, 22, 17, 24, 24, 39, 31, 50]
41.802[24, 23, 17, 24, 22, 40, 68, 213]
41.804[26, 23, 17, 26, 24, 37, 73, 229]
41.824[26, 22, 16, 25, 25, 35, 75, 234]
41.854[27, 24, 18, 24, 24, 35, 75, 236]
41.861[28, 23, 19, 22, 22, 27, 75, 239]
41.884[23, 23, 20, 21, 22, 24, 45, 121]
41.906[22, 22, 21, 19, 18, 23, 37, 84]
41.921[22, 22, 22, 19, 16, 30, 31, 69]
41.944[24, 22, 23, 19, 19, 31, 34, 104]
41.966[30, 21, 22, 20, 22, 31, 60, 174]
41.981[30, 19, 20, 21, 23, 32, 64, 183]
42.011[31, 20, 20, 20, 24, 34, 67, 194]
42.033[33, 21, 19, 20, 24, 32, 68, 199]
42.041[31, 21, 16, 20, 23, 29, 66, 182]
42.064[24, 22, 16, 19, 22, 28, 47, 118]
42.087[23, 23, 17, 20, 23, 26, 41, 101]
42.101[37, 23, 18, 21, 22, 27, 93, 278]
42.124[38, 23, 20, 20, 22, 24, 94, 285]
42.146[38, 23, 20, 21, 23, 27, 95, 291]
42.161[39, 21, 22, 22, 23, 30, 98, 295]
42.184[39, 20, 22, 20, 21, 32, 98, 296]
42.206[26, 22, 21, 20, 22, 32, 51, 139]
42.22[23, 21, 22, 20, 24, 33, 46, 115]
42.243[23, 22, 23, 22, 25, 33, 44, 94]
42.266[28, 23, 21, 22, 24, 32, 49, 163]
42.28[30, 24, 21, 24, 25, 32, 50, 167]
42.303[29, 23, 21, 23, 27, 34, 47, 164]
42.327[30, 22, 21, 23, 27, 33, 47, 166]
42.34[30, 21, 21, 21, 28, 33, 52, 170]
42.364[27, 21, 21, 22, 29, 33, 53, 156]
42.386[27, 19, 22, 24, 30, 47, 52, 154]
42.4[31, 20, 24, 27, 28, 51, 64, 201]
42.423[32, 23, 22, 27, 27, 51, 65, 203]
42.446[32, 21, 23, 27, 26, 53, 63, 205]
42.46[32, 23, 22, 26, 27, 52, 68, 206]
42.483[33, 24, 22, 22, 26, 39, 67, 206]
42.506[29, 22, 20, 20, 27, 35, 60, 168]
42.52[28, 20, 22, 20, 27, 34, 67, 205]
42.544[29, 21, 22, 21, 27, 31, 68, 209]
42.566[31, 20, 24, 21, 27, 34, 71, 223]
42.58[31, 18, 24, 21, 26, 33, 73, 226]
42.604[30, 22, 26, 21, 26, 30, 71, 219]
42.634[29, 22, 25, 23, 27, 31, 63, 180]
42.64[33, 23, 26, 23, 26, 32, 75, 220]
42.664[29, 23, 23, 23, 24, 28, 58, 168]
42.686[30, 22, 23, 24, 23, 29, 64, 183]
42.716[31, 21, 22, 24, 21, 31, 74, 216]
42.723[30, 21, 21, 21, 20, 29, 76, 220]
42.746[24, 19, 19, 20, 21, 29, 65, 176]
42.769[25, 19, 20, 20, 22, 29, 64, 168]
42.784[26, 21, 20, 18, 21, 28, 67, 206]
42.806[27, 22, 21, 18, 21, 28, 54, 173]
42.829[29, 22, 20, 19, 21, 28, 68, 211]
42.844[28, 23, 19, 20, 20, 29, 64, 211]
42.866[29, 23, 20, 21, 20, 31, 69, 214]
42.888[25, 22, 19, 22, 22, 32, 59, 158]
42.903[23, 19, 20, 23, 25, 37, 59, 154]
42.933[21, 19, 21, 25, 28, 40, 41, 88]
42.948[21, 20, 22, 26, 28, 41, 41, 77]
42.964[18, 20, 24, 26, 27, 39, 32, 65]
42.986[22, 20, 24, 25, 28, 41, 54, 146]
43.008[21, 21, 24, 24, 27, 38, 54, 152]
43.024[22, 22, 24, 21, 28, 35, 54, 154]
43.046[22, 20, 24, 21, 28, 33, 54, 157]
43.084[24, 20, 22, 21, 30, 34, 54, 159]
43.086[23, 20, 21, 23, 30, 31, 45, 148]
43.114[23, 21, 21, 23, 29, 30, 44, 143]
43.128[23, 19, 20, 25, 28, 30, 45, 141]
43.144[28, 20, 21, 23, 28, 30, 54, 193]
43.167[28, 20, 20, 22, 26, 31, 55, 199]
43.189[27, 24, 21, 21, 25, 30, 49, 163]
43.212[27, 23, 21, 20, 24, 32, 49, 162]
43.227[27, 24, 22, 18, 22, 31, 49, 163]
43.248[22, 24, 21, 21, 23, 30, 38, 95]
43.264[21, 23, 22, 21, 23, 27, 36, 77]
43.285[23, 20, 21, 21, 22, 28, 58, 150]
43.308[25, 20, 20, 22, 22, 31, 65, 188]
43.324[26, 20, 20, 22, 22, 33, 66, 192]
43.353[27, 19, 22, 21, 22, 33, 66, 198]
43.377[26, 20, 20, 23, 22, 33, 67, 203]
43.392[24, 22, 21, 21, 22, 32, 46, 153]
43.405[21, 22, 21, 21, 23, 31, 39, 106]
43.428[21, 20, 20, 22, 23, 27, 35, 94]
43.45[19, 20, 18, 22, 21, 27, 35, 78]
43.465[19, 20, 19, 21, 21, 29, 40, 91]
43.488[21, 20, 19, 21, 21, 31, 49, 150]
43.504[23, 22, 19, 22, 24, 27, 47, 151]
43.525[24, 23, 20, 22, 24, 28, 47, 155]
43.548[28, 23, 19, 21, 25, 30, 67, 207]
43.565[29, 22, 19, 21, 24, 33, 65, 201]
43.585[27, 20, 18, 23, 25, 33, 57, 162]
43.608[25, 19, 18, 22, 22, 35, 56, 159]
43.64[24, 17, 18, 21, 23, 33, 59, 159]
43.645[28, 17, 20, 22, 24, 31, 52, 165]
43.668[29, 17, 21, 22, 23, 31, 52, 168]
43.691[30, 17, 21, 22, 22, 30, 55, 169]
43.705[32, 18, 21, 21, 25, 28, 65, 201]
43.728[33, 21, 25, 21, 23, 31, 66, 203]
43.751[27, 20, 22, 19, 22, 31, 57, 151]
43.765[29, 19, 22, 20, 23, 31, 70, 208]
43.788[30, 19, 21, 18, 23, 30, 69, 213]
43.81[29, 19, 22, 19, 21, 30, 59, 185]
43.825[31, 17, 19, 19, 26, 36, 75, 221]
43.848[30, 18, 20, 20, 26, 37, 75, 219]
43.87[27, 20, 19, 19, 25, 33, 63, 164]
43.893[25, 22, 20, 21, 26, 34, 62, 155]
43.908[27, 23, 18, 18, 24, 36, 70, 193]
43.932[24, 25, 17, 19, 22, 28, 57, 176]
43.945[26, 24, 19, 19, 23, 28, 70, 222]
43.968[27, 24, 20, 20, 22, 29, 73, 226]
43.99[27, 24, 20, 20, 22, 29, 72, 226]
44.005[25, 23, 21, 21, 23, 25, 64, 194]
44.028[25, 20, 22, 21, 22, 24, 59, 168]
44.05[27, 20, 20, 22, 23, 23, 54, 155]
44.067[28, 20, 21, 22, 23, 23, 48, 160]
44.088[28, 20, 21, 21, 24, 20, 50, 161]
44.11[28, 21, 19, 23, 24, 21, 59, 184]
44.133[29, 22, 19, 22, 24, 23, 62, 197]
44.155[25, 23, 20, 22, 22, 24, 53, 160]
44.17[24, 22, 20, 23, 24, 26, 53, 146]
44.185[27, 22, 21, 23, 21, 28, 57, 165]
44.208[28, 23, 23, 20, 20, 30, 53, 167]
44.23[27, 21, 24, 21, 22, 29, 46, 156]
44.245[28, 21, 26, 20, 21, 29, 46, 150]
44.268[29, 22, 26, 20, 22, 30, 51, 165]
44.29[26, 22, 26, 20, 24, 39, 56, 174]
44.305[26, 20, 24, 22, 24, 39, 54, 158]
44.328[25, 21, 25, 22, 22, 39, 54, 153]
44.35[30, 21, 24, 22, 23, 39, 72, 215]
44.367[30, 21, 22, 21, 21, 39, 70, 209]
44.389[29, 19, 22, 21, 22, 31, 62, 185]
44.41[27, 20, 22, 20, 20, 29, 60, 176]
44.425[26, 19, 20, 21, 21, 29, 59, 173]
44.448[20, 19, 20, 22, 24, 38, 31, 78]
44.47[18, 18, 18, 21, 25, 36, 34, 55]
44.485[20, 19, 18, 23, 22, 34, 31, 43]
44.508[31, 21, 17, 22, 24, 35, 31, 36]
44.531[36, 20, 20, 23, 23, 38, 50, 142]
44.545[37, 21, 19, 22, 18, 32, 51, 150]
44.568[37, 21, 21, 22, 20, 31, 47, 154]
44.599[36, 21, 21, 18, 22, 32, 50, 157]
44.613[27, 20, 21, 19, 21, 33, 50, 159]
44.628[21, 21, 19, 20, 23, 29, 31, 84]
44.65[19, 21, 20, 19, 24, 27, 30, 64]
44.673[19, 21, 19, 21, 23, 27, 31, 53]
44.689[17, 22, 22, 23, 22, 28, 25, 42]
44.71[19, 23, 22, 22, 23, 26, 29, 40]
44.733[19, 22, 23, 21, 23, 29, 32, 27]
44.748[21, 21, 24, 21, 23, 33, 33, 29]
44.77[20, 21, 25, 21, 22, 34, 32, 28]
44.793[20, 19, 23, 20, 22, 33, 31, 28]
44.808[18, 17, 22, 22, 20, 31, 27, 22]
44.832[18, 20, 21, 24, 21, 29, 31, 28]
44.853[20, 20, 20, 25, 21, 25, 38, 96]
44.875[22, 19, 22, 25, 23, 24, 45, 146]
44.898[24, 19, 22, 27, 22, 29, 48, 155]
44.913[24, 20, 21, 26, 22, 32, 48, 158]
44.928[24, 19, 22, 25, 22, 33, 45, 159]
44.951[21, 19, 23, 22, 22, 33, 41, 132]
44.981[20, 19, 21, 22, 25, 32, 31, 76]
44.988[17, 19, 20, 21, 25, 30, 28, 56]
45.01[19, 20, 22, 22, 25, 29, 27, 47]
45.033[19, 18, 19, 21, 24, 30, 26, 42]
45.048[19, 19, 21, 23, 23, 29, 22, 35]
45.07[19, 20, 22, 22, 21, 28, 22, 28]
45.093[21, 20, 23, 22, 19, 25, 30, 31]
45.109[22, 20, 22, 20, 20, 25, 36, 77]
45.13[24, 22, 22, 20, 20, 26, 43, 143]
45.153[23, 21, 21, 19, 20, 29, 46, 152]
45.168[24, 22, 19, 20, 19, 31, 47, 157]
45.19[24, 22, 18, 21, 22, 31, 43, 158]
45.221[22, 22, 19, 20, 21, 30, 44, 145]
45.243[20, 22, 20, 21, 22, 27, 35, 83]
45.25[26, 22, 21, 22, 23, 27, 49, 155]
45.281[27, 21, 22, 21, 24, 31, 49, 157]
45.303[27, 22, 21, 21, 22, 31, 52, 158]
45.318[27, 21, 21, 22, 22, 32, 51, 159]
45.333[27, 21, 21, 20, 20, 32, 52, 159]
45.348[22, 20, 20, 21, 21, 30, 38, 80]
45.37[20, 21, 20, 21, 23, 29, 37, 66]
45.393[19, 21, 20, 19, 23, 30, 33, 56]
45.409[19, 22, 23, 18, 22, 28, 32, 47]
45.43[26, 22, 25, 19, 25, 30, 48, 149]
45.453[25, 23, 26, 18, 24, 29, 51, 153]
45.468[24, 22, 25, 19, 22, 26, 51, 158]
45.499[24, 22, 26, 21, 25, 26, 52, 159]
45.513[25, 20, 23, 22, 25, 25, 51, 160]
45.544[21, 19, 23, 20, 23, 23, 37, 74]
45.558[21, 19, 21, 20, 23, 24, 34, 61]
45.573[21, 19, 23, 21, 22, 23, 34, 48]
45.596[25, 19, 24, 19, 20, 22, 48, 143]
45.61[24, 21, 25, 19, 21, 24, 46, 147]
45.633[24, 20, 24, 21, 23, 26, 48, 153]
45.656[25, 21, 25, 21, 23, 27, 49, 155]
45.671[24, 19, 24, 21, 23, 27, 48, 156]
45.693[22, 20, 23, 22, 22, 28, 33, 79]
45.716[21, 20, 21, 22, 21, 27, 32, 68]
45.73[20, 23, 20, 22, 20, 23, 33, 53]
45.753[26, 21, 21, 23, 22, 28, 49, 140]
45.776[27, 22, 20, 21, 23, 28, 50, 145]
45.79[26, 22, 22, 21, 23, 27, 51, 148]
45.821[30, 23, 23, 19, 24, 28, 68, 197]
45.836[29, 23, 22, 20, 23, 33, 65, 205]
45.85[26, 23, 23, 20, 22, 31, 58, 163]
45.873[26, 24, 22, 20, 22, 34, 59, 159]
45.896[25, 24, 22, 19, 23, 35, 58, 157]
45.91[21, 21, 23, 21, 21, 38, 35, 92]
45.933[22, 20, 23, 21, 25, 37, 35, 71]
45.956[19, 20, 22, 20, 24, 43, 28, 52]
45.97[19, 19, 22, 20, 23, 44, 27, 47]
45.993[19, 20, 22, 23, 26, 42, 32, 42]
46.016[20, 21, 21, 23, 26, 40, 33, 31]
46.03[18, 20, 23, 23, 24, 37, 31, 27]
46.053[19, 21, 23, 25, 24, 28, 30, 27]
46.076[19, 22, 22, 25, 26, 24, 29, 26]
46.09[26, 21, 23, 24, 24, 24, 41, 146]
46.113[27, 24, 23, 23, 25, 25, 42, 153]
46.136[27, 24, 20, 23, 24, 25, 43, 157]
46.15[26, 22, 21, 20, 24, 26, 44, 160]
46.173[27, 22, 22, 19, 22, 29, 44, 163]
46.196[21, 22, 21, 18, 21, 29, 30, 80]
46.218[20, 21, 20, 18, 22, 28, 26, 66]
46.233[19, 20, 21, 19, 23, 33, 32, 57]
46.256[20, 21, 21, 21, 23, 32, 30, 50]
46.27[20, 22, 19, 20, 23, 27, 30, 41]
46.308[20, 23, 20, 21, 23, 27, 27, 33]
46.317[21, 22, 20, 22, 22, 27, 29, 30]
46.33[21, 22, 20, 22, 22, 26, 22, 24]
46.353[20, 22, 21, 21, 22, 26, 22, 24]
46.376[19, 20, 22, 22, 22, 25, 25, 23]
46.391[21, 18, 22, 22, 22, 27, 30, 28]
46.413[19, 18, 23, 22, 22, 26, 28, 28]
46.436[21, 17, 21, 22, 21, 25, 27, 28]
46.458[21, 18, 20, 23, 22, 25, 27, 28]
46.473[22, 20, 20, 23, 20, 25, 24, 28]
46.496[20, 20, 19, 23, 20, 23, 24, 24]
46.518[19, 21, 18, 23, 19, 26, 25, 24]
46.541[19, 22, 19, 24, 20, 26, 26, 24]
46.556[20, 22, 19, 24, 21, 27, 28, 26]
46.578[19, 21, 19, 24, 23, 29, 28, 26]
46.593[20, 22, 21, 25, 23, 30, 23, 23]
46.616[21, 23, 21, 24, 23, 28, 23, 25]
46.638[21, 22, 22, 22, 22, 28, 28, 30]
46.653[20, 21, 22, 23, 22, 29, 26, 27]
46.676[22, 22, 21, 22, 19, 29, 27, 28]
46.698[22, 22, 20, 21, 19, 27, 25, 28]
46.713[22, 21, 20, 19, 19, 28, 26, 27]
46.736[19, 24, 20, 19, 20, 25, 21, 19]
46.759[20, 23, 20, 16, 18, 20, 28, 25]
46.773[18, 22, 21, 18, 19, 24, 28, 23]
46.796[18, 22, 21, 17, 23, 26, 28, 27]
46.819[17, 21, 24, 21, 23, 27, 28, 26]
46.833[18, 19, 24, 21, 23, 28, 28, 28]
46.856[18, 20, 25, 22, 25, 30, 24, 24]
46.878[21, 21, 24, 23, 26, 27, 32, 33]
46.893[22, 22, 24, 23, 22, 26, 31, 30]
46.916[21, 22, 21, 20, 22, 25, 33, 31]
46.938[21, 24, 20, 22, 20, 27, 33, 29]
46.953[20, 24, 18, 23, 21, 26, 31, 30]
46.976[17, 23, 20, 22, 22, 27, 28, 25]
46.999[17, 21, 20, 22, 22, 28, 30, 25]
47.021[17, 22, 19, 24, 24, 30, 29, 25]
47.036[18, 19, 19, 23, 25, 30, 30, 26]
47.058[18, 21, 20, 22, 25, 31, 30, 26]
47.073[20, 22, 19, 21, 23, 28, 25, 21]
47.096[20, 23, 20, 22, 22, 32, 23, 21]
47.119[24, 23, 22, 25, 26, 64, 28, 22]
47.133[24, 24, 22, 25, 26, 66, 31, 27]
47.156[25, 23, 21, 27, 26, 67, 31, 27]
47.178[25, 23, 21, 29, 30, 69, 32, 28]
47.193[27, 23, 22, 31, 31, 67, 32, 27]
47.216[24, 23, 20, 27, 27, 37, 26, 27]
47.238[23, 22, 21, 29, 27, 33, 19, 22]
47.253[23, 21, 21, 27, 25, 30, 28, 28]
47.277[22, 20, 20, 25, 23, 27, 27, 26]
47.298[20, 19, 19, 23, 22, 26, 27, 26]
47.321[19, 18, 20, 23, 21, 27, 30, 26]
47.336[18, 19, 20, 22, 22, 28, 31, 25]
47.358[17, 21, 20, 22, 22, 26, 22, 18]
47.373[19, 20, 19, 22, 22, 27, 25, 21]
47.396[20, 21, 20, 22, 22, 30, 28, 28]
47.418[21, 22, 19, 23, 22, 26, 27, 29]
47.441[22, 20, 20, 21, 20, 27, 27, 29]
47.456[22, 19, 20, 22, 20, 30, 28, 29]
47.479[21, 20, 19, 22, 19, 29, 26, 28]
47.501[22, 20, 20, 22, 19, 29, 23, 22]
47.516[23, 18, 20, 20, 19, 28, 21, 21]
47.539[24, 22, 19, 21, 19, 27, 21, 22]
47.561[25, 21, 21, 19, 21, 29, 31, 26]
47.576[23, 21, 21, 20, 23, 30, 31, 27]
47.599[21, 22, 21, 22, 24, 33, 31, 27]
47.621[20, 23, 20, 23, 26, 34, 31, 27]
47.636[20, 20, 19, 23, 27, 35, 31, 29]
47.658[19, 20, 20, 23, 25, 32, 25, 27]
47.681[20, 21, 19, 21, 23, 30, 28, 28]
47.696[20, 21, 19, 20, 21, 25, 29, 27]
47.719[18, 20, 21, 18, 20, 23, 30, 28]
47.741[19, 20, 22, 15, 18, 25, 30, 27]
47.756[20, 21, 20, 17, 21, 25, 25, 25]
47.778[19, 20, 21, 20, 22, 33, 22, 24]
47.801[18, 19, 22, 21, 22, 36, 29, 33]
47.816[18, 20, 22, 21, 24, 37, 29, 32]
47.838[18, 20, 21, 22, 23, 36, 29, 32]
47.861[18, 21, 22, 21, 22, 35, 28, 31]
47.876[19, 22, 24, 22, 20, 32, 30, 30]
47.906[20, 22, 24, 23, 21, 27, 22, 21]
47.921[20, 21, 23, 23, 19, 26, 23, 22]
47.935[20, 24, 23, 25, 19, 28, 30, 27]
47.958[18, 22, 22, 25, 22, 29, 32, 27]
47.981[19, 22, 20, 22, 22, 26, 30, 28]
47.995[18, 21, 20, 21, 23, 28, 30, 29]
48.019[20, 22, 20, 21, 23, 29, 30, 28]
48.041[20, 20, 19, 21, 23, 29, 21, 20]
48.056[22, 19, 18, 21, 21, 30, 23, 21]
48.079[21, 20, 18, 21, 20, 32, 27, 25]
48.1[21, 20, 18, 23, 21, 31, 28, 24]
48.123[22, 20, 18, 24, 20, 30, 28, 26]
48.139[21, 21, 20, 22, 21, 27, 29, 28]
48.162[19, 22, 20, 23, 22, 25, 26, 27]
48.184[21, 20, 21, 23, 23, 24, 22, 22]
48.206[21, 19, 20, 22, 24, 24, 23, 24]
48.22[20, 20, 20, 20, 25, 26, 30, 32]
48.243[21, 19, 20, 20, 26, 25, 29, 30]
48.259[21, 19, 22, 19, 24, 27, 30, 30]
48.28[20, 20, 22, 18, 25, 29, 29, 29]
48.303[19, 20, 23, 18, 24, 29, 29, 29]
48.319[21, 20, 22, 19, 23, 29, 20, 21]
48.348[20, 21, 21, 19, 21, 30, 22, 20]
48.363[20, 21, 21, 19, 21, 30, 21, 23]
48.379[20, 20, 20, 20, 21, 28, 27, 32]
48.4[20, 22, 19, 20, 22, 27, 28, 31]
48.423[18, 21, 19, 18, 24, 31, 29, 31]
48.439[17, 20, 20, 22, 25, 32, 27, 32]
48.46[19, 20, 19, 22, 25, 30, 27, 30]
48.483[17, 20, 19, 21, 25, 29, 23, 21]
48.507[18, 20, 19, 21, 24, 30, 29, 29]
48.52[20, 21, 22, 21, 22, 27, 29, 29]
48.543[20, 21, 22, 20, 23, 28, 29, 28]
48.559[19, 23, 22, 22, 23, 28, 30, 31]
48.58[20, 22, 23, 22, 24, 30, 30, 33]
48.603[21, 23, 24, 23, 22, 28, 22, 26]
48.62[19, 21, 22, 24, 21, 29, 26, 32]
48.64[20, 23, 22, 23, 21, 27, 26, 33]
48.663[21, 21, 22, 21, 22, 27, 25, 32]
48.679[20, 22, 22, 21, 20, 24, 25, 32]
48.7[21, 21, 22, 20, 21, 24, 26, 31]
48.723[20, 22, 22, 21, 22, 23, 31, 31]
48.739[19, 22, 21, 20, 22, 22, 31, 31]
48.761[18, 21, 20, 22, 23, 21, 31, 31]
48.783[20, 23, 21, 24, 25, 28, 30, 29]
48.799[18, 23, 21, 24, 26, 32, 29, 30]
48.82[19, 22, 21, 23, 26, 33, 23, 23]
48.851[20, 22, 23, 24, 26, 33, 27, 29]
48.858[20, 24, 23, 24, 24, 33, 26, 30]
48.88[18, 22, 23, 22, 25, 29, 27, 30]
48.903[19, 22, 22, 25, 25, 25, 27, 32]
48.919[18, 55, 25, 24, 23, 23, 25, 32]
48.94[20, 64, 26, 25, 24, 26, 21, 26]
48.964[21, 75, 29, 25, 24, 25, 21, 23]
48.985[24, 79, 29, 25, 22, 25, 26, 30]
49.0[23, 80, 29, 24, 22, 25, 26, 28]
49.023[23, 64, 27, 24, 22, 29, 26, 29]
49.039[22, 55, 25, 22, 22, 28, 24, 29]
49.062[22, 40, 23, 22, 22, 29, 26, 31]
49.084[21, 31, 21, 21, 21, 27, 27, 27]
49.105[22, 30, 21, 20, 22, 29, 28, 28]
49.12[23, 24, 20, 20, 23, 23, 29, 26]
49.144[23, 22, 19, 22, 21, 25, 29, 26]
49.165[22, 21, 18, 20, 23, 25, 27, 24]
49.18[21, 21, 18, 20, 24, 26, 22, 20]
49.203[20, 23, 18, 18, 22, 26, 26, 23]
49.218[19, 22, 19, 19, 22, 27, 24, 24]
49.248[18, 22, 19, 16, 22, 22, 25, 23]
49.263[19, 21, 21, 17, 22, 32, 27, 25]
49.278[19, 20, 21, 21, 25, 35, 26, 26]
49.3[18, 20, 21, 21, 25, 35, 23, 22]
49.331[19, 20, 21, 23, 24, 35, 29, 26]
49.345[22, 21, 23, 24, 24, 35, 29, 27]
49.36[20, 21, 21, 23, 23, 27, 30, 28]
49.383[20, 21, 22, 21, 20, 31, 30, 27]
49.405[21, 20, 21, 23, 20, 32, 31, 28]
49.422[20, 20, 21, 21, 21, 33, 25, 24]
49.451[20, 20, 18, 21, 22, 32, 32, 29]
49.465[20, 20, 18, 20, 21, 34, 30, 25]
49.48[20, 21, 18, 24, 21, 29, 31, 27]
49.503[21, 23, 19, 21, 21, 29, 31, 26]
49.525[22, 23, 18, 22, 21, 28, 32, 25]
49.542[20, 22, 20, 22, 20, 31, 27, 21]
49.563[21, 21, 21, 22, 23, 31, 31, 25]
49.586[21, 21, 20, 19, 22, 29, 32, 23]
49.6[19, 18, 21, 19, 21, 26, 32, 24]
49.623[18, 18, 21, 20, 21, 28, 30, 24]
49.645[17, 18, 22, 20, 21, 27, 31, 25]
49.66[17, 20, 22, 20, 20, 25, 28, 26]
49.683[17, 21, 22, 20, 21, 25, 29, 27]
49.705[18, 22, 22, 19, 23, 26, 28, 28]
49.72[18, 20, 23, 18, 23, 25, 28, 29]
49.751[20, 20, 21, 18, 24, 28, 27, 27]
49.765[20, 19, 21, 19, 24, 28, 24, 23]
49.781[20, 18, 20, 18, 24, 29, 24, 27]
49.802[20, 17, 20, 22, 24, 29, 24, 26]
49.825[21, 20, 19, 22, 23, 28, 25, 28]
49.843[21, 20, 19, 22, 23, 26, 24, 28]
49.863[21, 21, 17, 21, 23, 24, 23, 27]
49.885[20, 22, 21, 22, 21, 27, 27, 30]
49.9[19, 23, 22, 19, 22, 27, 26, 29]
49.922[20, 21, 23, 18, 20, 27, 27, 28]
49.945[20, 21, 23, 22, 21, 25, 26, 28]
49.961[20, 21, 23, 22, 21, 28, 26, 28]
49.983[19, 20, 21, 23, 22, 26, 30, 28]
50.005[20, 21, 21, 24, 21, 26, 33, 31]
50.02[19, 21, 19, 24, 21, 28, 32, 30]
50.043[17, 21, 21, 22, 21, 27, 33, 29]
50.065[17, 20, 22, 20, 19, 27, 33, 29]
50.08[17, 21, 22, 21, 19, 26, 29, 26]
50.102[17, 19, 21, 20, 21, 27, 29, 30]
50.125[19, 19, 21, 20, 26, 28, 30, 30]
50.142[19, 21, 20, 19, 28, 29, 31, 30]
50.164[21, 20, 21, 19, 27, 27, 32, 31]
50.194[21, 20, 20, 19, 29, 26, 27, 27]
50.2[22, 21, 20, 21, 28, 24, 29, 27]
50.222[22, 22, 18, 22, 23, 22, 28, 27]
50.253[23, 20, 21, 24, 22, 24, 27, 29]
50.268[20, 21, 20, 26, 23, 23, 26, 28]
50.283[21, 22, 23, 25, 22, 27, 26, 29]
50.305[19, 21, 24, 25, 22, 28, 24, 28]
50.328[19, 21, 25, 23, 22, 27, 23, 29]
50.343[17, 23, 22, 23, 23, 26, 24, 28]
50.365[20, 25, 23, 21, 21, 26, 24, 30]
50.397[20, 23, 21, 21, 21, 28, 30, 33]
50.403[20, 24, 22, 21, 21, 26, 26, 28]
50.425[19, 23, 22, 21, 23, 25, 27, 27]
50.448[20, 21, 23, 20, 21, 25, 25, 26]
50.463[18, 19, 22, 22, 24, 26, 24, 24]
50.485[18, 20, 22, 23, 23, 23, 18, 20]
50.516[21, 19, 21, 22, 24, 31, 26, 29]
50.522[22, 21, 22, 21, 24, 32, 27, 29]
50.545[21, 19, 24, 24, 27, 33, 27, 30]
50.568[21, 20, 24, 23, 26, 31, 29, 30]
50.582[22, 21, 24, 22, 27, 32, 28, 31]
50.605[20, 20, 23, 23, 26, 25, 22, 22]
50.628[19, 19, 21, 23, 25, 25, 26, 28]
50.643[19, 19, 19, 22, 22, 24, 26, 28]
50.673[19, 20, 18, 21, 22, 25, 26, 27]
50.688[18, 18, 18, 21, 22, 25, 27, 27]
50.703[17, 19, 19, 21, 23, 25, 28, 27]
50.725[15, 20, 21, 21, 20, 26, 28, 25]
50.748[16, 22, 20, 19, 20, 27, 30, 27]
50.763[16, 23, 19, 20, 20, 30, 30, 26]
50.785[16, 23, 22, 19, 21, 28, 29, 26]
50.809[18, 23, 21, 20, 21, 29, 29, 26]
50.823