[17, 19, 18, 18, 19, 18, 22, 40]
0.805[19, 18, 18, 21, 19, 19, 22, 23]
0.82[19, 19, 16, 20, 19, 19, 23, 24]
0.843[22, 24, 24, 19, 22, 21, 26, 25]
0.866[27, 26, 27, 20, 24, 26, 28, 24]
0.88[27, 25, 28, 20, 25, 26, 26, 25]
0.903[27, 27, 30, 18, 25, 28, 27, 26]
0.925[28, 27, 31, 19, 24, 26, 26, 24]
0.948[27, 22, 29, 18, 23, 25, 23, 24]
0.963[23, 20, 27, 18, 23, 20, 22, 25]
0.986[22, 21, 26, 20, 22, 20, 22, 24]
1.007[20, 19, 24, 21, 21, 18, 21, 21]
1.023[19, 18, 23, 20, 21, 19, 20, 21]
1.046[18, 18, 20, 21, 20, 17, 20, 18]
1.067[18, 18, 20, 21, 19, 18, 19, 17]
1.083[18, 16, 24, 20, 19, 17, 19, 17]
1.106[17, 17, 23, 17, 19, 17, 21, 17]
1.127[19, 18, 21, 19, 19, 18, 20, 17]
1.149[18, 17, 22, 18, 19, 20, 21, 18]
1.166[18, 17, 21, 19, 19, 19, 21, 18]
1.187[16, 17, 18, 20, 18, 21, 21, 18]
1.204[17, 21, 20, 21, 19, 21, 19, 18]
1.226[15, 22, 20, 22, 19, 22, 20, 19]
1.247[16, 22, 19, 22, 18, 19, 20, 20]
1.263[15, 22, 22, 22, 18, 22, 20, 20]
1.286[20, 23, 21, 21, 19, 22, 20, 20]
1.307[21, 18, 19, 21, 17, 22, 19, 21]
1.323[21, 19, 22, 19, 17, 22, 19, 21]
1.353[21, 22, 21, 20, 18, 23, 17, 20]
1.367[22, 22, 21, 18, 18, 20, 20, 21]
1.384[19, 22, 22, 18, 21, 21, 21, 22]
1.412[18, 22, 23, 18, 21, 20, 22, 20]
1.427[20, 20, 22, 17, 22, 20, 22, 21]
1.443[20, 17, 21, 16, 21, 19, 22, 21]
1.466[20, 18, 20, 17, 20, 19, 20, 20]
1.487[20, 18, 18, 17, 17, 18, 21, 19]
1.503[18, 17, 17, 16, 17, 18, 21, 21]
1.526[17, 18, 16, 19, 15, 18, 19, 22]
1.547[18, 19, 20, 19, 16, 18, 21, 22]
1.563[16, 22, 19, 19, 17, 19, 20, 22]
1.586[17, 21, 21, 19, 17, 20, 20, 22]
1.607[18, 23, 23, 19, 19, 21, 22, 22]
1.623[21, 22, 22, 17, 21, 20, 23, 21]
1.646[20, 21, 20, 16, 22, 20, 22, 21]
1.667[21, 18, 20, 16, 23, 20, 22, 22]
1.691[21, 18, 20, 16, 23, 19, 22, 22]
1.706[22, 18, 21, 16, 22, 19, 22, 21]
1.727[19, 20, 22, 21, 21, 19, 21, 18]
1.749[21, 19, 24, 23, 20, 18, 21, 19]
1.772[21, 18, 24, 23, 21, 17, 19, 19]
1.788[21, 21, 23, 21, 22, 18, 19, 19]
1.809[20, 20, 22, 22, 21, 17, 18, 20]
1.832[21, 20, 22, 19, 21, 17, 20, 20]
1.847[19, 23, 22, 19, 21, 20, 19, 20]
1.869[19, 26, 21, 21, 19, 21, 19, 19]
1.892[20, 26, 23, 22, 20, 21, 18, 17]
1.907[21, 28, 23, 21, 20, 24, 19, 16]
1.929[18, 27, 23, 22, 18, 24, 16, 17]
1.952[19, 26, 21, 21, 18, 22, 19, 20]
1.967[20, 24, 22, 20, 18, 21, 20, 19]
1.989[19, 24, 21, 20, 17, 21, 20, 19]
2.012[21, 21, 20, 19, 16, 18, 19, 21]
2.027[21, 22, 21, 18, 20, 20, 24, 21]
2.049[20, 22, 21, 20, 22, 20, 21, 17]
2.072[20, 21, 21, 19, 22, 21, 21, 17]
2.094[20, 21, 23, 19, 21, 19, 20, 19]
2.109[19, 21, 21, 19, 22, 19, 22, 17]
2.132[18, 21, 20, 19, 22, 19, 19, 19]
2.147[20, 21, 20, 18, 23, 19, 21, 20]
2.169[20, 22, 19, 19, 23, 20, 21, 19]
2.192[19, 21, 18, 21, 25, 22, 22, 19]
2.207[19, 23, 19, 21, 24, 22, 21, 19]
2.229[20, 23, 21, 21, 21, 20, 21, 18]
2.252[20, 22, 21, 20, 19, 21, 20, 18]
2.267[18, 21, 23, 20, 18, 18, 20, 20]
2.289[19, 21, 22, 20, 15, 18, 20, 19]
2.312[18, 19, 21, 21, 15, 16, 19, 20]
2.327[19, 19, 20, 20, 16, 16, 18, 20]
2.349[17, 21, 20, 20, 15, 16, 20, 20]
2.38[19, 20, 21, 22, 16, 17, 21, 21]
2.387[19, 20, 19, 19, 19, 17, 20, 22]
2.409[21, 20, 19, 18, 20, 17, 20, 21]
2.432[20, 20, 19, 19, 21, 19, 22, 22]
2.447[22, 19, 20, 19, 23, 19, 20, 21]
2.469[23, 20, 19, 18, 24, 19, 20, 20]
2.492[23, 23, 21, 21, 23, 19, 20, 20]
2.507[22, 24, 22, 21, 23, 18, 21, 20]
2.53[21, 22, 24, 21, 22, 17, 20, 18]
2.552[20, 22, 23, 22, 21, 16, 22, 19]
2.567[18, 22, 23, 22, 20, 15, 22, 18]
2.589[19, 21, 23, 20, 19, 16, 21, 20]
2.612[18, 23, 24, 20, 22, 16, 21, 19]
2.627[19, 22, 22, 20, 21, 15, 20, 20]
2.649[19, 25, 23, 19, 23, 18, 18, 18]
2.672[22, 24, 24, 18, 24, 19, 18, 18]
2.687[22, 24, 24, 18, 24, 19, 17, 16]
2.709[23, 24, 22, 19, 20, 18, 17, 16]
2.732[24, 26, 24, 20, 21, 19, 15, 18]
2.754[24, 24, 23, 19, 19, 17, 16, 18]
2.769[20, 23, 22, 18, 20, 18, 15, 18]
2.792[21, 23, 21, 20, 20, 17, 18, 18]
2.814[21, 21, 21, 18, 20, 17, 19, 21]
2.829[19, 24, 21, 17, 22, 18, 21, 20]
2.852[18, 22, 20, 17, 22, 17, 21, 20]
2.874[20, 21, 21, 21, 21, 16, 21, 21]
2.889[19, 22, 21, 18, 19, 16, 20, 22]
2.912[20, 22, 20, 17, 20, 16, 18, 20]
2.934[19, 19, 17, 18, 18, 19, 17, 23]
2.949[21, 23, 19, 20, 19, 19, 16, 22]
2.972[21, 22, 19, 19, 19, 21, 18, 23]
2.994[21, 24, 20, 19, 22, 22, 19, 22]
3.009[19, 23, 19, 20, 21, 23, 20, 21]
3.032[20, 23, 21, 19, 24, 21, 20, 20]
3.054[21, 21, 21, 19, 22, 21, 23, 20]
3.069[20, 22, 23, 16, 22, 22, 21, 21]
3.092[20, 22, 23, 18, 22, 21, 21, 20]
3.114[22, 22, 24, 18, 22, 22, 20, 22]
3.129[22, 19, 24, 22, 19, 21, 21, 21]
3.152[21, 20, 24, 21, 20, 20, 18, 23]
3.174[21, 19, 24, 22, 20, 20, 20, 20]
3.189[19, 20, 24, 20, 19, 20, 20, 20]
3.212[19, 22, 24, 20, 18, 19, 21, 19]
3.234[18, 23, 22, 20, 20, 20, 20, 19]
3.249[19, 22, 22, 20, 20, 21, 23, 19]
3.272[19, 23, 20, 19, 19, 20, 22, 19]
3.295[20, 22, 19, 20, 19, 21, 22, 20]
3.309[18, 19, 17, 20, 19, 19, 22, 20]
3.332[18, 19, 19, 18, 17, 22, 21, 19]
3.354[17, 21, 17, 18, 18, 20, 21, 16]
3.369[19, 19, 20, 19, 19, 20, 22, 16]
3.392[18, 19, 20, 20, 19, 18, 22, 18]
3.414[20, 22, 20, 19, 21, 19, 23, 17]
3.429[20, 22, 20, 19, 21, 14, 24, 18]
3.451[20, 23, 22, 19, 21, 15, 23, 19]
3.474[18, 24, 21, 19, 23, 15, 22, 18]
3.489[19, 23, 22, 19, 23, 16, 23, 18]
3.511[17, 21, 22, 19, 22, 15, 21, 19]
3.542[17, 23, 20, 19, 22, 18, 20, 19]
3.549[18, 20, 18, 22, 21, 20, 18, 18]
3.572[18, 20, 21, 21, 20, 21, 31, 20]
3.594[20, 19, 22, 21, 20, 22, 34, 20]
3.609[21, 21, 23, 22, 20, 24, 35, 19]
3.632[22, 18, 25, 22, 20, 24, 36, 19]
3.654[22, 19, 25, 19, 20, 24, 36, 21]
3.677[22, 20, 25, 19, 19, 23, 24, 19]
3.691[20, 20, 24, 18, 18, 21, 18, 19]
3.714[20, 20, 24, 21, 17, 20, 19, 19]
3.737[19, 22, 24, 22, 17, 16, 20, 20]
3.751[17, 23, 25, 21, 17, 16, 20, 20]
3.774[19, 23, 21, 21, 17, 19, 22, 21]
3.797[23, 23, 20, 22, 18, 18, 23, 20]
3.812[24, 24, 22, 18, 20, 18, 22, 21]
3.834[24, 24, 20, 18, 22, 20, 22, 20]
3.857[23, 24, 24, 19, 23, 20, 21, 20]
3.871[23, 23, 28, 19, 23, 18, 22, 18]
3.894[18, 23, 27, 18, 23, 20, 23, 20]
3.917[16, 22, 27, 17, 22, 21, 22, 20]
3.931[18, 21, 28, 19, 22, 21, 24, 21]
3.954[20, 19, 25, 17, 21, 21, 25, 20]
3.977[20, 22, 19, 17, 21, 20, 25, 22]
3.991[21, 23, 20, 22, 20, 23, 23, 22]
4.014[21, 23, 19, 21, 23, 23, 24, 20]
4.037[21, 23, 20, 22, 21, 23, 22, 19]
4.051[21, 25, 20, 24, 19, 23, 20, 19]
4.074[21, 22, 20, 24, 19, 24, 23, 19]
4.098[21, 21, 20, 21, 23, 22, 21, 17]
4.112[21, 21, 22, 23, 21, 21, 21, 19]
4.134[21, 21, 21, 21, 21, 21, 21, 19]
4.157[21, 21, 21, 18, 23, 21, 22, 17]
4.172[22, 20, 21, 19, 27, 22, 18, 19]
4.194[22, 20, 21, 20, 23, 21, 18, 21]
4.217[22, 22, 18, 18, 24, 19, 18, 20]
4.231[22, 19, 22, 18, 24, 24, 18, 20]
4.254[21, 21, 23, 19, 26, 22, 18, 21]
4.277[21, 23, 23, 20, 21, 21, 22, 19]
4.291[20, 22, 24, 19, 23, 23, 22, 17]
4.314[20, 25, 24, 19, 22, 23, 21, 19]
4.337[18, 26, 21, 22, 23, 19, 23, 22]
4.351[20, 24, 24, 22, 22, 21, 23, 22]
4.374[20, 23, 23, 23, 23, 20, 19, 23]
4.397[20, 23, 23, 22, 23, 20, 20, 22]
4.411[20, 19, 23, 22, 23, 22, 20, 21]
4.434[20, 22, 24, 21, 23, 22, 22, 17]
4.457[20, 22, 19, 21, 21, 21, 21, 20]
4.471[18, 24, 21, 20, 20, 22, 22, 18]
4.494[18, 25, 22, 20, 21, 20, 23, 18]
4.517[18, 25, 23, 22, 22, 19, 22, 18]
4.531[18, 22, 25, 20, 21, 18, 18, 20]
4.554[20, 23, 25, 21, 22, 17, 20, 16]
4.577[21, 20, 24, 21, 23, 17, 20, 17]
4.599[22, 20, 23, 22, 22, 19, 21, 19]
4.615[22, 21, 35, 18, 22, 22, 26, 19]
4.637[23, 20, 44, 19, 24, 23, 26, 20]
4.659[20, 21, 47, 18, 23, 25, 25, 21]
4.674[18, 21, 47, 18, 21, 27, 25, 20]
4.697[19, 21, 48, 16, 23, 25, 23, 19]
4.719[20, 21, 38, 19, 21, 23, 18, 19]
4.735[19, 21, 26, 19, 22, 22, 18, 16]
4.757[21, 18, 22, 20, 22, 20, 22, 19]
4.78[23, 22, 22, 20, 23, 19, 21, 19]
4.802[23, 21, 22, 20, 22, 20, 19, 21]
4.817[22, 22, 21, 19, 22, 19, 20, 22]
4.839[24, 23, 23, 19, 21, 21, 19, 23]
4.854[23, 22, 20, 18, 21, 19, 18, 21]
4.877[24, 22, 22, 18, 20, 18, 18, 21]
4.899[24, 22, 23, 17, 21, 22, 20, 19]
4.914[23, 22, 23, 17, 22, 22, 19, 18]
4.937[22, 21, 24, 17, 20, 22, 23, 19]
4.96[21, 22, 25, 21, 21, 23, 21, 18]
4.974[18, 21, 23, 20, 21, 25, 21, 19]
4.997[19, 21, 23, 20, 21, 21, 23, 19]
5.019[19, 22, 23, 19, 21, 21, 24, 19]
5.035[19, 22, 23, 20, 22, 23, 23, 21]
5.057[23, 22, 23, 16, 22, 22, 24, 21]
5.08[23, 22, 24, 17, 23, 21, 24, 22]
5.094[23, 22, 22, 20, 22, 21, 24, 21]
5.117[23, 22, 24, 20, 21, 22, 23, 22]
5.14[22, 22, 22, 19, 23, 17, 22, 20]
5.154[20, 22, 22, 21, 21, 18, 22, 22]
5.177[19, 22, 23, 22, 21, 18, 21, 20]
5.207[17, 21, 23, 20, 21, 21, 21, 22]
5.214[16, 20, 22, 23, 23, 23, 20, 22]
5.237[16, 20, 22, 22, 20, 24, 20, 21]
5.267[18, 19, 21, 23, 22, 24, 19, 20]
5.274[18, 21, 20, 22, 21, 25, 20, 20]
5.297[18, 21, 22, 23, 21, 20, 19, 20]
5.319[20, 22, 22, 20, 19, 22, 21, 20]
5.333[19, 22, 20, 21, 21, 23, 20, 21]
5.357[18, 22, 21, 20, 20, 22, 21, 22]
5.379[19, 21, 22, 20, 19, 22, 18, 21]
5.394[19, 21, 20, 20, 20, 23, 17, 20]
5.417[19, 19, 20, 20, 20, 21, 19, 18]
5.439[20, 19, 22, 20, 19, 21, 18, 16]
5.454[22, 21, 22, 21, 21, 20, 17, 14]
5.477[20, 20, 21, 20, 22, 20, 19, 16]
5.499[20, 21, 22, 19, 21, 19, 20, 16]
5.514[19, 22, 22, 18, 20, 18, 18, 17]
5.537[22, 22, 22, 18, 19, 18, 21, 17]
5.559[21, 22, 21, 17, 18, 19, 22, 18]
5.581[22, 21, 19, 19, 17, 21, 21, 19]
5.597[23, 20, 21, 19, 19, 21, 21, 19]
5.619[23, 19, 18, 20, 19, 20, 22, 19]
5.642[18, 20, 19, 19, 20, 18, 19, 19]
5.657[17, 19, 19, 20, 20, 22, 18, 19]
5.679[18, 20, 20, 19, 20, 21, 20, 19]
5.702[20, 23, 19, 18, 20, 20, 20, 18]
5.717[19, 24, 22, 19, 20, 22, 18, 18]
5.739[21, 24, 22, 21, 19, 23, 20, 17]
5.762[22, 23, 21, 21, 19, 20, 20, 17]
5.777[21, 20, 22, 22, 19, 22, 18, 18]
5.799[20, 23, 20, 22, 19, 23, 21, 18]
5.822[20, 22, 18, 22, 20, 22, 21, 20]
5.837[20, 22, 18, 24, 21, 23, 19, 20]
5.86[20, 23, 18, 23, 22, 21, 19, 21]
5.882[21, 26, 16, 22, 21, 19, 21, 20]
5.897[20, 22, 17, 22, 21, 19, 18, 19]
5.919[23, 23, 17, 22, 20, 17, 18, 18]
5.941[21, 22, 20, 21, 20, 18, 17, 18]
5.957[23, 22, 22, 21, 18, 18, 19, 17]
5.979[20, 18, 21, 22, 19, 18, 17, 18]
6.001[20, 19, 23, 21, 19, 18, 18, 18]
6.017[18, 17, 22, 20, 19, 19, 19, 18]
6.04[18, 18, 21, 21, 19, 18, 20, 20]
6.061[17, 20, 21, 21, 18, 20, 22, 21]
6.077[22, 21, 22, 20, 18, 20, 22, 21]
6.1[24, 21, 21, 20, 18, 20, 21, 21]
6.121[23, 23, 21, 20, 21, 18, 21, 21]
6.137[23, 23, 21, 18, 19, 19, 22, 19]
6.168[23, 22, 19, 18, 20, 18, 19, 19]
6.181[20, 20, 20, 18, 21, 20, 21, 20]
6.197[19, 20, 20, 17, 21, 23, 21, 21]
6.22[20, 19, 21, 17, 19, 24, 22, 20]
6.241[20, 21, 20, 17, 20, 24, 21, 20]
6.257[21, 20, 21, 20, 20, 25, 22, 22]
6.279[19, 21, 20, 19, 20, 25, 22, 23]
6.301[17, 20, 20, 21, 21, 23, 22, 23]
6.317[15, 19, 19, 21, 24, 22, 21, 22]
6.339[15, 17, 20, 22, 24, 21, 21, 23]
6.361[16, 20, 17, 18, 24, 21, 21, 18]
6.377[18, 20, 18, 19, 24, 20, 19, 16]
6.398[17, 21, 19, 19, 22, 20, 18, 18]
6.421[19, 23, 20, 20, 20, 21, 18, 18]
6.438[21, 24, 21, 18, 20, 22, 18, 18]
6.46[20, 22, 23, 22, 20, 21, 18, 23]
6.481[18, 23, 23, 22, 22, 21, 19, 22]
6.503[19, 22, 24, 22, 23, 21, 21, 21]
6.519[18, 27, 24, 22, 23, 20, 21, 21]
6.541[19, 26, 23, 22, 23, 19, 22, 21]
6.563[19, 25, 22, 20, 22, 21, 22, 17]
6.578[19, 26, 24, 20, 19, 21, 21, 17]
6.601[19, 25, 24, 21, 20, 22, 19, 18]
6.623[18, 20, 23, 20, 19, 23, 20, 18]
6.638[19, 19, 22, 20, 19, 24, 18, 19]
6.661[19, 19, 22, 18, 20, 21, 16, 19]
6.683[20, 19, 20, 21, 21, 20, 16, 21]
6.698[21, 19, 18, 20, 19, 19, 17, 19]
6.721[22, 19, 19, 19, 19, 17, 16, 20]
6.745[18, 21, 20, 18, 18, 18, 17, 20]
6.758[21, 21, 21, 21, 18, 21, 19, 20]
6.781[20, 22, 21, 18, 16, 23, 19, 19]
6.803[18, 25, 21, 19, 17, 22, 19, 19]
6.818[18, 23, 22, 20, 19, 21, 20, 19]
6.841[20, 23, 21, 23, 21, 23, 21, 18]
6.863[19, 22, 22, 20, 20, 21, 20, 21]
6.878[19, 23, 22, 21, 21, 19, 19, 20]
6.901[21, 21, 24, 22, 22, 19, 20, 21]
6.924[21, 22, 22, 22, 21, 23, 20, 20]
6.938[20, 21, 23, 19, 21, 20, 19, 20]
6.961[20, 21, 22, 21, 21, 21, 21, 16]
6.983[20, 18, 21, 20, 21, 21, 22, 19]
7.006[20, 20, 19, 18, 19, 22, 22, 18]
7.022[21, 18, 20, 19, 19, 19, 22, 18]
7.043[20, 19, 20, 20, 20, 21, 22, 19]
7.058[21, 20, 19, 19, 19, 21, 21, 20]
7.081[22, 20, 21, 19, 21, 22, 19, 18]
7.103[23, 20, 21, 19, 20, 20, 18, 17]
7.118[23, 20, 20, 17, 20, 20, 20, 17]
7.141[24, 19, 20, 17, 21, 18, 20, 18]
7.163[25, 21, 21, 15, 21, 19, 20, 20]
7.178[24, 21, 22, 17, 20, 18, 22, 21]
7.201[24, 23, 22, 18, 20, 19, 22, 21]
7.223[26, 24, 22, 19, 21, 20, 19, 22]
7.238[24, 24, 21, 19, 19, 19, 19, 22]
7.261[22, 21, 19, 20, 19, 17, 18, 20]
7.283[22, 21, 17, 20, 18, 18, 17, 20]
7.298[23, 20, 19, 21, 18, 18, 17, 20]
7.321[19, 21, 20, 20, 16, 17, 17, 19]
7.343[20, 21, 22, 20, 16, 18, 19, 20]
7.358[19, 24, 24, 21, 15, 19, 19, 20]
7.381[20, 24, 24, 21, 16, 21, 18, 19]
7.403[18, 23, 22, 21, 16, 20, 19, 19]
7.418[18, 22, 22, 22, 18, 21, 18, 18]
7.441[18, 24, 19, 23, 18, 22, 17, 17]
7.463[22, 21, 21, 23, 20, 21, 17, 18]
7.486[23, 21, 21, 22, 19, 20, 17, 18]
7.501[22, 23, 22, 22, 20, 20, 17, 18]
7.523[22, 22, 22, 21, 19, 21, 17, 16]
7.546[22, 19, 23, 21, 18, 19, 17, 19]
7.561[20, 21, 21, 20, 16, 20, 17, 19]
7.583[18, 21, 20, 21, 18, 20, 32, 21]
7.606[20, 18, 20, 20, 17, 22, 35, 23]
7.621[22, 20, 20, 20, 18, 19, 35, 22]
7.643[21, 19, 22, 20, 18, 20, 36, 19]
7.666[21, 20, 20, 20, 20, 19, 37, 18]
7.681[22, 19, 20, 21, 20, 20, 25, 17]
7.703[24, 21, 22, 19, 20, 20, 22, 16]
7.726[22, 20, 21, 19, 21, 21, 21, 16]
7.741[22, 21, 21, 19, 22, 21, 21, 19]
7.763[23, 22, 23, 21, 20, 22, 19, 18]
7.785[24, 22, 23, 19, 20, 21, 19, 18]
7.801[20, 23, 21, 21, 21, 20, 20, 17]
7.823[21, 25, 22, 20, 20, 21, 19, 17]
7.846[22, 25, 21, 21, 19, 21, 18, 16]
7.861[21, 25, 21, 18, 20, 21, 18, 17]
7.883[20, 25, 21, 19, 19, 20, 21, 18]
7.905[20, 23, 21, 18, 18, 22, 19, 18]
7.922[20, 21, 20, 16, 18, 21, 21, 21]
7.943[20, 22, 21, 17, 18, 21, 21, 20]
7.965[19, 18, 19, 18, 16, 21, 22, 20]
7.98[20, 19, 20, 17, 17, 21, 20, 19]
8.011[21, 19, 20, 20, 19, 20, 22, 18]
8.025[21, 18, 20, 21, 19, 19, 22, 16]
8.04[21, 19, 20, 21, 19, 21, 21, 17]
8.063[21, 22, 20, 19, 19, 21, 21, 18]
8.085[21, 21, 20, 21, 18, 20, 21, 18]
8.1[21, 21, 19, 18, 16, 20, 21, 18]
8.123[20, 22, 21, 20, 17, 20, 18, 18]
8.145[21, 21, 21, 20, 16, 17, 19, 19]
8.161[21, 20, 21, 22, 18, 17, 20, 18]
8.183[20, 20, 22, 22, 17, 19, 19, 17]
8.205[19, 21, 22, 22, 19, 17, 17, 18]
8.221[18, 21, 22, 19, 18, 19, 19, 19]
8.243[17, 21, 23, 20, 18, 20, 19, 17]
8.265[18, 20, 23, 18, 19, 21, 20, 17]
8.28[19, 20, 21, 19, 19, 18, 20, 17]
8.303[18, 19, 20, 19, 19, 19, 22, 17]
8.325[19, 20, 19, 20, 20, 19, 20, 17]
8.341[19, 21, 18, 17, 23, 23, 19, 18]
8.363[19, 23, 20, 19, 22, 21, 20, 18]
8.385[18, 22, 21, 19, 23, 22, 20, 18]
8.409[20, 22, 23, 19, 21, 23, 19, 18]
8.423[19, 23, 22, 18, 19, 22, 20, 19]
8.445[19, 22, 22, 20, 18, 19, 19, 17]
8.469[17, 21, 21, 19, 19, 19, 19, 17]
8.483[21, 22, 20, 19, 19, 20, 19, 18]
8.505[21, 22, 21, 20, 21, 20, 21, 19]
8.529[22, 20, 22, 21, 24, 19, 20, 18]
8.543[23, 20, 22, 21, 22, 19, 21, 17]
8.566[22, 19, 21, 20, 21, 22, 21, 19]
8.589[20, 19, 22, 20, 23, 22, 20, 19]
8.603[21, 17, 21, 19, 21, 21, 20, 18]
8.625[19, 19, 20, 18, 23, 23, 20, 19]
8.648[18, 19, 19, 19, 22, 24, 19, 19]
8.663[20, 20, 17, 21, 23, 22, 19, 19]
8.685[20, 20, 18, 20, 22, 21, 20, 20]
8.709[19, 20, 17, 21, 24, 22, 18, 20]
8.723[20, 20, 17, 21, 22, 19, 17, 20]
8.745[21, 19, 18, 20, 22, 19, 19, 20]
8.769[20, 20, 19, 18, 22, 18, 19, 20]
8.783[21, 21, 20, 18, 22, 18, 19, 17]
8.806[22, 21, 22, 18, 21, 17, 19, 19]
8.828[22, 20, 22, 19, 20, 18, 22, 19]
8.843[22, 21, 24, 21, 24, 20, 21, 21]
8.865[23, 20, 25, 39, 34, 22, 21, 20]
8.889[22, 21, 23, 61, 35, 22, 20, 21]
8.903[20, 20, 22, 65, 39, 23, 20, 21]
8.925[18, 22, 22, 66, 40, 23, 18, 21]
8.948[16, 27, 18, 65, 38, 22, 19, 18]
8.963[17, 26, 18, 57, 31, 21, 20, 21]
8.985[16, 25, 18, 32, 29, 21, 19, 20]
9.008[17, 26, 21, 22, 23, 20, 20, 20]
9.022[18, 25, 22, 19, 23, 20, 18, 19]
9.045[19, 19, 23, 21, 24, 20, 18, 19]
9.069[20, 20, 22, 19, 23, 19, 19, 18]
9.083[19, 19, 22, 19, 22, 18, 19, 19]
9.105[18, 19, 21, 19, 22, 20, 19, 17]
9.136[17, 19, 22, 18, 23, 22, 19, 17]
9.143[17, 18, 22, 17, 21, 22, 20, 18]
9.165[15, 19, 24, 20, 21, 22, 18, 19]
9.188[17, 19, 24, 19, 22, 24, 23, 19]
9.203[18, 17, 23, 19, 22, 22, 22, 19]
9.225[19, 19, 21, 18, 21, 22, 22, 19]
9.249[20, 19, 22, 17, 21, 22, 22, 18]
9.263[21, 18, 22, 17, 20, 20, 23, 16]
9.285[23, 19, 22, 18, 19, 20, 18, 15]
9.309[22, 20, 21, 18, 20, 20, 17, 14]
9.338[21, 18, 23, 20, 19, 19, 18, 16]
9.345[20, 21, 21, 20, 20, 19, 17, 15]
9.368[21, 21, 21, 19, 19, 21, 18, 17]
9.391[20, 20, 22, 20, 20, 20, 18, 19]
9.405[22, 20, 23, 20, 19, 20, 19, 20]
9.428[21, 22, 21, 20, 18, 18, 20, 19]
9.451[23, 20, 22, 20, 18, 17, 21, 20]
9.465[23, 20, 21, 19, 17, 16, 20, 21]
9.488[24, 20, 19, 18, 19, 19, 21, 19]
9.511[23, 20, 21, 19, 20, 21, 23, 19]
9.525[25, 22, 22, 20, 20, 22, 22, 19]
9.548[26, 22, 23, 23, 21, 23, 21, 19]
9.571[25, 23, 23, 24, 22, 22, 21, 16]
9.585[31, 25, 24, 25, 22, 19, 20, 20]
9.608[70, 29, 21, 24, 21, 18, 20, 34]
9.631[85, 32, 23, 23, 23, 19, 22, 46]
9.645[89, 33, 23, 21, 22, 20, 23, 47]
9.668[98, 31, 23, 23, 22, 21, 25, 50]
9.691[110, 40, 23, 24, 19, 22, 27, 56]
9.705[112, 46, 28, 28, 22, 23, 34, 67]
9.728[144, 70, 35, 30, 23, 28, 69, 116]
9.751[178, 80, 38, 87, 33, 29, 86, 143]
9.765[181, 110, 62, 281, 171, 69, 217, 192]
9.788[180, 221, 108, 398, 274, 89, 258, 225]
9.811[190, 387, 141, 489, 371, 110, 264, 227]
9.826[171, 416, 248, 577, 421, 120, 262, 209]
9.85[136, 465, 328, 706, 454, 127, 259, 192]
9.871[134, 509, 465, 800, 506, 144, 174, 145]
9.886[133, 544, 486, 942, 512, 144, 108, 95]
9.909[107, 581, 486, 1109, 503, 146, 97, 83]
9.931[101, 599, 483, 1129, 521, 161, 89, 81]
9.953[109, 674, 467, 1091, 507, 161, 84, 81]
9.968[107, 709, 342, 1055, 463, 145, 67, 77]
9.99[110, 693, 335, 1008, 462, 153, 66, 66]
10.013[112, 616, 370, 946, 439, 148, 62, 64]
10.029[115, 652, 398, 945, 382, 131, 56, 58]
10.058[115, 640, 436, 1062, 436, 143, 57, 56]
10.065[110, 628, 508, 1135, 438, 151, 65, 60]
10.088[107, 635, 565, 1159, 432, 145, 58, 54]
10.111[102, 633, 553, 1117, 419, 139, 53, 52]
10.125[92, 593, 504, 1150, 427, 141, 57, 53]
10.148[79, 555, 478, 1101, 400, 131, 57, 52]
10.171[82, 529, 431, 1071, 407, 121, 50, 47]
10.185[73, 505, 374, 1022, 379, 120, 52, 45]
10.209[66, 536, 447, 1049, 378, 117, 54, 46]
10.231[69, 518, 509, 1056, 427, 134, 57, 41]
10.245[82, 505, 486, 1053, 409, 132, 54, 44]
10.268[82, 466, 503, 1022, 383, 132, 54, 42]
10.291[81, 460, 500, 1013, 378, 128, 55, 46]
10.313[86, 460, 423, 941, 375, 127, 55, 46]
10.328[90, 472, 377, 1004, 352, 118, 49, 45]
10.351[80, 498, 461, 981, 351, 118, 49, 45]
10.374[75, 539, 422, 988, 352, 116, 49, 46]
10.388[76, 530, 387, 986, 370, 119, 46, 43]
10.411[74, 490, 398, 1013, 380, 129, 48, 41]
10.433[67, 500, 439, 992, 376, 125, 45, 37]
10.448[64, 422, 358, 979, 361, 123, 48, 40]
10.471[63, 369, 370, 988, 356, 118, 46, 37]
10.493[71, 410, 381, 994, 327, 112, 46, 40]
10.508[68, 409, 385, 951, 312, 107, 44, 40]
10.531[74, 386, 344, 858, 265, 96, 43, 42]
10.553[73, 402, 348, 800, 263, 95, 40, 38]
10.568[75, 399, 321, 820, 286, 104, 41, 40]
10.59[72, 412, 330, 822, 289, 111, 44, 49]
10.613[73, 415, 335, 846, 271, 104, 41, 48]
10.628[67, 390, 338, 816, 259, 101, 41, 48]
10.658[63, 364, 330, 834, 247, 96, 40, 47]
10.673[63, 366, 324, 715, 191, 78, 36, 44]
10.688[55, 295, 302, 671, 178, 69, 37, 36]
10.71[50, 258, 276, 641, 173, 65, 36, 34]
10.733[47, 328, 212, 641, 170, 60, 35, 32]
10.748[50, 324, 214, 653, 191, 67, 38, 35]
10.77[51, 344, 269, 731, 211, 70, 38, 36]
10.793[55, 344, 361, 767, 207, 65, 32, 38]
10.807[55, 342, 375, 778, 210, 65, 35, 38]
10.83[52, 279, 375, 775, 223, 74, 40, 40]
10.853[49, 288, 374, 762, 200, 68, 38, 37]
10.875[52, 259, 349, 690, 173, 62, 38, 40]
10.89[48, 259, 259, 617, 168, 62, 37, 34]
10.913[49, 269, 261, 575, 170, 64, 35, 34]
10.927[46, 270, 255, 514, 144, 50, 28, 31]
10.95[48, 257, 251, 553, 160, 55, 29, 32]
10.973[44, 257, 235, 613, 174, 60, 29, 25]
10.987[45, 266, 233, 570, 169, 58, 29, 29]
11.011[48, 253, 228, 680, 171, 65, 33, 30]
11.032[52, 262, 243, 833, 226, 82, 37, 32]
11.055[52, 285, 239, 819, 230, 79, 36, 34]
11.071[50, 274, 243, 786, 230, 78, 38, 35]
11.1[51, 327, 260, 884, 264, 88, 39, 33]
11.116[52, 349, 252, 834, 279, 93, 40, 33]
11.131[49, 341, 254, 745, 246, 82, 41, 34]
11.152[47, 363, 253, 704, 239, 84, 41, 32]
11.175[50, 391, 269, 717, 235, 85, 43, 33]
11.191[49, 323, 274, 670, 190, 72, 41, 37]
11.212[43, 293, 292, 675, 166, 62, 38, 36]
11.235[45, 339, 290, 611, 167, 61, 37, 36]
11.251[45, 287, 296, 647, 172, 65, 37, 36]
11.272[45, 256, 308, 676, 176, 58, 35, 37]
11.295[43, 255, 279, 636, 188, 64, 35, 33]
11.311[45, 261, 287, 616, 192, 63, 34, 33]
11.333[47, 211, 282, 627, 177, 62, 32, 32]
11.355[58, 334, 268, 608, 165, 56, 31, 32]
11.371[55, 378, 233, 570, 164, 61, 29, 29]
11.394[56, 404, 242, 592, 161, 57, 29, 30]
11.415[56, 402, 230, 583, 154, 56, 29, 30]
11.431[52, 413, 235, 705, 185, 64, 31, 31]
11.452[44, 341, 294, 749, 210, 78, 33, 31]
11.475[47, 283, 319, 774, 206, 78, 33, 35]
11.492[47, 279, 319, 733, 201, 82, 33, 32]
11.512[47, 281, 314, 720, 192, 79, 32, 32]
11.535[49, 283, 321, 606, 173, 73, 29, 28]
11.551[47, 291, 272, 587, 151, 62, 28, 28]
11.572[44, 297, 249, 523, 140, 56, 29, 25]
11.595[45, 322, 272, 537, 150, 57, 29, 25]
11.618[44, 327, 370, 501, 163, 61, 29, 25]
11.632[43, 321, 368, 470, 159, 64, 30, 27]
11.662[43, 307, 374, 471, 170, 66, 27, 27]
11.671[43, 311, 375, 535, 175, 69, 30, 28]
11.692[47, 270, 362, 602, 186, 70, 30, 29]
11.714[48, 273, 292, 659, 185, 71, 31, 27]
11.731[47, 240, 310, 754, 204, 77, 34, 29]
11.752[47, 217, 309, 774, 230, 84, 36, 30]
11.774[46, 233, 302, 751, 230, 83, 33, 28]
11.799[39, 234, 329, 728, 225, 81, 34, 28]
11.812[39, 221, 287, 738, 243, 79, 37, 31]
11.834[44, 267, 264, 666, 226, 73, 33, 29]
11.85[42, 282, 258, 612, 204, 59, 33, 29]
11.872[43, 282, 271, 628, 210, 59, 36, 33]
11.894[45, 303, 229, 599, 194, 54, 32, 32]
11.909[45, 304, 253, 610, 164, 52, 28, 30]
11.932[43, 279, 238, 615, 178, 56, 30, 29]
11.954[44, 284, 236, 652, 198, 71, 32, 29]
11.977[45, 270, 271, 634, 186, 68, 29, 27]
11.992[47, 251, 342, 636, 194, 70, 30, 28]
12.015[51, 268, 365, 555, 188, 69, 30, 28]
12.029[47, 262, 372, 566, 185, 65, 29, 27]
12.052[51, 287, 389, 514, 143, 51, 24, 28]
12.075[49, 274, 379, 540, 159, 57, 26, 25]
12.089[52, 257, 385, 519, 161, 55, 26, 24]
12.112[49, 233, 406, 619, 192, 68, 28, 26]
12.134[52, 229, 400, 597, 183, 70, 33, 28]
12.149[47, 190, 438, 658, 191, 70, 37, 27]
12.172[48, 202, 421, 617, 176, 68, 36, 29]
12.195[43, 192, 374, 618, 167, 68, 38, 33]
12.217[44, 217, 317, 598, 159, 65, 37, 31]
12.233[42, 215, 319, 693, 175, 72, 35, 31]
12.255[43, 197, 243, 668, 160, 69, 30, 30]
12.277[42, 182, 282, 707, 180, 73, 32, 29]
12.292[36, 208, 289, 738, 195, 75, 31, 26]
12.323[36, 216, 272, 721, 185, 68, 28, 27]
12.337[37, 219, 270, 686, 199, 69, 30, 26]
12.352[37, 226, 292, 692, 205, 73, 30, 29]
12.375[38, 252, 285, 729, 205, 68, 28, 29]
12.397[37, 244, 250, 730, 203, 69, 27, 28]
12.412[36, 236, 282, 676, 200, 71, 29, 29]
12.434[32, 232, 309, 648, 175, 60, 25, 28]
12.457[31, 223, 280, 600, 174, 59, 26, 26]
12.472[32, 220, 264, 537, 163, 63, 34, 26]
12.494[35, 229, 285, 510, 152, 59, 37, 25]
12.517[36, 202, 355, 536, 137, 54, 37, 25]
12.532[38, 222, 356, 515, 141, 54, 37, 27]
12.554[44, 248, 373, 549, 145, 52, 38, 27]
12.577[46, 226, 367, 561, 159, 53, 34, 29]
12.592[49, 213, 381, 523, 166, 53, 30, 30]
12.614[49, 211, 328, 542, 180, 58, 29, 28]
12.637[55, 304, 320, 565, 179, 61, 31, 28]
12.652[51, 293, 306, 553, 172, 58, 29, 28]
12.674[50, 330, 300, 480, 165, 54, 26, 27]
12.697[49, 336, 280, 574, 163, 53, 25, 26]
12.712[49, 339, 233, 626, 153, 50, 25, 28]
12.734[42, 235, 208, 612, 148, 46, 24, 29]
12.757[43, 225, 250, 607, 156, 48, 24, 27]
12.772[43, 187, 352, 721, 168, 52, 28, 28]
12.794[37, 164, 355, 677, 166, 53, 27, 27]
12.817[36, 164, 362, 628, 164, 50, 25, 25]
12.832[38, 177, 356, 673, 196, 63, 27, 26]
12.854[39, 202, 317, 645, 194, 64, 28, 28]
12.877[41, 191, 388, 563, 184, 60, 25, 28]
12.892[43, 203, 396, 534, 186, 62, 25, 29]
12.914[43, 214, 409, 506, 198, 65, 27, 28]
12.937[42, 216, 416, 482, 166, 56, 23, 24]
12.952[41, 243, 457, 572, 158, 55, 27, 23]
12.974[39, 250, 321, 594, 149, 55, 32, 24]
12.997[37, 244, 292, 618, 146, 56, 32, 23]
13.012[38, 256, 269, 648, 137, 55, 34, 25]
13.034[36, 245, 270, 607, 135, 54, 35, 26]
13.057[37, 199, 208, 555, 148, 61, 34, 27]
13.072[35, 237, 197, 504, 136, 59, 29, 24]
13.094[39, 237, 214, 472, 127, 57, 31, 27]
13.117[41, 218, 248, 459, 129, 61, 29, 26]
13.139[41, 226, 249, 444, 139, 62, 30, 26]
13.156[42, 224, 257, 461, 139, 59, 31, 28]
13.177[43, 166, 270, 479, 167, 62, 33, 29]
13.199[41, 174, 278, 558, 195, 65, 32, 27]
13.215[43, 239, 268, 546, 192, 61, 34, 27]
13.237[43, 242, 255, 562, 188, 59, 32, 27]
13.259[40, 245, 260, 518, 175, 54, 29, 25]
13.274[39, 287, 248, 544, 172, 57, 32, 25]
13.297[40, 309, 225, 478, 140, 52, 30, 25]
13.319[34, 257, 207, 566, 142, 52, 30, 28]
13.334[35, 244, 285, 552, 143, 54, 33, 32]
13.357[37, 238, 298, 571, 157, 61, 37, 35]
13.379[38, 184, 303, 501, 143, 60, 37, 36]
13.395[40, 138, 316, 597, 196, 69, 39, 37]
13.417[41, 169, 381, 564, 216, 75, 39, 37]
13.44[50, 223, 333, 609, 226, 80, 38, 37]
13.454[50, 229, 308, 618, 229, 79, 34, 35]
13.477[48, 233, 316, 643, 231, 76, 30, 34]
13.499[47, 232, 372, 592, 194, 67, 30, 33]
13.515[48, 225, 440, 554, 186, 63, 29, 29]
13.537[39, 185, 470, 531, 180, 61, 26, 27]
13.559[43, 185, 488, 524, 169, 61, 30, 29]
13.574[46, 181, 476, 528, 192, 66, 33, 30]
13.597[43, 172, 449, 472, 188, 67, 32, 30]
13.619[46, 182, 339, 578, 196, 68, 33, 34]
13.634[46, 199, 312, 588, 209, 70, 34, 32]
13.657[39, 202, 289, 618, 216, 72, 37, 31]
13.68[37, 214, 378, 613, 191, 66, 35, 31]
13.694[40, 227, 366, 627, 193, 67, 35, 31]
13.717[35, 206, 375, 680, 210, 81, 39, 31]
13.74[35, 185, 374, 662, 197, 82, 40, 33]
13.762[36, 193, 383, 707, 208, 80, 38, 33]
13.777[35, 218, 308, 748, 213, 82, 37, 30]
13.8[34, 208, 387, 773, 220, 85, 40, 29]
13.814[37, 238, 388, 639, 185, 69, 37, 30]
13.845[38, 237, 400, 638, 184, 61, 36, 30]
13.86[44, 228, 414, 574, 167, 59, 34, 31]
13.874[47, 193, 406, 503, 156, 53, 32, 35]
13.897[48, 200, 349, 551, 153, 49, 33, 36]
13.92[46, 208, 356, 567, 165, 52, 30, 34]
13.934[49, 245, 367, 608, 180, 54, 32, 34]
13.957[45, 262, 371, 646, 199, 62, 35, 32]
13.98[40, 263, 369, 661, 204, 68, 35, 28]
13.994[37, 267, 361, 614, 207, 70, 33, 26]
14.016[37, 261, 380, 594, 198, 69, 32, 27]
14.04[33, 256, 366, 532, 184, 71, 30, 27]
14.054[36, 244, 392, 501, 157, 62, 26, 27]
14.077[37, 254, 411, 501, 164, 63, 25, 27]
14.1[39, 248, 395, 549, 154, 60, 24, 27]
14.122[38, 227, 383, 560, 152, 54, 26, 26]
14.137[36, 200, 446, 582, 168, 60, 28, 24]
14.16[36, 213, 435, 611, 171, 59, 28, 22]
14.182[40, 221, 482, 608, 164, 57, 30, 25]
14.197[38, 220, 482, 554, 168, 58, 30, 27]
14.22[40, 204, 463, 556, 166, 59, 30, 25]
14.242[40, 207, 385, 520, 144, 51, 29, 26]
14.257[36, 210, 425, 461, 167, 55, 29, 27]
14.28[38, 227, 368, 495, 164, 53, 29, 28]
14.303[39, 226, 367, 497, 151, 53, 30, 27]
14.317[40, 226, 436, 493, 142, 50, 28, 27]
14.34[39, 244, 481, 509, 139, 47, 28, 28]
14.362[42, 268, 468, 555, 124, 49, 31, 28]
14.377[41, 238, 487, 530, 129, 51, 29, 29]
14.4[44, 274, 514, 511, 135, 51, 29, 29]
14.422[45, 276, 459, 547, 146, 57, 35, 34]
14.437[46, 266, 428, 594, 156, 60, 33, 33]
14.46[48, 257, 489, 605, 155, 57, 31, 34]
14.482[51, 264, 499, 650, 162, 56, 33, 33]
14.497[49, 238, 492, 659, 162, 56, 33, 33]
14.52[51, 258, 508, 658, 163, 58, 28, 29]
14.543[49, 240, 496, 686, 162, 57, 27, 29]
14.565[46, 221, 377, 737, 164, 57, 28, 28]
14.58[40, 213, 383, 739, 177, 66, 27, 25]
14.602[41, 206, 399, 761, 188, 67, 27, 30]
14.617[37, 194, 370, 767, 186, 64, 36, 31]
14.64[41, 197, 393, 744, 194, 68, 40, 34]
14.662[38, 171, 404, 762, 191, 68, 39, 34]
14.676[37, 187, 412, 721, 182, 65, 40, 36]
14.7[34, 198, 410, 687, 170, 62, 38, 33]
14.722[34, 200, 445, 686, 175, 63, 29, 32]
14.737[38, 217, 419, 765, 180, 59, 24, 36]
14.76[38, 218, 426, 664, 174, 56, 26, 35]
14.782[40, 201, 385, 664, 160, 53, 25, 33]
14.796[44, 209, 342, 668, 154, 54, 26, 34]
14.82[45, 206, 288, 652, 142, 50, 29, 34]
14.842[39, 190, 300, 582, 113, 47, 29, 28]
14.856[38, 182, 291, 589, 126, 46, 28, 28]
14.88[38, 171, 289, 636, 148, 53, 33, 28]
14.902[33, 138, 342, 661, 157, 53, 33, 29]
14.917[31, 128, 346, 672, 185, 63, 32, 28]
14.939[30, 130, 355, 627, 193, 66, 35, 28]
14.962[32, 146, 343, 645, 196, 72, 36, 29]
14.977[30, 149, 351, 609, 192, 68, 31, 32]
15.0[32, 189, 310, 650, 199, 70, 32, 32]
15.022[35, 232, 293, 614, 180, 65, 33, 30]
15.045[37, 241, 371, 638, 172, 63, 31, 30]
15.059[36, 235, 438, 590, 168, 57, 31, 31]
15.082[39, 251, 445, 570, 160, 56, 30, 26]
15.105[39, 241, 479, 496, 147, 51, 29, 26]
15.12[36, 229, 513, 499, 159, 52, 27, 27]
15.142[40, 266, 508, 452, 162, 51, 28, 30]
15.165[45, 309, 471, 485, 162, 51, 26, 28]
15.18[45, 302, 445, 543, 173, 51, 28, 33]
15.202[48, 307, 412, 544, 190, 56, 30, 32]
15.225[52, 297, 389, 555, 186, 55, 30, 35]
15.24[48, 253, 343, 560, 189, 58, 29, 33]
15.262[44, 202, 419, 582, 188, 61, 33, 37]
15.285[44, 214, 457, 569, 181, 61, 33, 36]
15.3[41, 188, 444, 644, 180, 66, 31, 35]
15.322[35, 166, 479, 670, 181, 66, 32, 33]
15.345[36, 210, 459, 734, 180, 67, 32, 33]
15.36[38, 237, 376, 684, 172, 65, 28, 30]
15.382[37, 236, 336, 660, 169, 68, 30, 29]
15.404[38, 230, 391, 582, 153, 65, 34, 32]
15.419[40, 251, 336, 601, 166, 70, 34, 30]
15.442[40, 239, 403, 618, 178, 66, 34, 29]
15.465[38, 215, 398, 694, 188, 65, 34, 29]
15.479[38, 205, 380, 683, 186, 59, 59, 53]
15.502[44, 239, 353, 724, 196, 58, 88, 74]
15.525[43, 229, 399, 745, 186, 52, 93, 82]
15.539[43, 219, 323, 657, 178, 56, 101, 92]
15.562[44, 231, 362, 662, 182, 57, 102, 92]
15.584[47, 223, 383, 688, 186, 58, 89, 79]
15.599[42, 231, 430, 663, 176, 53, 59, 61]
15.622[43, 230, 435, 610, 170, 53, 53, 54]
15.645[43, 246, 484, 638, 170, 54, 36, 36]
15.659[50, 235, 473, 555, 160, 55, 40, 37]
15.689[50, 258, 483, 512, 159, 57, 41, 37]
15.704[54, 309, 439, 497, 168, 62, 44, 38]
15.719[54, 319, 400, 458, 176, 63, 39, 31]
15.742[52, 298, 367, 485, 180, 64, 40, 35]
15.765[44, 295, 333, 476, 169, 61, 37, 33]
15.779[45, 307, 308, 522, 162, 57, 34, 35]
15.802[40, 226, 275, 530, 165, 58, 33, 34]
15.825[41, 224, 262, 582, 171, 58, 33, 34]
15.839[44, 235, 225, 557, 165, 55, 32, 30]
15.862[50, 258, 256, 591, 190, 67, 36, 33]
15.885[51, 242, 255, 584, 194, 67, 38, 34]
15.899[50, 250, 268, 606, 196, 67, 37, 38]
15.922[48, 228, 268, 577, 184, 64, 37, 39]
15.945[50, 264, 377, 552, 189, 68, 37, 40]
15.967[48, 268, 431, 535, 167, 58, 34, 38]
15.982[50, 268, 469, 588, 169, 56, 32, 35]
16.005[49, 255, 479, 556, 164, 52, 33, 32]
16.026[51, 263, 486, 519, 151, 50, 33, 37]
16.043[47, 222, 425, 554, 150, 49, 33, 36]
16.064[44, 202, 362, 553, 157, 51, 31, 35]
16.086[38, 186, 359, 494, 152, 54, 32, 34]
16.103[42, 201, 351, 495, 139, 52, 31, 33]
16.124[39, 206, 358, 532, 154, 58, 31, 27]
16.146[41, 198, 377, 542, 143, 54, 34, 34]
16.163[43, 188, 364, 522, 157, 55, 34, 34]
16.183[42, 220, 324, 525, 161, 60, 36, 37]
16.207[40, 215, 423, 548, 167, 61, 36, 40]
16.222[43, 198, 417, 529, 158, 57, 34, 40]
16.244[42, 198, 399, 507, 168, 55, 32, 37]
16.266[38, 200, 456, 494, 147, 52, 31, 37]
16.282[41, 189, 464, 485, 140, 45, 28, 34]
16.303[39, 176, 393, 551, 167, 57, 30, 33]
16.326[36, 197, 408, 570, 170, 57, 32, 35]
16.343[36, 196, 450, 555, 173, 60, 33, 33]
16.363[37, 203, 424, 580, 172, 58, 33, 35]
16.386[35, 221, 396, 583, 174, 60, 34, 34]
16.403[34, 227, 377, 480, 142, 50, 35, 34]
16.424[36, 207, 390, 550, 158, 57, 37, 34]
16.446[35, 211, 356, 606, 153, 64, 35, 32]
16.462[37, 205, 313, 587, 153, 66, 36, 33]
16.483[36, 179, 334, 554, 147, 64, 35, 33]
16.506[41, 175, 325, 552, 154, 70, 34, 33]
16.522[44, 179, 273, 481, 158, 71, 30, 33]
16.543[44, 211, 226, 435, 155, 63, 30, 33]
16.566[43, 211, 293, 485, 167, 65, 29, 31]
16.583[43, 218, 280, 547, 182, 70, 31, 29]
16.611[39, 228, 304, 579, 188, 66, 32, 33]
16.626[36, 261, 345, 630, 183, 67, 35, 34]
16.642[38, 244, 413, 599, 184, 67, 34, 35]
16.663[37, 259, 371, 591, 173, 66, 37, 36]
16.686[37, 235, 371, 538, 159, 60, 35, 37]
16.702[37, 218, 364, 558, 150, 59, 34, 32]
16.724[34, 169, 313, 504, 141, 53, 32, 26]
16.746[34, 221, 281, 550, 143, 54, 36, 29]
16.762[34, 223, 309, 541, 150, 57, 36, 29]
16.783[40, 262, 333, 649, 199, 66, 40, 34]
16.806[41, 266, 364, 603, 202, 67, 39, 36]
16.829[44, 297, 372, 605, 219, 71, 39, 39]
16.844[40, 269, 341, 563, 209, 69, 37, 38]
16.866[40, 248, 336, 618, 202, 65, 37, 39]
16.883[37, 217, 311, 522, 163, 55, 34, 37]
16.904[35, 215, 272, 542, 182, 53, 34, 33]
16.926[35, 191, 299, 514, 149, 46, 34, 32]
16.949[38, 164, 307, 555, 151, 48, 33, 31]
16.964[36, 162, 280, 473, 149, 46, 32, 28]
16.986[35, 179, 278, 457, 145, 51, 31, 24]
17.009[33, 177, 281, 457, 103, 48, 30, 25]
17.023[34, 178, 294, 434, 104, 46, 29, 24]
17.046[29, 177, 271, 366, 96, 43, 29, 24]
17.069[34, 172, 266, 339, 99, 43, 27, 23]
17.083[33, 139, 302, 435, 198, 65, 30, 26]
17.106[34, 179, 292, 494, 218, 71, 31, 24]
17.129[33, 173, 270, 560, 229, 72, 37, 28]
17.143[34, 184, 267, 615, 230, 75, 37, 30]
17.166[30, 187, 320, 737, 265, 83, 39, 32]
17.188[29, 188, 285, 722, 207, 66, 36, 32]
17.204[29, 160, 299, 710, 193, 60, 35, 33]
17.226[36, 193, 294, 718, 199, 64, 33, 31]
17.249[36, 194, 304, 761, 224, 68, 33, 30]
17.264[37, 198, 312, 676, 188, 62, 36, 32]
17.286[37, 201, 347, 644, 175, 64, 37, 31]
17.308[38, 234, 371, 619, 168, 62, 36, 29]
17.324[35, 220, 363, 587, 152, 57, 33, 29]
17.346[34, 240, 359, 506, 113, 49, 34, 28]
17.368[35, 240, 326, 515, 115, 49, 29, 26]
17.384[43, 242, 461, 593, 148, 55, 32, 35]
17.406[41, 203, 450, 626, 166, 61, 35, 36]
17.429[45, 192, 465, 629, 176, 67, 34, 36]
17.443[45, 171, 492, 617, 177, 68, 32, 36]
17.466[45, 173, 498, 606, 173, 68, 34, 36]
17.489[39, 190, 370, 516, 146, 61, 30, 27]
17.504[40, 214, 381, 562, 162, 63, 31, 26]
17.526[34, 209, 372, 566, 155, 59, 32, 26]
17.548[33, 196, 349, 568, 154, 56, 31, 25]
17.565[31, 191, 351, 612, 159, 51, 29, 25]
17.586[33, 180, 359, 662, 168, 56, 31, 25]
17.608[45, 164, 365, 576, 139, 50, 27, 25]
17.624[45, 146, 413, 580, 139, 49, 28, 27]
17.646[47, 166, 399, 577, 139, 53, 31, 28]
17.668[49, 187, 404, 525, 152, 56, 30, 28]
17.683[50, 217, 370, 456, 151, 52, 29, 28]
17.706[39, 243, 328, 441, 147, 48, 30, 28]
17.736[37, 252, 260, 492, 170, 49, 30, 25]
17.743[37, 261, 364, 480, 180, 48, 29, 26]
17.766[35, 265, 340, 509, 166, 46, 31, 27]
17.788[34, 262, 349, 529, 163, 43, 29, 27]
17.803[32, 254, 472, 588, 188, 56, 29, 27]
17.826[31, 252, 478, 502, 162, 55, 28, 27]
17.848[30, 236, 432, 526, 152, 53, 28, 26]
17.871[28, 236, 461, 503, 156, 53, 25, 24]
17.886[29, 219, 508, 526, 153, 56, 25, 23]
17.908[31, 225, 435, 535, 152, 49, 25, 25]
17.931[34, 234, 438, 539, 159, 50, 26, 27]
17.946[34, 234, 412, 515, 167, 52, 26, 27]
17.969[37, 234, 415, 502, 161, 54, 28, 27]
17.991[36, 233, 368, 535, 170, 51, 29, 28]
18.006[35, 217, 356, 449, 141, 46, 28, 26]
18.029[32, 219, 376, 428, 125, 43, 28, 25]
18.051[39, 238, 369, 419, 108, 41, 28, 25]
18.066[38, 230, 337, 514, 153, 47, 26, 23]
18.088[40, 237, 335, 463, 145, 47, 27, 28]
18.111[44, 244, 342, 507, 159, 53, 31, 29]
18.126[43, 226, 327, 664, 204, 62, 32, 28]
18.148[40, 208, 378, 689, 214, 68, 31, 29]
18.171[41, 198, 368, 626, 193, 67, 34, 30]
18.186[40, 188, 386, 625, 194, 71, 32, 25]
18.208[42, 184, 366, 621, 190, 70, 29, 26]
18.231[45, 201, 356, 477, 155, 62, 27, 25]
18.247[44, 195, 312, 432, 141, 56, 27, 26]
18.268[41, 188, 327, 394, 128, 53, 24, 25]
18.291[43, 179, 294, 537, 140, 47, 26, 27]
18.306[42, 153, 331, 538, 136, 43, 23, 26]
18.328[39, 139, 346, 511, 117, 42, 23, 27]
18.351[50, 124, 386, 536, 126, 46, 22, 25]
18.366[69, 135, 374, 588, 141, 50, 24, 32]
18.397[72, 175, 400, 524, 128, 54, 24, 29]
18.411[71, 205, 381, 509, 142, 59, 27, 29]
18.426[71, 237, 429, 558, 152, 59, 30, 34]
18.448[64, 240, 391, 563, 153, 59, 31, 33]
18.472[45, 258, 390, 698, 182, 69, 34, 30]
18.486[42, 234, 383, 672, 192, 68, 35, 31]
18.509[41, 206, 387, 679, 183, 67, 36, 33]
18.531[41, 171, 305, 660, 189, 75, 37, 32]
18.554[42, 177, 385, 674, 189, 75, 38, 31]
18.568[44, 186, 388, 483, 148, 61, 36, 31]
18.591[39, 190, 375, 441, 128, 58, 33, 30]
18.605[39, 196, 337, 445, 144, 61, 32, 28]
18.628[38, 189, 329, 421, 130, 53, 29, 25]
18.651[36, 183, 246, 441, 137, 60, 29, 27]
18.666[32, 176, 343, 536, 153, 61, 28, 26]
18.688[33, 169, 378, 538, 156, 65, 36, 30]
18.711[31, 160, 377, 567, 146, 60, 36, 29]
18.726[33, 171, 450, 643, 150, 61, 37, 31]
18.748[34, 187, 467, 647, 141, 52, 42, 34]
18.779[40, 192, 403, 583, 138, 53, 43, 33]
18.794[38, 196, 383, 576, 136, 50, 36, 30]
18.808[41, 205, 407, 610, 171, 54, 38, 31]
18.831[43, 213, 324, 572, 177, 56, 39, 32]
18.861[44, 245, 286, 527, 177, 57, 32, 27]
18.868[39, 225, 303, 543, 170, 54, 31, 28]
18.891[41, 229, 335, 687, 225, 68, 30, 29]
18.914[40, 245, 311, 619, 195, 64, 27, 28]
18.928[33, 235, 349, 621, 188, 58, 22, 23]
18.951[36, 208, 376, 627, 193, 62, 21, 24]
18.981[37, 193, 352, 657, 199, 67, 25, 26]
18.988[37, 198, 358, 556, 143, 55, 25, 24]
19.011[35, 180, 381, 594, 158, 56, 25, 22]
19.034[37, 203, 409, 642, 165, 60, 27, 26]
19.048[34, 204, 383, 637, 159, 56, 28, 27]
19.071[39, 211, 435, 639, 156, 50, 25, 25]
19.094[37, 218, 415, 602, 157, 53, 25, 27]
19.108[37, 218, 403, 685, 169, 60, 26, 27]
19.131[39, 197, 355, 712, 176, 58, 28, 25]
19.154[37, 170, 361, 703, 180, 58, 28, 24]
19.168[31, 159, 318, 661, 177, 58, 27, 26]
19.19[33, 143, 263, 687, 185, 56, 29, 26]
19.214[32, 173, 266, 562, 160, 46, 26, 25]
19.228[31, 177, 283, 439, 165, 49, 25, 26]
19.259[32, 177, 309, 554, 167, 51, 26, 26]
19.274[34, 191, 288, 597, 171, 51, 29, 23]
19.288[35, 191, 312, 560, 160, 48, 27, 23]
19.311[36, 166, 342, 639, 165, 53, 28, 25]
19.333[37, 192, 322, 628, 147, 52, 28, 26]
19.348[37, 223, 328, 535, 143, 52, 30, 30]
19.371[34, 236, 339, 510, 139, 55, 30, 31]
19.394[35, 248, 376, 598, 150, 65, 34, 31]
19.408[36, 258, 360, 534, 160, 65, 35, 30]
19.431[34, 241, 361, 575, 168, 67, 34, 30]
19.454[35, 222, 328, 578, 167, 69, 31, 27]
19.468[36, 195, 341, 635, 196, 76, 30, 27]
19.491[33, 182, 293, 554, 184, 68, 30, 29]
19.514[30, 200, 282, 590, 178, 65, 31, 31]
19.537[32, 221, 278, 546, 169, 63, 32, 29]
19.551[29, 219, 287, 528, 165, 61, 33, 28]
19.574[30, 218, 253, 457, 127, 49, 32, 29]
19.588[28, 205, 228, 433, 119, 47, 27, 25]
19.611[28, 156, 180, 317, 96, 42, 24, 23]
19.634[24, 99, 151, 284, 83, 37, 24, 23]
19.648[24, 79, 96, 265, 73, 30, 23, 24]
19.672[20, 66, 88, 136, 46, 25, 20, 20]
19.694[20, 41, 94, 97, 41, 23, 22, 20]
19.708[18, 38, 101, 82, 39, 23, 22, 19]
19.73[28, 45, 203, 74, 40, 21, 21, 34]
19.754[95, 57, 225, 72, 37, 24, 22, 72]
19.776[106, 57, 232, 70, 35, 21, 22, 82]
19.79[116, 58, 244, 69, 37, 24, 23, 87]
19.813[117, 59, 253, 67, 34, 23, 24, 90]
19.836[115, 51, 223, 55, 28, 26, 25, 87]
19.85[72, 34, 203, 44, 22, 22, 22, 60]
19.874[55, 32, 192, 40, 23, 24, 22, 46]
19.896[32, 26, 171, 35, 22, 21, 21, 37]
19.91[27, 24, 152, 30, 24, 22, 20, 29]
19.933[26, 20, 72, 23, 22, 19, 18, 24]
19.957[25, 22, 56, 22, 22, 20, 19, 22]
19.971[23, 24, 43, 20, 22, 19, 19, 22]
19.994[20, 24, 38, 18, 21, 19, 18, 18]
20.016[19, 26, 30, 18, 19, 19, 19, 18]
20.031[19, 25, 26, 18, 19, 21, 19, 18]
20.054[19, 20, 25, 19, 22, 22, 20, 17]
20.076[20, 18, 22, 20, 21, 22, 20, 19]
20.091[21, 20, 22, 21, 22, 21, 23, 21]
20.114[21, 18, 23, 21, 23, 20, 22, 19]
20.136[21, 17, 21, 21, 23, 17, 23, 20]
20.151[20, 18, 20, 20, 20, 17, 23, 21]
20.173[19, 19, 21, 19, 21, 17, 22, 20]
20.196[20, 17, 20, 19, 20, 17, 22, 19]
20.211[20, 19, 19, 20, 20, 18, 22, 20]
20.234[19, 20, 21, 20, 20, 17, 20, 20]
20.257[20, 20, 22, 22, 22, 19, 19, 19]
20.27[20, 21, 21, 21, 21, 19, 19, 19]
20.294[17, 21, 21, 21, 22, 20, 18, 19]
20.316[17, 19, 23, 20, 20, 18, 18, 19]
20.331[17, 19, 21, 20, 20, 20, 19, 19]
20.353[18, 21, 20, 18, 18, 19, 20, 19]
20.376[19, 19, 21, 20, 19, 18, 20, 21]
20.399[19, 23, 19, 18, 18, 18, 20, 24]
20.413[19, 24, 17, 18, 19, 19, 20, 25]
20.436[19, 23, 18, 17, 19, 17, 18, 24]
20.45[18, 21, 19, 23, 20, 18, 19, 23]
20.475[18, 21, 21, 22, 19, 19, 19, 21]
20.496[20, 20, 22, 24, 19, 18, 17, 17]
20.51[21, 20, 20, 25, 19, 17, 18, 18]
20.533[20, 21, 20, 25, 20, 20, 18, 17]
20.556[22, 21, 20, 21, 20, 21, 18, 17]
20.57[22, 21, 20, 21, 19, 22, 18, 20]
20.593[20, 22, 19, 21, 19, 22, 19, 19]
20.616[18, 20, 19, 20, 20, 22, 20, 19]
20.63[20, 22, 20, 20, 19, 22, 20, 20]
20.653[18, 22, 18, 21, 20, 21, 20, 18]
20.677[17, 23, 18, 20, 22, 20, 20, 18]
20.698[18, 20, 18, 19, 22, 20, 20, 20]
20.713[20, 21, 19, 20, 21, 20, 20, 19]
20.736[18, 20, 18, 19, 22, 20, 19, 18]
20.758[17, 20, 21, 20, 22, 19, 19, 19]
20.773[17, 19, 20, 19, 22, 21, 19, 17]
20.796[18, 20, 21, 20, 23, 21, 19, 15]
20.818[16, 21, 20, 19, 24, 23, 19, 15]
20.833[19, 19, 22, 19, 25, 22, 20, 16]
20.856[22, 19, 21, 17, 25, 22, 20, 17]
20.879[23, 20, 20, 20, 24, 21, 20, 18]
20.893[22, 20, 20, 20, 24, 21, 19, 20]
20.916[24, 19, 20, 18, 21, 18, 19, 21]
20.938[22, 21, 20, 19, 20, 18, 20, 22]
20.953[20, 20, 21, 18, 19, 19, 20, 23]
20.976[19, 20, 21, 16, 16, 19, 20, 22]
21.006[20, 21, 22, 17, 17, 18, 22, 22]
21.013[19, 21, 23, 17, 18, 19, 21, 21]
21.037[17, 19, 22, 19, 19, 20, 22, 20]
21.058[19, 20, 21, 19, 19, 20, 23, 19]
21.081[19, 22, 22, 22, 21, 21, 23, 19]
21.095[18, 21, 19, 23, 19, 21, 22, 19]
21.118[19, 21, 17, 23, 20, 19, 23, 19]
21.134[21, 22, 18, 23, 20, 21, 21, 19]
21.155[24, 21, 19, 22, 21, 19, 20, 19]
21.177[24, 20, 17, 19, 20, 19, 18, 19]
21.2[24, 20, 18, 16, 21, 19, 18, 20]
21.216[23, 21, 20, 17, 18, 21, 17, 20]
21.237[22, 21, 19, 17, 17, 19, 16, 20]
21.254[18, 20, 19, 18, 16, 19, 17, 20]
21.276[17, 19, 20, 19, 16, 19, 18, 20]
21.298[18, 19, 18, 20, 16, 19, 21, 19]
21.314[19, 20, 20, 18, 19, 21, 21, 19]
21.337[19, 24, 19, 19, 19, 21, 24, 18]
21.358[19, 25, 20, 19, 20, 21, 22, 17]
21.374[18, 26, 20, 22, 20, 21, 23, 17]
21.395[20, 26, 21, 21, 20, 21, 21, 19]
21.418[20, 24, 18, 22, 19, 18, 21, 20]
21.434[20, 19, 18, 21, 19, 20, 19, 20]
21.456[20, 19, 19, 21, 19, 20, 20, 21]
21.479[21, 20, 20, 19, 20, 21, 20, 22]
21.494[18, 20, 20, 19, 19, 19, 19, 21]
21.515[17, 24, 23, 19, 20, 20, 19, 20]
21.538[17, 23, 25, 20, 19, 18, 19, 20]
21.554[18, 22, 24, 20, 20, 19, 18, 19]
21.575[18, 22, 23, 18, 19, 18, 19, 20]
21.598[19, 21, 24, 22, 20, 18, 18, 20]
21.614[19, 19, 22, 23, 19, 18, 19, 21]
21.635[19, 19, 21, 23, 19, 16, 20, 22]
21.658[19, 21, 21, 22, 19, 15, 19, 23]
21.68[20, 21, 20, 23, 18, 14, 18, 22]
21.695[19, 22, 20, 21, 19, 15, 18, 21]
21.717[19, 22, 20, 20, 21, 17, 15, 20]
21.741[19, 23, 22, 18, 21, 18, 14, 18]
21.756[20, 21, 21, 20, 20, 18, 12, 17]
21.777[20, 23, 25, 18, 21, 19, 15, 16]
21.8[20, 23, 24, 16, 20, 19, 15, 17]
21.815[19, 22, 25, 17, 19, 18, 14, 17]
21.838[21, 22, 22, 17, 20, 18, 16, 17]
21.86[21, 21, 24, 17, 19, 20, 19, 18]
21.875[20, 18, 20, 17, 20, 20, 18, 18]
21.905[19, 18, 21, 19, 20, 20, 18, 19]
21.92[22, 18, 21, 20, 19, 21, 20, 20]
21.942[21, 20, 20, 20, 20, 22, 20, 19]
21.957[21, 20, 19, 18, 21, 19, 19, 20]
21.98[20, 21, 19, 20, 22, 19, 20, 19]
21.995[23, 20, 20, 20, 20, 21, 21, 19]
22.017[20, 20, 19, 18, 21, 19, 20, 19]
22.04[21, 22, 21, 20, 22, 19, 20, 18]
22.055[21, 21, 22, 21, 22, 22, 20, 18]
22.077[22, 22, 24, 20, 20, 22, 20, 18]
22.1[20, 22, 23, 18, 22, 21, 19, 18]
22.115[22, 23, 23, 19, 21, 21, 18, 19]
22.139[21, 21, 23, 20, 17, 21, 16, 18]
22.16[20, 22, 20, 20, 19, 19, 17, 18]
22.175[18, 20, 18, 21, 19, 19, 18, 19]
22.198[18, 22, 18, 21, 17, 19, 17, 20]
22.22[16, 21, 19, 21, 16, 18, 18, 19]
22.235[17, 22, 17, 21, 17, 17, 19, 19]
22.257[18, 23, 19, 20, 14, 19, 19, 19]
22.28[21, 24, 20, 20, 17, 18, 17, 17]
22.295[22, 24, 23, 21, 18, 18, 18, 16]
22.318[22, 23, 24, 21, 18, 18, 22, 17]
22.341[21, 22, 24, 20, 19, 17, 21, 18]
22.355[20, 23, 25, 21, 20, 16, 21, 18]
22.377[18, 21, 25, 21, 19, 16, 21, 20]
22.4[17, 20, 22, 20, 19, 17, 21, 20]
22.415[17, 21, 21, 19, 19, 18, 19, 20]
22.437[18, 22, 22, 20, 20, 18, 20, 19]
22.46[18, 20, 21, 21, 20, 18, 20, 21]
22.475[18, 21, 20, 20, 20, 18, 22, 19]
22.497[20, 22, 20, 20, 21, 18, 22, 19]
22.52[20, 22, 21, 20, 22, 17, 22, 20]
22.535[20, 21, 18, 19, 22, 19, 20, 20]
22.557[23, 19, 20, 20, 21, 18, 20, 19]
22.58[22, 20, 20, 21, 21, 17, 18, 20]
22.603[20, 18, 22, 20, 21, 17, 18, 21]
22.617[20, 17, 23, 22, 21, 16, 19, 18]
22.64[20, 17, 27, 23, 20, 15, 19, 19]
22.663[17, 20, 25, 21, 20, 19, 18, 19]
22.677[19, 19, 25, 20, 20, 21, 20, 18]
22.7[21, 21, 24, 21, 20, 20, 21, 19]
22.722[22, 20, 23, 19, 19, 21, 19, 19]
22.737[22, 21, 20, 18, 20, 22, 21, 20]
22.76[22, 22, 19, 17, 20, 19, 22, 19]
22.782[22, 23, 19, 18, 20, 19, 21, 20]
22.797[19, 22, 20, 18, 19, 20, 19, 18]
22.82[19, 23, 20, 19, 18, 19, 20, 18]
22.842[22, 23, 20, 19, 20, 19, 17, 17]
22.857[20, 22, 20, 20, 20, 20, 16, 18]
22.88[20, 22, 22, 20, 19, 19, 18, 19]
22.902[20, 21, 20, 20, 20, 18, 18, 19]
22.917[20, 22, 20, 20, 20, 19, 19, 18]
22.94[21, 23, 19, 19, 19, 18, 19, 18]
22.962[22, 20, 19, 19, 18, 23, 19, 18]
22.977[23, 21, 18, 18, 20, 22, 21, 19]
23.0[23, 23, 19, 19, 20, 23, 20, 18]
23.022[24, 23, 19, 17, 20, 22, 19, 20]
23.037[21, 24, 21, 17, 20, 25, 20, 21]
23.06[20, 25, 20, 18, 21, 20, 19, 21]
23.083[18, 23, 20, 19, 22, 21, 17, 19]
23.097[18, 23, 19, 18, 21, 19, 19, 20]
23.12[17, 21, 20, 18, 22, 20, 18, 20]
23.142[19, 20, 19, 18, 21, 19, 18, 21]
23.165[20, 20, 20, 18, 21, 20, 20, 21]
23.18[19, 22, 21, 17, 20, 20, 21, 23]
23.202[19, 20, 20, 18, 21, 20, 19, 22]
23.217[20, 21, 20, 19, 20, 21, 20, 20]
23.24[18, 20, 19, 19, 20, 21, 20, 19]
23.262[17, 20, 19, 18, 20, 21, 18, 19]
23.277[17, 18, 18, 17, 21, 21, 17, 18]
23.3[18, 19, 21, 16, 22, 21, 19, 19]
23.322[16, 20, 21, 17, 22, 20, 17, 20]
23.338[14, 20, 22, 16, 22, 19, 19, 21]
23.361[17, 22, 24, 16, 21, 18, 20, 24]
23.382[20, 24, 26, 19, 20, 18, 21, 21]
23.397[20, 23, 25, 20, 19, 19, 21, 22]
23.42[23, 21, 24, 19, 17, 18, 22, 22]
23.442[23, 20, 25, 22, 19, 19, 21, 21]
23.457[22, 18, 24, 21, 20, 19, 20, 18]
23.48[19, 15, 22, 20, 20, 19, 17, 19]
23.502[19, 16, 22, 20, 20, 15, 20, 20]
23.517[17, 17, 23, 21, 21, 16, 18, 21]
23.539[19, 19, 21, 19, 23, 15, 17, 19]
23.562[19, 18, 21, 22, 24, 16, 17, 19]
23.585[21, 21, 22, 22, 23, 18, 18, 21]
23.608[20, 21, 22, 21, 23, 19, 17, 20]
23.622[20, 21, 21, 21, 23, 19, 18, 20]
23.645[18, 20, 22, 20, 21, 18, 20, 20]
23.66[18, 23, 21, 19, 21, 19, 22, 20]
23.682[18, 21, 20, 19, 21, 18, 21, 19]
23.706[20, 20, 21, 19, 22, 20, 20, 21]
23.72[20, 20, 21, 18, 22, 19, 20, 20]
23.742[20, 22, 19, 18, 20, 20, 21, 20]
23.765[20, 21, 20, 16, 19, 20, 19, 22]
23.779[20, 20, 21, 17, 21, 21, 20, 20]
23.802[17, 21, 22, 17, 20, 20, 20, 19]
23.825[17, 21, 21, 17, 22, 21, 21, 19]
23.84[18, 19, 21, 19, 22, 21, 18, 19]
23.862[19, 20, 21, 19, 22, 21, 19, 17]
23.887[20, 22, 21, 18, 20, 18, 17, 19]
23.9[21, 21, 19, 18, 19, 18, 18, 20]
23.922[21, 21, 20, 17, 19, 19, 18, 21]
23.945[22, 21, 20, 16, 20, 18, 18, 23]
23.96[22, 22, 23, 17, 20, 18, 18, 22]
23.982[20, 23, 21, 18, 22, 19, 19, 21]
24.006[23, 23, 21, 18, 21, 20, 19, 18]
24.02[21, 23, 22, 18, 20, 17, 18, 18]
24.042[22, 24, 22, 17, 19, 18, 18, 16]
24.065[21, 23, 20, 17, 19, 18, 17, 18]
24.08[22, 22, 21, 17, 17, 20, 17, 20]
24.102[20, 22, 21, 16, 19, 19, 16, 20]
24.125[21, 23, 19, 15, 18, 20, 15, 20]
24.14[19, 20, 19, 16, 19, 21, 17, 20]
24.162[20, 21, 20, 17, 19, 21, 18, 21]
24.185[19, 19, 21, 17, 20, 21, 18, 20]
24.2[18, 20, 21, 18, 20, 23, 17, 21]
24.222[17, 20, 22, 19, 21, 22, 20, 21]
24.245[17, 20, 21, 22, 21, 20, 20, 23]
24.26[19, 18, 23, 22, 21, 21, 20, 20]
24.283[18, 18, 24, 20, 23, 19, 20, 21]
24.305[21, 19, 23, 21, 22, 17, 21, 21]
24.32[23, 19, 24, 22, 23, 18, 19, 20]
24.342[22, 18, 25, 19, 22, 19, 18, 20]
24.365[21, 19, 23, 18, 21, 18, 18, 21]
24.38[22, 21, 20, 21, 19, 20, 20, 20]
24.402[19, 19, 22, 21, 21, 21, 20, 20]
24.425[18, 20, 20, 20, 20, 21, 19, 20]
24.439[23, 20, 20, 19, 21, 20, 18, 19]
24.462[22, 19, 21, 21, 21, 19, 20, 18]
24.485[22, 17, 23, 18, 23, 18, 18, 19]
24.508[23, 18, 21, 17, 20, 16, 17, 21]
24.522[25, 18, 21, 19, 20, 18, 18, 21]
24.545[21, 19, 18, 20, 20, 17, 18, 20]
24.568[21, 20, 21, 20, 23, 19, 16, 23]
24.582[22, 24, 19, 19, 22, 20, 17, 21]
24.606[21, 24, 19, 19, 23, 21, 18, 21]
24.628[19, 23, 20, 18, 23, 22, 17, 22]
24.642[20, 23, 20, 18, 23, 22, 17, 22]
24.665[22, 22, 18, 17, 21, 21, 17, 19]
24.688[21, 20, 17, 16, 21, 22, 17, 19]
24.702[21, 18, 19, 17, 21, 22, 17, 21]
24.726[22, 19, 18, 18, 20, 18, 18, 19]
24.748[22, 19, 21, 17, 19, 19, 19, 18]
24.763[20, 19, 21, 18, 17, 20, 19, 21]
24.785[21, 20, 21, 18, 17, 17, 19, 21]
24.808[20, 22, 20, 18, 19, 18, 19, 19]
24.823[20, 21, 19, 17, 18, 19, 18, 19]
24.845[20, 20, 18, 19, 17, 19, 18, 20]
24.868[19, 22, 17, 18, 18, 18, 17, 20]
24.882[18, 21, 19, 19, 18, 18, 19, 20]
24.905[17, 19, 21, 19, 19, 17, 18, 19]
24.928[19, 19, 22, 20, 20, 19, 19, 20]
24.943[17, 21, 22, 19, 20, 20, 20, 19]
24.965[19, 19, 23, 21, 20, 19, 22, 18]
24.995[19, 19, 22, 21, 19, 22, 19, 19]
25.002[20, 19, 22, 20, 17, 22, 22, 19]
25.026[19, 22, 22, 19, 18, 21, 20, 19]
25.048[21, 20, 22, 20, 20, 21, 20, 20]
25.062[21, 21, 23, 20, 21, 22, 20, 20]
25.085[21, 20, 23, 20, 22, 22, 21, 19]
25.108[24, 19, 23, 20, 22, 22, 18, 19]
25.122[24, 18, 24, 19, 21, 22, 19, 18]
25.145[23, 19, 23, 18, 22, 22, 19, 19]
25.168[24, 18, 21, 18, 22, 21, 18, 20]
25.182[24, 21, 20, 19, 22, 20, 19, 20]
25.206[22, 22, 20, 18, 21, 18, 19, 20]
25.228[19, 21, 19, 18, 22, 20, 19, 20]
25.242[20, 21, 20, 18, 20, 19, 20, 19]
25.265[20, 21, 22, 18, 21, 20, 19, 18]
25.288[20, 19, 22, 18, 19, 19, 18, 18]
25.302[22, 19, 22, 19, 20, 21, 20, 18]
25.326[24, 21, 24, 20, 20, 19, 20, 19]
25.348[23, 21, 23, 20, 21, 21, 17, 20]
25.37[23, 21, 23, 20, 19, 21, 21, 19]
25.393[23, 20, 20, 21, 18, 21, 21, 19]
25.408[21, 19, 21, 20, 20, 22, 19, 19]
25.43[20, 18, 20, 19, 19, 22, 22, 18]
25.445[19, 19, 20, 20, 18, 23, 22, 19]
25.468[20, 21, 20, 20, 20, 22, 20, 20]
25.49[20, 21, 22, 19, 20, 23, 19, 20]
25.505[21, 23, 21, 19, 19, 23, 20, 21]
25.528[20, 22, 21, 20, 20, 23, 17, 21]
25.55[23, 23, 21, 19, 21, 23, 18, 23]
25.565[20, 22, 19, 18, 20, 21, 18, 21]
25.588[20, 22, 18, 19, 20, 21, 18, 23]
25.61[19, 21, 20, 22, 18, 20, 19, 21]
25.625[19, 22, 21, 20, 18, 19, 19, 23]
25.648[18, 21, 20, 20, 16, 20, 20, 20]
25.67[18, 20, 21, 20, 18, 20, 21, 21]
25.685[18, 20, 23, 19, 19, 18, 21, 21]
25.708[19, 20, 22, 18, 20, 20, 20, 22]
25.73[21, 19, 21, 20, 20, 19, 20, 21]
25.745[21, 18, 21, 20, 20, 17, 18, 21]
25.768[22, 21, 22, 20, 20, 20, 18, 22]
25.79[22, 21, 21, 20, 20, 19, 17, 20]
25.805[21, 20, 22, 20, 18, 18, 21, 20]
25.828[21, 20, 21, 20, 19, 20, 21, 22]
25.85[19, 20, 21, 18, 18, 21, 22, 21]
25.865[19, 19, 21, 18, 19, 21, 21, 20]
25.887[20, 19, 20, 17, 18, 21, 23, 21]
25.91[21, 21, 22, 17, 18, 22, 20, 21]
25.925[20, 21, 22, 18, 19, 20, 20, 19]
25.948[20, 22, 24, 21, 19, 20, 20, 20]
25.97[21, 22, 22, 20, 18, 21, 20, 21]
25.984[20, 21, 23, 20, 19, 20, 20, 20]
26.007[21, 21, 21, 19, 19, 22, 20, 21]
26.031[19, 19, 20, 18, 19, 23, 21, 20]
26.052[18, 19, 18, 18, 20, 23, 20, 20]
26.068[18, 18, 19, 19, 20, 24, 21, 19]
26.089[19, 20, 20, 19, 19, 25, 20, 19]
26.112[18, 19, 18, 19, 21, 24, 20, 18]
26.134[21, 20, 18, 19, 19, 23, 20, 18]
26.149[22, 21, 20, 17, 19, 23, 20, 22]
26.172[21, 22, 19, 17, 18, 20, 19, 20]
26.188[19, 19, 18, 19, 19, 21, 20, 20]
26.209[19, 23, 21, 18, 17, 20, 21, 20]
26.233[17, 23, 21, 18, 17, 20, 20, 20]
26.248[18, 21, 20, 18, 17, 20, 21, 18]
26.269[17, 19, 22, 18, 17, 20, 20, 19]
26.292[18, 23, 23, 18, 18, 20, 21, 20]
26.308[19, 20, 20, 17, 19, 20, 20, 19]
26.329[18, 20, 21, 20, 18, 20, 19, 19]
26.346[17, 20, 22, 20, 17, 20, 19, 21]
26.368[21, 23, 21, 21, 19, 20, 18, 20]
26.389[20, 20, 18, 21, 18, 19, 19, 20]
26.412[20, 19, 21, 21, 18, 21, 18, 20]
26.428[22, 20, 21, 17, 17, 20, 19, 21]
26.449[21, 20, 21, 18, 19, 19, 18, 18]
26.472[19, 18, 21, 20, 19, 19, 21, 18]
26.488[20, 18, 23, 20, 19, 19, 19, 18]
26.509[21, 19, 20, 21, 19, 18, 19, 19]
26.539[21, 18, 22, 22, 21, 18, 20, 19]
26.548[20, 18, 24, 21, 22, 19, 19, 19]
26.569[19, 18, 23, 20, 22, 20, 19, 19]
26.592[18, 19, 22, 19, 23, 19, 20, 19]
26.607[17, 19, 23, 19, 25, 19, 19, 18]
26.629[17, 21, 22, 18, 23, 19, 19, 17]
26.652[16, 22, 20, 16, 21, 19, 19, 17]
26.667[18, 25, 23, 15, 21, 18, 19, 17]
26.689[20, 28, 23, 16, 21, 19, 19, 17]
26.712[21, 28, 24, 15, 19, 19, 21, 18]
26.727[21, 26, 24, 17, 19, 19, 20, 18]
26.749[22, 27, 24, 17, 19, 18, 22, 18]
26.772[20, 24, 20, 18, 20, 19, 20, 19]
26.787[19, 21, 22, 19, 19, 19, 19, 21]
26.809[19, 22, 22, 19, 19, 16, 18, 20]
26.832[22, 21, 21, 19, 19, 17, 19, 21]
26.846[21, 20, 22, 19, 21, 17, 17, 21]
26.869[21, 19, 22, 19, 20, 19, 15, 22]
26.892[21, 20, 19, 19, 21, 19, 17, 20]
26.907[21, 19, 18, 18, 24, 22, 16, 21]
26.929[18, 18, 21, 18, 23, 22, 16, 22]
26.951[19, 18, 21, 19, 21, 24, 15, 22]
26.966[18, 18, 20, 19, 21, 22, 18, 22]
26.989[19, 18, 22, 17, 20, 22, 17, 22]
27.013[18, 18, 21, 20, 16, 20, 17, 22]
27.026[18, 19, 20, 21, 17, 18, 17, 20]
27.049[19, 20, 24, 20, 18, 17, 18, 22]
27.071[20, 22, 24, 22, 20, 19, 16, 22]
27.087[20, 21, 23, 21, 21, 19, 16, 22]
27.109[20, 21, 25, 20, 21, 21, 17, 20]
27.132[20, 22, 24, 20, 22, 22, 17, 21]
27.154[19, 22, 19, 20, 20, 23, 16, 20]
27.169[19, 20, 20, 16, 19, 22, 17, 19]
27.192[20, 21, 21, 18, 20, 22, 17, 19]
27.207[19, 22, 20, 20, 21, 21, 16, 19]
27.229[20, 21, 21, 22, 20, 19, 17, 19]
27.251[18, 20, 24, 24, 22, 18, 18, 20]
27.267[19, 20, 22, 24, 19, 18, 17, 20]
27.289[17, 19, 22, 26, 20, 17, 17, 19]
27.311[18, 19, 22, 23, 20, 17, 18, 19]
27.334[17, 18, 22, 24, 20, 18, 20, 18]
27.349[19, 20, 20, 21, 20, 17, 19, 17]
27.381[19, 21, 21, 21, 21, 17, 19, 16]
27.394[19, 20, 22, 19, 18, 19, 21, 18]
27.409[18, 20, 19, 18, 18, 20, 20, 20]
27.431[18, 20, 20, 15, 18, 19, 19, 20]
27.455[19, 18, 22, 16, 18, 21, 20, 20]
27.469[18, 17, 21, 16, 19, 20, 19, 19]
27.492[19, 19, 19, 18, 20, 20, 19, 19]
27.514[17, 19, 21, 20, 20, 20, 19, 17]
27.529[16, 18, 22, 23, 22, 20, 18, 19]
27.552[16, 21, 23, 22, 21, 21, 19, 20]
27.574[17, 23, 23, 23, 22, 21, 19, 22]
27.589[16, 22, 25, 22, 21, 19, 20, 22]
27.612[19, 22, 24, 20, 20, 19, 19, 22]
27.634[18, 21, 24, 19, 19, 20, 19, 22]
27.65[19, 19, 21, 20, 20, 18, 18, 20]
27.671[18, 17, 22, 18, 18, 19, 19, 19]
27.694[18, 18, 20, 20, 19, 21, 21, 20]
27.71[17, 18, 19, 21, 20, 20, 21, 21]
27.732[18, 20, 17, 20, 19, 20, 20, 21]
27.754[19, 20, 17, 19, 19, 19, 22, 22]
27.769[21, 21, 18, 20, 19, 23, 22, 22]
27.792[23, 21, 20, 18, 18, 21, 19, 19]
27.814[24, 21, 21, 18, 17, 22, 21, 20]
27.829[23, 20, 22, 18, 19, 22, 20, 18]
27.851[23, 22, 21, 18, 19, 22, 21, 19]
27.874[20, 23, 21, 18, 19, 17, 20, 20]
27.896[22, 20, 19, 18, 20, 17, 20, 20]
27.912[21, 22, 20, 20, 19, 16, 18, 20]
27.934[22, 25, 18, 18, 18, 16, 19, 19]
27.949[21, 22, 17, 18, 17, 16, 15, 18]
27.972[22, 23, 20, 17, 17, 18, 16, 18]
27.994[20, 23, 21, 17, 17, 20, 17, 18]
28.009[20, 22, 20, 17, 18, 19, 19, 18]
28.031[20, 22, 21, 19, 18, 19, 19, 19]
28.054[20, 24, 23, 17, 20, 19, 20, 20]
28.07[19, 24, 18, 19, 19, 16, 22, 20]
28.091[19, 24, 21, 18, 21, 15, 22, 21]
28.114[20, 24, 21, 19, 20, 16, 20, 21]
28.13[18, 23, 23, 19, 22, 16, 20, 21]
28.151[19, 22, 22, 20, 21, 17, 19, 22]
28.174[19, 22, 23, 20, 23, 19, 17, 20]
28.189[18, 21, 22, 21, 22, 19, 17, 20]
28.211[17, 21, 24, 21, 23, 19, 16, 20]
28.234[19, 21, 22, 21, 22, 19, 16, 21]
28.249[21, 20, 22, 22, 22, 19, 18, 19]
28.271[20, 21, 23, 21, 21, 18, 18, 21]
28.294[20, 23, 21, 23, 22, 17, 18, 20]
28.317[20, 21, 20, 22, 21, 19, 18, 19]
28.331[20, 21, 19, 21, 20, 21, 17, 18]
28.354[17, 21, 21, 20, 19, 20, 20, 18]
28.377[19, 19, 19, 19, 17, 20, 22, 16]
28.391[20, 18, 19, 17, 15, 20, 21, 15]
28.414[21, 21, 18, 15, 15, 20, 23, 16]
28.436[21, 21, 19, 17, 17, 18, 25, 15]
28.451[22, 23, 21, 17, 17, 21, 22, 13]
28.482[22, 24, 23, 19, 20, 22, 19, 16]
28.497[22, 23, 24, 19, 22, 21, 20, 17]
28.511[21, 21, 25, 19, 24, 22, 19, 16]
28.534[20, 22, 25, 20, 24, 22, 17, 17]
28.557[19, 21, 22, 19, 24, 19, 17, 19]
28.571[22, 20, 24, 19, 24, 18, 18, 18]
28.594[21, 22, 24, 20, 22, 19, 18, 17]
28.617[22, 22, 24, 21, 20, 17, 19, 19]
28.631[23, 21, 22, 19, 19, 18, 21, 21]
28.654[22, 22, 23, 20, 19, 21, 21, 19]
28.677[18, 24, 20, 19, 17, 20, 22, 18]
28.691[20, 25, 20, 20, 17, 20, 22, 21]
28.714[19, 24, 20, 20, 17, 21, 20, 20]
28.737[19, 24, 21, 22, 20, 20, 19, 18]
28.751[21, 24, 20, 22, 19, 17, 20, 19]
28.774[21, 22, 23, 22, 20, 18, 17, 19]
28.797[19, 20, 21, 19, 20, 17, 18, 18]
28.811[20, 20, 24, 20, 20, 18, 19, 20]
28.834[18, 19, 25, 18, 19, 18, 19, 20]
28.857[18, 20, 23, 19, 19, 18, 19, 21]
28.871[20, 20, 22, 19, 20, 16, 20, 21]
28.894[20, 23, 24, 21, 21, 18, 20, 21]
28.917[20, 23, 21, 20, 22, 16, 19, 19]
28.932[21, 24, 22, 20, 23, 17, 20, 18]
28.954[19, 25, 22, 20, 24, 19, 19, 15]
28.977[18, 24, 23, 19, 24, 19, 19, 17]
28.991[19, 22, 21, 18, 22, 16, 18, 18]
29.014[19, 22, 22, 19, 20, 17, 20, 21]
29.037[21, 23, 20, 21, 19, 16, 19, 20]
29.052[21, 22, 23, 19, 19, 16, 20, 21]
29.074[21, 22, 21, 20, 20, 18, 20, 21]
29.097[20, 21, 21, 21, 22, 18, 20, 20]
29.111[21, 21, 23, 20, 22, 19, 17, 20]
29.134[19, 21, 23, 23, 21, 20, 16, 19]
29.157[18, 20, 21, 24, 21, 19, 16, 19]
29.171[19, 21, 22, 24, 21, 19, 16, 18]
29.194[20, 21, 24, 22, 22, 19, 17, 17]
29.217[19, 21, 22, 23, 21, 20, 18, 15]
29.239[22, 20, 21, 19, 23, 22, 20, 17]
29.254[22, 19, 21, 18, 22, 21, 21, 19]
29.277[21, 19, 25, 17, 21, 20, 22, 20]
29.299[21, 19, 23, 17, 21, 20, 22, 20]
29.314[22, 20, 22, 17, 22, 19, 24, 21]
29.337[20, 20, 23, 17, 20, 16, 24, 20]
29.359[21, 20, 23, 16, 23, 15, 22, 18]
29.374[20, 20, 20, 16, 24, 17, 23, 18]
29.397[19, 19, 21, 16, 23, 16, 23, 18]
29.419[20, 19, 22, 16, 23, 17, 21, 17]
29.434[21, 19, 21, 17, 24, 18, 22, 16]
29.457[23, 21, 21, 17, 23, 20, 22, 16]
29.479[23, 22, 21, 18, 22, 20, 21, 16]
29.494[22, 23, 24, 18, 21, 19, 20, 17]
29.517[22, 25, 23, 20, 22, 19, 20, 17]
29.539[21, 24, 22, 20, 20, 21, 17, 18]
29.554[21, 23, 22, 20, 18, 19, 18, 18]
29.577[20, 23, 24, 20, 18, 18, 19, 18]
29.599[21, 23, 20, 20, 19, 19, 19, 19]
29.614[18, 21, 21, 19, 18, 19, 19, 18]
29.637[22, 21, 22, 20, 19, 19, 20, 17]
29.659[20, 21, 22, 18, 21, 22, 20, 18]
29.674[21, 22, 22, 18, 21, 20, 18, 18]
29.697[22, 23, 21, 19, 19, 20, 20, 17]
29.719[23, 25, 23, 18, 20, 20, 19, 18]
29.733[20, 26, 22, 17, 20, 18, 18, 22]
29.757[21, 26, 22, 19, 19, 16, 18, 20]
29.779[21, 24, 20, 19, 18, 18, 19, 22]
29.794[21, 24, 21, 18, 18, 21, 16, 23]
29.817[20, 22, 21, 20, 16, 21, 20, 23]
29.839[19, 22, 25, 20, 18, 22, 21, 20]
29.853[19, 21, 26, 21, 17, 22, 21, 21]
29.877[19, 20, 26, 21, 17, 21, 20, 20]
29.899[18, 19, 28, 23, 18, 19, 22, 19]
29.914[17, 18, 26, 23, 20, 18, 20, 19]
29.937[17, 18, 25, 23, 20, 18, 19, 17]
29.959[19, 19, 24, 21, 21, 20, 20, 17]
29.974[21, 20, 23, 22, 23, 21, 19, 17]
29.997[21, 20, 19, 21, 23, 21, 18, 18]
30.019[21, 22, 20, 19, 22, 22, 17, 18]
30.033[21, 21, 22, 20, 21, 21, 19, 18]
30.057[19, 21, 23, 20, 22, 20, 27, 19]
30.08[20, 23, 24, 19, 21, 19, 29, 21]
30.094[19, 23, 24, 18, 19, 20, 29, 20]
30.117[28, 23, 23, 19, 21, 21, 30, 25]
30.139[47, 22, 22, 19, 21, 22, 29, 37]
30.153[48, 22, 23, 19, 20, 22, 23, 42]
30.177[67, 34, 25, 21, 21, 22, 24, 45]
30.199[80, 88, 33, 55, 23, 23, 25, 48]
30.222[98, 137, 78, 178, 123, 36, 37, 84]
30.237[114, 196, 86, 438, 299, 89, 80, 120]
30.259[125, 233, 101, 595, 449, 128, 87, 132]
30.282[127, 318, 181, 620, 480, 142, 90, 134]
30.297[122, 342, 207, 667, 492, 146, 91, 133]
30.319[113, 419, 217, 801, 532, 154, 89, 114]
30.342[98, 416, 239, 889, 507, 145, 58, 74]
30.356[90, 429, 295, 817, 393, 119, 52, 52]
30.379[84, 452, 291, 835, 387, 115, 50, 49]
30.402[97, 469, 306, 873, 388, 116, 48, 51]
30.416[104, 443, 303, 842, 379, 127, 53, 49]
30.439[111, 457, 325, 791, 348, 123, 50, 46]
30.462[110, 497, 345, 870, 357, 126, 48, 42]
30.476[106, 444, 350, 976, 399, 141, 55, 43]
30.499[97, 422, 325, 1003, 404, 139, 55, 43]
30.522[84, 392, 329, 987, 366, 124, 48, 44]
30.536[83, 401, 307, 979, 372, 126, 50, 45]
30.559[92, 360, 240, 938, 363, 122, 49, 48]
30.582[92, 391, 226, 891, 320, 102, 42, 45]
30.596[88, 460, 268, 889, 318, 105, 43, 42]
30.619[90, 483, 255, 837, 295, 99, 40, 41]
30.642[92, 490, 249, 845, 284, 99, 39, 41]
30.656[84, 512, 276, 877, 280, 95, 40, 37]
30.679[83, 494, 268, 863, 268, 94, 39, 33]
30.702[84, 477, 245, 808, 249, 90, 43, 35]
30.716[92, 443, 261, 934, 294, 98, 50, 43]
30.739[77, 436, 272, 890, 303, 101, 54, 46]
30.762[74, 420, 262, 904, 314, 106, 55, 49]
30.776[71, 415, 267, 941, 337, 113, 57, 51]
30.799[85, 376, 254, 927, 342, 112, 53, 51]
30.822[104, 399, 251, 830, 308, 105, 50, 53]
30.836[104, 367, 241, 863, 274, 95, 45, 49]
30.859[105, 348, 213, 838, 269, 97, 47, 47]
30.882[106, 332, 241, 805, 232, 87, 46, 48]
30.896[98, 305, 251, 861, 230, 87, 47, 48]
30.919[77, 316, 250, 906, 232, 84, 57, 47]
30.942[77, 366, 279, 890, 236, 80, 60, 47]
30.956[73, 373, 303, 870, 233, 73, 56, 46]
30.979[72, 411, 286, 850, 220, 64, 53, 45]
31.002[84, 429, 273, 868, 239, 69, 54, 47]
31.016[73, 416, 270, 845, 252, 74, 41, 37]
31.04[77, 384, 230, 834, 253, 77, 34, 38]
31.061[85, 369, 214, 916, 261, 75, 33, 38]
31.083[84, 331, 214, 898, 253, 74, 30, 35]
31.1[71, 296, 225, 859, 237, 73, 28, 31]
31.121[72, 267, 219, 813, 208, 65, 27, 32]
31.143[86, 256, 221, 757, 195, 60, 36, 33]
31.16[95, 233, 245, 704, 186, 64, 38, 37]
31.181[96, 241, 225, 704, 203, 74, 39, 35]
31.203[95, 269, 223, 673, 199, 74, 40, 34]
31.22[96, 283, 215, 663, 206, 76, 43, 36]
31.241[82, 321, 225, 674, 220, 77, 36, 32]
31.263[68, 346, 192, 594, 207, 70, 32, 25]
31.28[67, 345, 174, 559, 185, 61, 33, 29]
31.301[81, 353, 182, 547, 181, 57, 30, 31]
31.323[79, 359, 185, 612, 187, 63, 29, 30]
31.34[73, 344, 177, 602, 164, 60, 30, 31]
31.361[71, 323, 182, 736, 180, 67, 35, 32]
31.383[69, 322, 205, 725, 179, 67, 35, 30]
31.4[49, 322, 217, 729, 175, 65, 39, 30]
31.421[62, 312, 223, 689, 164, 55, 36, 28]
31.443[78, 335, 224, 698, 171, 58, 39, 28]
31.466[73, 353, 210, 620, 168, 57, 37, 29]
31.481[73, 347, 195, 656, 175, 54, 38, 28]
31.503[73, 332, 164, 659, 188, 61, 40, 29]
31.52[62, 331, 165, 659, 191, 63, 41, 28]
31.541[40, 266, 155, 678, 205, 69, 39, 28]
31.564[37, 221, 158, 608, 193, 68, 38, 28]
31.58[42, 261, 152, 580, 187, 69, 40, 29]
31.601[63, 250, 155, 550, 170, 63, 35, 30]
31.623[72, 240, 143, 568, 169, 66, 37, 33]
31.64[78, 255, 145, 558, 141, 57, 37, 36]
31.661[87, 304, 129, 532, 152, 60, 37, 38]
31.685[87, 298, 135, 491, 143, 58, 40, 38]
31.699[79, 304, 130, 551, 151, 59, 40, 37]
31.721[71, 301, 141, 531, 150, 58, 38, 37]
31.743[68, 293, 140, 487, 163, 63, 38, 33]
31.759[60, 246, 153, 526, 156, 57, 36, 33]
31.781[61, 233, 173, 557, 154, 55, 35, 37]
31.803[52, 206, 177, 527, 156, 56, 35, 35]
31.82[52, 209, 199, 568, 157, 55, 35, 34]
31.841[48, 199, 203, 543, 143, 51, 33, 36]
31.863[43, 221, 192, 537, 122, 48, 35, 37]
31.88[38, 181, 165, 519, 136, 52, 31, 31]
31.901[34, 178, 155, 467, 127, 50, 29, 32]
31.931[34, 176, 118, 414, 130, 49, 30, 33]
31.94[35, 211, 115, 463, 139, 51, 30, 30]
31.961[36, 200, 134, 461, 144, 52, 31, 30]
31.983[36, 227, 177, 446, 142, 58, 33, 34]
31.999[38, 239, 202, 484, 149, 59, 33, 34]
32.021[39, 264, 204, 514, 163, 62, 32, 35]
32.043[40, 249, 217, 508, 154, 60, 34, 36]
32.066[40, 244, 225, 551, 175, 63, 31, 33]
32.081[41, 253, 199, 585, 191, 59, 28, 30]
32.104[42, 289, 193, 681, 201, 63, 30, 30]
32.126[40, 263, 190, 624, 181, 56, 29, 27]
32.141[40, 271, 206, 640, 194, 62, 27, 28]
32.163[38, 279, 188, 674, 189, 58, 26, 26]
32.186[38, 280, 190, 678, 170, 57, 26, 26]
32.201[47, 252, 177, 688, 184, 64, 25, 28]
32.223[52, 280, 189, 715, 204, 68, 24, 30]
32.246[52, 327, 150, 688, 200, 66, 28, 29]
32.261[55, 320, 158, 594, 191, 66, 27, 29]
32.283[55, 315, 158, 715, 206, 70, 28, 30]
32.306[47, 318, 174, 596, 182, 60, 28, 27]
32.321[43, 292, 159, 589, 159, 59, 29, 28]
32.344[42, 229, 161, 603, 165, 60, 29, 28]
32.366[42, 225, 170, 704, 176, 64, 32, 29]
32.381[39, 201, 179, 635, 162, 60, 32, 30]
32.403[40, 210, 165, 687, 170, 59, 33, 33]
32.426[44, 230, 193, 677, 167, 55, 32, 31]
32.441[46, 245, 207, 658, 159, 53, 32, 33]
32.463[43, 242, 212, 623, 149, 53, 30, 31]
32.486[48, 268, 210, 613, 137, 51, 28, 32]
32.501[52, 290, 234, 615, 134, 53, 29, 31]
32.523[49, 298, 221, 631, 140, 59, 31, 31]
32.546[46, 280, 226, 700, 129, 55, 28, 30]
32.561[45, 288, 221, 636, 121, 53, 29, 32]
32.583[46, 280, 250, 635, 136, 53, 31, 29]
32.606[41, 266, 234, 616, 143, 56, 31, 30]
32.621[42, 308, 236, 584, 144, 50, 28, 30]
32.643[42, 313, 222, 545, 156, 52, 30, 30]
32.666[44, 307, 214, 565, 164, 52, 30, 29]
32.681[42, 302, 174, 625, 183, 58, 28, 29]
32.703[39, 301, 191, 610, 178, 55, 28, 29]
32.726[41, 244, 209, 614, 176, 58, 29, 30]
32.742[40, 238, 230, 646, 174, 58, 28, 28]
32.763[40, 249, 244, 644, 179, 58, 26, 27]
32.786[38, 251, 236, 539, 156, 52, 29, 30]
32.801[36, 219, 225, 553, 155, 48, 26, 28]
32.823[38, 219, 213, 582, 162, 48, 27, 25]
32.846[39, 258, 206, 522, 161, 47, 27, 26]
32.861[40, 262, 185, 511, 153, 52, 30, 28]
32.891[38, 250, 192, 554, 148, 48, 27, 23]
32.906[40, 260, 183, 531, 149, 54, 29, 26]
32.921[40, 278, 168, 545, 141, 55, 28, 27]
32.951[39, 248, 169, 537, 137, 53, 28, 26]
32.966[41, 239, 183, 546, 129, 46, 27, 26]
32.981[45, 262, 196, 548, 132, 51, 28, 25]
33.003[44, 247, 196, 588, 146, 52, 28, 23]
33.025[43, 225, 195, 596, 155, 54, 33, 24]
33.048[46, 260, 186, 609, 167, 57, 34, 24]
33.063[46, 278, 181, 634, 190, 63, 34, 22]
33.086[44, 260, 169, 608, 191, 62, 35, 26]
33.108[47, 266, 185, 549, 169, 57, 33, 25]
33.123[44, 256, 191, 571, 171, 55, 30, 26]
33.146[46, 219, 176, 597, 170, 57, 31, 28]
33.168[43, 211, 173, 619, 169, 56, 31, 28]
33.183[44, 226, 176, 619, 168, 56, 31, 25]
33.205[41, 215, 156, 627, 175, 57, 31, 26]
33.228[40, 222, 142, 558, 167, 54, 28, 23]
33.243[34, 229, 146, 526, 159, 52, 25, 23]
33.266[36, 259, 164, 543, 149, 48, 27, 23]
33.289[33, 241, 161, 533, 148, 46, 24, 24]
33.303[35, 283, 167, 625, 163, 46, 27, 22]
33.325[40, 282, 186, 702, 174, 49, 27, 25]
33.348[39, 274, 185, 685, 185, 55, 29, 24]
33.363[40, 223, 171, 656, 180, 59, 30, 25]
33.385[40, 225, 168, 641, 181, 61, 31, 24]
33.408[39, 174, 160, 573, 173, 60, 31, 24]
33.423[36, 207, 143, 582, 174, 60, 30, 24]
33.445[34, 215, 158, 641, 182, 61, 28, 23]
33.468[35, 258, 145, 648, 182, 54, 26, 22]
33.483[36, 251, 144, 685, 182, 54, 25, 23]
33.506[46, 309, 143, 753, 198, 62, 28, 30]
33.528[50, 314, 162, 701, 200, 69, 30, 32]
33.544[55, 309, 143, 635, 196, 68, 30, 33]
33.565[55, 305, 146, 611, 196, 69, 30, 32]
33.588[58, 327, 162, 566, 199, 73, 30, 33]
33.603[52, 294, 189, 450, 186, 73, 29, 28]
33.626[50, 274, 174, 573, 196, 69, 29, 25]
33.648[45, 288, 179, 584, 175, 63, 31, 27]
33.663[45, 265, 192, 651, 196, 65, 30, 29]
33.685[42, 243, 173, 746, 196, 60, 30, 27]
33.708[40, 227, 148, 776, 185, 55, 30, 28]
33.723[42, 230, 142, 649, 162, 53, 30, 28]
33.745[47, 210, 134, 670, 166, 57, 29, 26]
33.776[50, 247, 133, 607, 138, 54, 29, 26]
33.783[48, 251, 137, 536, 148, 63, 29, 28]
33.805[49, 235, 154, 565, 168, 73, 29, 29]
33.828[48, 246, 163, 592, 166, 71, 29, 30]
33.851[49, 268, 174, 598, 188, 77, 35, 38]
33.865[46, 233, 161, 566, 185, 77, 35, 39]
33.888[51, 286, 172, 549, 174, 72, 35, 38]
33.903[50, 302, 158, 491, 190, 71, 33, 38]
33.934[54, 312, 160, 541, 190, 70, 34, 38]
33.948[50, 292, 149, 585, 202, 73, 30, 30]
33.971[53, 294, 162, 652, 211, 75, 31, 29]
33.985[51, 257, 194, 682, 234, 77, 30, 31]
34.009[53, 260, 209, 733, 229, 74, 32, 31]
34.031[49, 247, 209, 685, 231, 77, 31, 31]
34.046[51, 242, 215, 631, 205, 67, 30, 33]
34.069[49, 241, 215, 610, 194, 67, 30, 36]
34.091[51, 231, 179, 597, 165, 63, 33, 34]
34.106[47, 226, 164, 556, 128, 53, 31, 30]
34.128[46, 223, 183, 623, 139, 51, 31, 31]
34.151[42, 232, 197, 745, 200, 65, 30, 29]
34.165[42, 259, 190, 756, 213, 65, 30, 28]
34.189[36, 268, 186, 702, 208, 65, 28, 27]
34.211[38, 261, 187, 720, 221, 71, 27, 30]
34.225[56, 269, 169, 737, 224, 69, 25, 30]
34.249[58, 283, 152, 710, 189, 63, 29, 30]
34.271[60, 252, 150, 692, 174, 57, 28, 27]
34.285[65, 258, 145, 713, 185, 59, 28, 27]
34.309[68, 267, 136, 674, 176, 53, 30, 26]
34.331[53, 254, 122, 610, 157, 53, 30, 24]
34.345[58, 234, 150, 547, 167, 55, 27, 26]
34.369[53, 243, 154, 532, 167, 57, 26, 27]
34.391[60, 264, 179, 551, 169, 58, 28, 30]
34.405[58, 303, 207, 553, 164, 58, 26, 30]
34.429[58, 291, 205, 549, 167, 61, 29, 31]
34.451[51, 291, 180, 472, 130, 54, 26, 28]
34.465[53, 300, 211, 509, 139, 62, 29, 28]
34.489[39, 271, 191, 521, 147, 60, 27, 25]
34.519[34, 231, 173, 571, 172, 64, 28, 25]
34.525[37, 240, 177, 558, 177, 64, 28, 25]
34.548[48, 306, 176, 587, 180, 60, 30, 30]
34.571[49, 333, 142, 629, 184, 54, 30, 29]
34.585[50, 332, 151, 583, 179, 55, 32, 30]
34.609[51, 326, 143, 501, 151, 48, 31, 31]
34.631[56, 328, 145, 520, 150, 48, 32, 31]
34.645[57, 306, 148, 507, 155, 51, 32, 30]
34.669[55, 257, 138, 425, 148, 51, 30, 28]
34.691[53, 254, 164, 422, 136, 49, 27, 28]
34.706[52, 251, 155, 436, 136, 50, 28, 28]
34.729[50, 239, 146, 534, 157, 54, 28, 26]
34.751[40, 202, 158, 524, 158, 54, 28, 25]
34.765[41, 213, 155, 504, 164, 56, 31, 27]
34.789[41, 211, 114, 510, 159, 52, 31, 27]
34.811[47, 251, 118, 508, 161, 54, 30, 27]
34.825[48, 276, 126, 411, 140, 51, 26, 27]
34.848[46, 282, 127, 438, 137, 49, 28, 26]
34.872[47, 285, 138, 511, 132, 46, 26, 28]
34.885[48, 294, 147, 536, 146, 48, 26, 27]
34.908[49, 301, 145, 563, 150, 46, 26, 26]
34.931[45, 293, 144, 574, 147, 42, 28, 27]
34.953[46, 296, 137, 635, 169, 49, 30, 29]
34.968[44, 295, 135, 575, 158, 48, 29, 26]
34.992[41, 319, 130, 608, 149, 47, 29, 26]
35.013[38, 284, 143, 648, 167, 55, 34, 28]
35.028[38, 277, 146, 674, 181, 56, 33, 28]
35.051[43, 282, 138, 611, 158, 52, 30, 26]
35.073[46, 298, 139, 646, 164, 52, 31, 27]
35.089[48, 277, 160, 628, 194, 57, 31, 28]
35.111[45, 277, 153, 603, 181, 53, 25, 29]
35.133[43, 263, 149, 557, 165, 49, 26, 28]
35.149[39, 248, 149, 589, 180, 48, 28, 29]
35.171[37, 231, 139, 573, 181, 49, 27, 30]
35.193[37, 220, 130, 571, 150, 42, 26, 28]
35.208[37, 223, 125, 528, 148, 40, 29, 27]
35.231[38, 242, 122, 532, 144, 41, 28, 27]
35.253[39, 253, 140, 489, 146, 43, 26, 26]
35.268[39, 249, 143, 487, 150, 46, 26, 26]
35.291[36, 237, 135, 514, 162, 49, 27, 26]
35.313[37, 250, 144, 560, 169, 52, 28, 24]
35.329[40, 256, 149, 603, 179, 54, 32, 28]
35.351[35, 258, 142, 730, 225, 63, 34, 28]
35.381[34, 247, 160, 738, 226, 62, 36, 31]
35.388[38, 296, 162, 732, 229, 65, 36, 30]
35.411[37, 284, 158, 725, 230, 69, 34, 33]
35.433[38, 315, 155, 695, 227, 71, 32, 32]
35.448[38, 311, 145, 584, 169, 63, 30, 30]
35.47[43, 370, 143, 632, 173, 67, 29, 29]
35.493[39, 343, 138, 612, 160, 65, 30, 30]
35.508[38, 350, 131, 571, 145, 59, 29, 27]
35.531[31, 302, 139, 543, 135, 55, 29, 25]
35.553[34, 317, 140, 493, 137, 54, 28, 25]
35.568[28, 252, 125, 375, 113, 46, 27, 22]
35.591[34, 257, 119, 337, 106, 42, 26, 20]
35.614[42, 253, 148, 389, 129, 56, 30, 25]
35.628[46, 294, 139, 444, 136, 57, 29, 26]
35.651[46, 272, 154, 513, 142, 59, 32, 27]
35.673[46, 270, 160, 568, 155, 63, 32, 27]
35.688[42, 263, 166, 582, 160, 63, 32, 29]
35.711[37, 249, 144, 640, 171, 56, 29, 28]
35.733[42, 238, 148, 627, 180, 61, 29, 27]
35.748[41, 233, 130, 594, 178, 61, 28, 26]
35.771[41, 233, 116, 536, 169, 56, 28, 27]
35.793[48, 310, 128, 544, 168, 56, 28, 31]
35.808[47, 309, 138, 521, 156, 56, 28, 29]
35.831[40, 292, 148, 592, 164, 53, 30, 29]
35.853[39, 289, 150, 573, 153, 48, 28, 29]
35.876[43, 311, 152, 677, 172, 55, 29, 30]
35.891[38, 245, 147, 661, 173, 55, 29, 25]
35.913[39, 256, 145, 656, 177, 53, 30, 27]
35.936[39, 255, 132, 621, 161, 52, 29, 28]
35.951[43, 254, 140, 675, 173, 51, 30, 31]
35.973[41, 258, 148, 574, 151, 43, 31, 30]
35.996[41, 257, 147, 596, 152, 46, 32, 33]
36.011[40, 254, 142, 602, 143, 46, 33, 32]
36.033[40, 255, 138, 579, 150, 43, 31, 32]
36.056[38, 262, 131, 531, 139, 44, 30, 29]
36.072[39, 230, 130, 603, 164, 53, 29, 29]
36.093[36, 204, 140, 578, 158, 52, 28, 26]
36.115[39, 213, 149, 516, 152, 49, 24, 27]
36.131[37, 198, 152, 473, 154, 58, 25, 26]
36.153[35, 199, 151, 617, 176, 63, 29, 30]
36.175[33, 188, 146, 592, 167, 60, 30, 29]
36.191[37, 219, 130, 602, 163, 58, 31, 31]
36.213[36, 214, 123, 601, 162, 57, 33, 30]
36.235[36, 226, 114, 618, 160, 51, 31, 29]
36.251[36, 219, 116, 488, 139, 46, 26, 26]
36.272[36, 243, 119, 446, 127, 46, 28, 27]
36.295[34, 225, 134, 427, 131, 47, 26, 25]
36.312[32, 216, 128, 437, 132, 47, 26, 26]
36.333[33, 213, 142, 483, 111, 41, 26, 27]
36.355[35, 263, 141, 463, 104, 40, 26, 26]
36.371[39, 255, 149, 454, 95, 40, 23, 26]
36.393[38, 266, 156, 491, 106, 44, 24, 26]
36.415[37, 263, 157, 486, 112, 44, 23, 25]
36.431[39, 273, 147, 419, 117, 47, 23, 25]
36.46[38, 251, 152, 449, 128, 49, 27, 26]
36.475[38, 280, 148, 521, 151, 52, 27, 26]
36.491[37, 264, 123, 485, 148, 50, 27, 28]
36.513[40, 266, 115, 450, 139, 52, 26, 27]
36.535[41, 254, 124, 509, 145, 54, 28, 26]
36.551[42, 265, 135, 514, 146, 54, 24, 25]
36.573[41, 219, 196, 533, 157, 58, 28, 27]
36.595[39, 229, 206, 594, 167, 63, 28, 25]
36.611[40, 219, 217, 625, 169, 63, 28, 25]
36.634[43, 251, 223, 580, 164, 61, 27, 27]
36.655[43, 219, 224, 630, 171, 65, 28, 28]
36.671[43, 226, 196, 617, 175, 68, 26, 28]
36.692[45, 262, 209, 674, 185, 69, 27, 28]
36.715[41, 305, 205, 688, 195, 73, 31, 28]
36.732[37, 281, 198, 717, 198, 74, 35, 28]
36.753[38, 271, 183, 707, 199, 74, 36, 29]
36.777[39, 272, 173, 726, 216, 81, 42, 30]
36.797[38, 261, 153, 650, 205, 78, 40, 31]
36.813[38, 246, 154, 695, 200, 74, 37, 32]
36.835[39, 249, 154, 691, 202, 74, 34, 31]
36.857[37, 256, 167, 667, 222, 76, 35, 31]
36.872[39, 256, 143, 606, 202, 64, 29, 28]
36.895[40, 223, 136, 606, 199, 62, 29, 27]
36.917[40, 192, 125, 547, 195, 64, 28, 26]
36.932[38, 180, 126, 528, 189, 63, 29, 26]
36.955[38, 198, 105, 470, 155, 54, 30, 25]
36.977[38, 190, 118, 530, 166, 65, 32, 29]
36.992[39, 197, 125, 586, 167, 64, 33, 30]
37.015[38, 202, 126, 561, 175, 65, 34, 29]
37.037[42, 199, 127, 637, 196, 69, 35, 29]
37.054[44, 193, 133, 678, 211, 72, 30, 27]
37.075[38, 204, 138, 654, 202, 66, 29, 22]
37.099[37, 213, 164, 639, 198, 65, 27, 23]
37.113[40, 254, 184, 688, 201, 66, 28, 23]
37.135[39, 279, 181, 637, 182, 63, 28, 24]
37.157[37, 266, 189, 662, 163, 58, 28, 24]
37.173[39, 265, 180, 626, 139, 49, 23, 23]
37.195[40, 318, 160, 574, 131, 48, 23, 22]
37.217[35, 281, 141, 526, 125, 46, 22, 22]
37.232[34, 260, 156, 528, 168, 54, 20, 24]
37.255[31, 262, 144, 447, 168, 54, 25, 25]
37.277[32, 270, 168, 453, 168, 56, 27, 27]
37.292[30, 187, 169, 462, 185, 68, 29, 28]
37.315[33, 190, 165, 469, 182, 66, 29, 28]
37.337[33, 216, 158, 496, 150, 60, 33, 27]
37.352[32, 240, 165, 565, 159, 60, 32, 28]
37.375[35, 290, 141, 565, 170, 60, 31, 26]
37.397[36, 293, 126, 549, 157, 49, 31, 29]
37.413[36, 303, 134, 554, 162, 51, 31, 30]
37.435[35, 303, 161, 538, 185, 59, 31, 27]
37.457[38, 282, 156, 516, 184, 60, 29, 25]
37.48[35, 216, 153, 536, 173, 60, 28, 27]
37.495[34, 219, 161, 569, 172, 58, 28, 24]
37.517[31, 210, 159, 561, 177, 58, 27, 23]
37.533[33, 226, 133, 570, 156, 52, 26, 24]
37.555[34, 246, 126, 556, 155, 52, 25, 25]
37.577[32, 242, 137, 577, 166, 55, 26, 26]
37.6[33, 238, 134, 561, 169, 56, 26, 24]
37.615[36, 232, 154, 568, 160, 56, 28, 25]
37.637[35, 179, 147, 561, 158, 55, 25, 26]
37.652[36, 157, 154, 597, 162, 56, 26, 26]
37.675[38, 199, 151, 580, 164, 57, 26, 23]
37.697[40, 204, 156, 621, 168, 59, 27, 25]
37.72[36, 196, 138, 622, 169, 58, 28, 25]
37.735[37, 203, 133, 580, 158, 57, 29, 25]
37.757[42, 230, 156, 541, 156, 58, 32, 26]
37.78[40, 212, 152, 596, 160, 59, 32, 26]
37.795[39, 242, 154, 577, 172, 64, 31, 25]
37.817[42, 278, 149, 589, 178, 61, 31, 23]
37.84[41, 285, 158, 604, 177, 60, 33, 24]
37.856[35, 269, 128, 574, 170, 60, 31, 24]
37.877[36, 264, 125, 475, 151, 51, 30, 24]
37.9[36, 239, 121, 416, 125, 42, 30, 24]
37.915[36, 210, 126, 355, 101, 41, 27, 25]
37.937[37, 203, 120, 337, 96, 38, 24, 24]
37.96[36, 180, 125, 410, 136, 39, 22, 23]
37.975[37, 180, 127, 474, 157, 46, 24, 25]
37.997[41, 179, 117, 481, 157, 47, 25, 24]
38.02[41, 171, 155, 496, 172, 52, 26, 24]
38.035[41, 173, 156, 485, 177, 55, 26, 24]
38.057[40, 178, 157, 456, 165, 57, 26, 24]
38.08[41, 202, 159, 467, 154, 53, 26, 24]
38.095[40, 224, 163, 549, 167, 54, 29, 25]
38.125[38, 239, 144, 581, 173, 55, 30, 26]
38.14[39, 239, 144, 582, 172, 55, 30, 26]
38.155[42, 266, 140, 586, 165, 49, 31, 26]
38.177[43, 258, 140, 570, 163, 50, 30, 26]
38.2[39, 231, 142, 561, 174, 56, 28, 28]
38.215[38, 222, 125, 523, 153, 49, 26, 29]
38.237[37, 236, 124, 554, 158, 49, 26, 29]
38.26[36, 226, 140, 547, 150, 50, 29, 30]
38.275[33, 253, 156, 616, 156, 52, 30, 29]
38.297[34, 266, 150, 587, 151, 51, 29, 29]
38.32[33, 265, 150, 580, 151, 52, 29, 27]
38.343[34, 249, 156, 551, 149, 51, 29, 26]
38.357[29, 239, 144, 550, 143, 51, 26, 26]
38.38[32, 218, 135, 446, 129, 48, 28, 27]
38.395[30, 213, 143, 452, 102, 38, 28, 26]
38.417[33, 211, 145, 469, 110, 38, 29, 26]
38.44[32, 220, 131, 473, 109, 38, 28, 27]
38.455[34, 253, 160, 497, 119, 45, 31, 27]
38.477[34, 232, 160, 474, 115, 46, 28, 27]
38.5[41, 341, 151, 481, 137, 53, 29, 27]
38.515[41, 383, 164, 465, 131, 52, 26, 27]
38.537[43, 386, 195, 519, 131, 52, 26, 28]
38.56[43, 359, 171, 470, 138, 50, 29, 32]
38.575[42, 357, 170, 520, 151, 52, 27, 30]
38.597[36, 271, 199, 472, 134, 45, 27, 29]
38.62[36, 200, 205, 484, 140, 49, 33, 33]
38.635[36, 184, 191, 503, 147, 52, 32, 31]
38.657[34, 191, 201, 534, 138, 49, 28, 26]
38.68[41, 234, 204, 561, 135, 46, 29, 27]
38.71[42, 202, 219, 606, 163, 53, 29, 28]
38.718[39, 211, 204, 617, 166, 51, 26, 25]
38.74[40, 207, 204, 554, 151, 48, 26, 25]
38.763[43, 254, 195, 594, 159, 46, 25, 26]
38.777[38, 223, 215, 566, 150, 45, 24, 25]
38.8[37, 226, 183, 605, 142, 43, 23, 25]
38.823[39, 224, 187, 599, 138, 46, 28, 24]
38.837[39, 238, 183, 635, 145, 48, 29, 25]
38.86[34, 190, 199, 607, 143, 51, 28, 25]
38.883[30, 212, 159, 574, 141, 50, 29, 25]
38.897[32, 221, 149, 484, 110, 46, 28, 24]
38.92[33, 238, 159, 550, 137, 49, 30, 27]
38.943[29, 245, 154, 534, 146, 51, 29, 26]
38.957[31, 243, 135, 488, 141, 48, 31, 27]
38.98[32, 221, 154, 506, 144, 48, 31, 27]
39.003[31, 216, 164, 510, 157, 53, 36, 28]
39.017[33, 190, 154, 446, 126, 46, 30, 25]
39.04[37, 204, 165, 417, 113, 43, 31, 24]
39.063[38, 199, 185, 506, 132, 52, 31, 23]
39.077[38, 194, 205, 636, 186, 63, 33, 24]
39.1[38, 189, 206, 621, 177, 57, 28, 22]
39.123[37, 202, 204, 596, 180, 57, 31, 20]
39.137[35, 171, 195, 595, 179, 56, 30, 21]
39.16[36, 193, 202, 622, 180, 51, 30, 22]
39.183[34, 211, 185, 496, 134, 40, 28, 22]
39.197[32, 208, 192, 524, 145, 47, 29, 21]
39.219[32, 239, 204, 567, 154, 49, 29, 24]
39.243[31, 235, 196, 586, 158, 51, 28, 23]
39.257[29, 266, 176, 511, 142, 47, 26, 23]
39.28[34, 275, 178, 516, 137, 46, 25, 22]
39.303[36, 279, 160, 505, 138, 43, 24, 23]
39.317[36, 255, 146, 462, 128, 44, 24, 25]
39.339[35, 253, 160, 501, 132, 42, 26, 26]
39.363[35, 262, 151, 523, 136, 42, 28, 27]
39.377[31, 281, 140, 496, 131, 42, 30, 28]
39.399[34, 283, 155, 517, 138, 43, 31, 28]
39.423[33, 318, 147, 512, 135, 41, 28, 24]
39.437[33, 330, 136, 443, 139, 44, 27, 23]
39.459[31, 283, 147, 415, 135, 49, 29, 22]
39.483[32, 276, 142, 501, 144, 51, 29, 21]
39.497[30, 284, 121, 463, 136, 53, 32, 24]
39.519[30, 231, 123, 484, 139, 57, 34, 25]
39.543[34, 216, 122, 514, 131, 56, 33, 27]
39.557[37, 228, 115, 517, 139, 55, 31, 26]
39.58[39, 239, 109, 530, 151, 55, 30, 27]
39.603[39, 226, 128, 591, 151, 50, 27, 25]
39.617[39, 237, 123, 580, 147, 44, 24, 23]
39.64[36, 239, 129, 572, 147, 45, 24, 21]
39.663[37, 241, 140, 554, 140, 46, 25, 22]
39.685[37, 230, 144, 569, 161, 52, 25, 22]
39.7[37, 240, 130, 513, 164, 58, 26, 22]
39.723[35, 243, 158, 555, 191, 66, 29, 23]
39.745[38, 241, 160, 542, 191, 67, 32, 26]
39.76[34, 239, 155, 554, 186, 65, 32, 25]
39.782[32, 192, 161, 463, 170, 64, 33, 26]
39.805[33, 223, 171, 478, 163, 59, 33, 26]
39.82[35, 211, 152, 502, 162, 52, 31, 28]
39.843[33, 212, 148, 498, 162, 51, 28, 27]
39.865[35, 231, 150, 600, 193, 58, 28, 28]
39.88[34, 247, 139, 645, 187, 56, 28, 27]
39.903[31, 215, 129, 642, 200, 62, 30, 27]
39.925[28, 208, 138, 730, 209, 70, 30, 25]
39.94[31, 205, 172, 820, 244, 78, 32, 26]
39.963[30, 177, 176, 814, 249, 80, 34, 28]
39.985[30, 167, 192, 807, 254, 80, 33, 28]
40.0[29, 156, 190, 823, 245, 78, 31, 29]
40.023[32, 173, 200, 752, 225, 73, 32, 28]
40.045[35, 188, 169, 663, 186, 66, 31, 27]
40.06[34, 175, 160, 562, 153, 57, 31, 26]
40.083[33, 161, 134, 483, 122, 52, 29, 25]
40.105[34, 147, 126, 408, 109, 45, 28, 22]
40.12[32, 119, 79, 259, 85, 37, 25, 23]
40.143[61, 69, 110, 191, 73, 33, 24, 32]
40.165[111, 89, 244, 176, 62, 28, 32, 65]
40.179[127, 91, 303, 171, 64, 25, 33, 78]
40.203[137, 96, 365, 175, 65, 26, 34, 85]
40.225[138, 96, 390, 173, 64, 25, 33, 86]
40.239[126, 90, 385, 158, 62, 25, 34, 84]
40.263[86, 65, 327, 118, 44, 23, 23, 61]
40.285[58, 51, 273, 95, 35, 25, 21, 44]
40.299[29, 34, 180, 56, 26, 23, 21, 30]
40.323[24, 26, 118, 41, 25, 23, 20, 28]
40.346[22, 24, 103, 39, 24, 21, 20, 23]
40.359[20, 25, 60, 36, 24, 20, 20, 23]
40.382[19, 27, 56, 32, 24, 18, 21, 22]
40.405[20, 26, 59, 29, 23, 19, 19, 21]
40.419[19, 24, 59, 28, 22, 18, 19, 18]
40.443[20, 21, 60, 26, 21, 19, 20, 20]
40.465[18, 21, 40, 21, 19, 20, 19, 20]
40.48[19, 18, 39, 21, 20, 20, 20, 18]
40.502[19, 21, 30, 21, 19, 20, 20, 18]
40.525[20, 21, 31, 19, 20, 20, 20, 20]
40.54[21, 24, 57, 20, 21, 19, 20, 20]
40.563[21, 23, 59, 20, 22, 19, 19, 21]
40.585[21, 23, 61, 19, 22, 19, 20, 21]
40.607[20, 23, 62, 18, 23, 19, 20, 22]
40.622[19, 24, 60, 19, 22, 19, 20, 21]
40.645[17, 22, 34, 17, 23, 18, 19, 20]
40.667[19, 23, 30, 17, 22, 19, 20, 20]
40.683[18, 24, 26, 18, 23, 17, 20, 20]
40.705[18, 22, 52, 21, 23, 18, 20, 20]
40.728[20, 22, 59, 22, 24, 20, 19, 20]
40.743[18, 22, 62, 23, 23, 19, 20, 20]
40.765[18, 20, 64, 24, 23, 20, 18, 20]
40.787[19, 20, 65, 24, 22, 21, 18, 20]
40.802[19, 19, 46, 21, 21, 21, 18, 19]
40.825[19, 19, 63, 22, 19, 17, 21, 19]
40.848[19, 19, 60, 21, 19, 18, 22, 18]
40.862[17, 22, 75, 22, 19, 18, 20, 17]
40.885[18, 22, 77, 20, 19, 19, 20, 16]
40.907[18, 22, 78, 21, 19, 19, 21, 17]
40.922[18, 22, 60, 21, 20, 20, 18, 18]
40.945[19, 22, 61, 20, 20, 20, 18, 17]
40.968[20, 19, 39, 20, 19, 21, 18, 19]
40.982[19, 19, 31, 20, 20, 20, 19, 19]
41.005[19, 19, 29, 21, 20, 20, 19, 18]
41.027[19, 20, 28, 19, 20, 18, 21, 18]
41.043[20, 18, 24, 20, 22, 18, 20, 18]
41.065[21, 19, 21, 20, 22, 15, 21, 18]
41.087[22, 20, 22, 22, 22, 14, 21, 19]
41.103[22, 20, 21, 20, 21, 14, 20, 19]
41.126[21, 20, 18, 20, 22, 16, 18, 20]
41.147[20, 19, 18, 20, 20, 17, 19, 19]
41.163[18, 19, 18, 19, 19, 18, 18, 18]
41.186[20, 19, 17, 18, 18, 18, 17, 19]
41.207[19, 18, 16, 18, 18, 19, 17, 20]
41.223[19, 18, 18, 19, 18, 18, 18, 18]
41.246[19, 17, 18, 19, 18, 18, 18, 22]
41.267[19, 18, 18, 20, 18, 20, 19, 22]
41.283[17, 18, 19, 19, 19, 19, 20, 19]
41.306[20, 20, 20, 22, 19, 20, 20, 19]
41.327[21, 19, 21, 20, 18, 20, 22, 20]
41.343[21, 21, 23, 19, 20, 20, 22, 18]
41.366[21, 22, 22, 19, 20, 20, 21, 17]
41.387[22, 23, 22, 19, 19, 20, 21, 19]
41.403[19, 23, 21, 19, 21, 21, 20, 19]
41.424[20, 23, 20, 20, 21, 21, 18, 21]
41.447[21, 24, 21, 20, 21, 19, 18, 20]
41.463[23, 23, 22, 20, 21, 18, 19, 20]
41.485[22, 23, 20, 22, 21, 19, 19, 21]
41.507[23, 22, 20, 19, 21, 17, 21, 22]
41.529[21, 22, 19, 19, 20, 17, 20, 19]
41.544[19, 21, 17, 19, 19, 19, 20, 21]
41.567[18, 22, 16, 20, 19, 18, 21, 21]
41.589[17, 21, 18, 19, 21, 17, 22, 19]
41.604[17, 21, 19, 21, 21, 18, 20, 18]
41.627[19, 23, 20, 21, 23, 19, 20, 18]
41.649[20, 22, 20, 21, 22, 19, 22, 20]
41.664[20, 21, 21, 20, 22, 19, 20, 20]
41.687[19, 22, 20, 19, 21, 20, 18, 20]
41.709[19, 22, 23, 19, 20, 19, 20, 20]
41.724[19, 21, 24, 20, 18, 17, 20, 21]
41.747[18, 21, 24, 21, 19, 21, 17, 17]
41.769[18, 23, 22, 21, 19, 21, 18, 16]
41.784[21, 24, 23, 22, 18, 20, 19, 16]
41.807[20, 22, 22, 22, 19, 18, 19, 17]
41.829[20, 24, 21, 20, 20, 19, 19, 20]
41.844[21, 23, 21, 20, 21, 14, 19, 21]
41.867[21, 21, 22, 21, 20, 13, 20, 21]
41.889[19, 21, 21, 20, 20, 16, 20, 23]
41.904[21, 23, 20, 18, 20, 16, 22, 23]
41.927[19, 20, 19, 19, 20, 16, 23, 21]
41.951[20, 19, 22, 19, 18, 17, 23, 21]
41.964[18, 20, 22, 18, 18, 19, 22, 22]
41.986[20, 18, 23, 19, 18, 17, 22, 19]
42.009[18, 17, 21, 20, 19, 19, 20, 20]
42.024[18, 18, 22, 20, 21, 19, 20, 21]
42.047[18, 19, 19, 18, 20, 20, 18, 20]
42.07[18, 17, 20, 18, 22, 20, 21, 19]
42.084[17, 17, 19, 17, 22, 20, 22, 20]
42.107[18, 17, 21, 16, 22, 20, 21, 17]
42.129[18, 19, 20, 16, 20, 19, 20, 17]
42.145[19, 18, 20, 17, 20, 19, 20, 16]
42.167[19, 21, 20, 17, 19, 18, 17, 16]
42.189[20, 23, 19, 18, 19, 19, 17, 15]
42.205[19, 22, 19, 19, 20, 16, 18, 18]
42.227[20, 20, 22, 21, 21, 18, 19, 15]
42.257[17, 22, 22, 20, 20, 17, 21, 18]
42.264[17, 21, 22, 20, 20, 19, 21, 18]
42.287[18, 21, 23, 19, 19, 18, 23, 19]
42.309[19, 21, 22, 20, 18, 19, 24, 18]
42.324[17, 21, 20, 19, 16, 20, 23, 19]
42.347[19, 20, 22, 18, 18, 19, 23, 22]
42.369[19, 20, 22, 17, 18, 18, 23, 23]
42.384[20, 18, 21, 19, 19, 19, 20, 23]
42.406[21, 20, 21, 18, 21, 19, 18, 23]
42.429[21, 22, 21, 20, 23, 16, 17, 23]
42.444[23, 22, 19, 20, 23, 17, 18, 20]
42.466[22, 21, 19, 20, 22, 17, 18, 19]
42.489[21, 21, 19, 19, 24, 16, 18, 17]
42.512[21, 22, 18, 20, 22, 16, 22, 17]
42.526[21, 20, 17, 16, 21, 17, 22, 16]
42.549[19, 21, 20, 19, 20, 17, 21, 15]
42.572[19, 21, 21, 22, 21, 18, 21, 16]
42.586[19, 22, 20, 21, 18, 20, 21, 17]
42.609[19, 20, 23, 20, 19, 20, 18, 16]
42.631[19, 20, 25, 21, 20, 21, 19, 19]
42.646[18, 21, 22, 20, 21, 21, 18, 18]
42.669[19, 20, 24, 18, 21, 22, 19, 17]
42.691[17, 19, 24, 19, 22, 20, 19, 16]
42.706[18, 22, 24, 20, 23, 20, 19, 18]
42.729[18, 23, 22, 21, 23, 19, 19, 16]
42.752[19, 22, 23, 21, 21, 19, 20, 17]
42.766[20, 23, 22, 22, 22, 19, 18, 18]
42.789[22, 23, 22, 21, 21, 17, 20, 20]
42.812[21, 21, 20, 20, 19, 19, 20, 20]
42.827[21, 21, 22, 18, 19, 20, 20, 21]
42.849[20, 21, 22, 19, 22, 19, 20, 22]
42.872[21, 20, 18, 17, 20, 20, 21, 21]
42.887[22, 23, 18, 18, 20, 21, 20, 20]
42.909[22, 23, 21, 19, 21, 20, 20, 19]
42.932[22, 23, 22, 21, 21, 20, 20, 20]
42.946[24, 22, 23, 22, 18, 23, 20, 19]
42.969[22, 23, 24, 22, 20, 22, 19, 20]
42.992[19, 20, 24, 21, 20, 22, 18, 21]
43.007[20, 21, 22, 21, 19, 22, 17, 21]
43.029[19, 22, 21, 21, 20, 22, 20, 19]
43.052[18, 22, 21, 20, 20, 20, 20, 18]
43.067[19, 22, 21, 22, 19, 21, 19, 18]
43.089[21, 23, 21, 23, 19, 21, 20, 17]
43.112[20, 23, 22, 22, 20, 21, 23, 18]
43.127[21, 21, 21, 22, 20, 21, 20, 19]
43.149[19, 22, 20, 23, 21, 19, 18, 19]
43.172[19, 22, 20, 21, 21, 18, 18, 19]
43.186[18, 22, 23, 24, 21, 18, 18, 19]
43.209[17, 22, 22, 24, 20, 18, 15, 17]
43.231[16, 21, 22, 23, 19, 18, 16, 17]
43.246[18, 21, 22, 19, 18, 18, 17, 16]
43.269[17, 20, 22, 21, 21, 20, 18, 18]
43.292[18, 20, 22, 18, 21, 18, 20, 18]
43.306[19, 19, 21, 18, 21, 19, 21, 18]
43.329[20, 19, 21, 20, 22, 19, 20, 18]
43.351[21, 19, 23, 20, 21, 19, 20, 20]
43.367[22, 20, 25, 19, 18, 20, 21, 20]
43.389[20, 21, 24, 19, 19, 20, 19, 20]
43.411[18, 22, 25, 20, 18, 20, 18, 19]
43.435[18, 21, 25, 19, 19, 20, 19, 20]
43.449[15, 23, 24, 19, 21, 20, 19, 20]
43.471[17, 22, 21, 19, 21, 19, 19, 18]
43.495[19, 21, 20, 18, 21, 20, 20, 20]
43.509[20, 19, 20, 17, 21, 18, 21, 21]
43.532[19, 22, 21, 19, 20, 18, 21, 19]
43.555[20, 21, 20, 19, 18, 19, 21, 19]
43.569[21, 20, 24, 20, 20, 20, 21, 20]
43.591[20, 21, 25, 21, 19, 18, 20, 17]
43.614[20, 22, 25, 22, 19, 19, 20, 18]
43.629[21, 21, 25, 20, 19, 19, 19, 17]
43.651[21, 20, 28, 21, 21, 18, 19, 16]
43.674[20, 22, 26, 20, 21, 19, 18, 19]
43.689[20, 20, 24, 19, 22, 20, 17, 19]
43.711[20, 22, 24, 19, 23, 19, 18, 19]
43.742[20, 21, 24, 19, 23, 19, 19, 20]
43.749[21, 21, 23, 19, 22, 20, 19, 21]
43.772[21, 21, 21, 21, 20, 21, 18, 18]
43.795[20, 21, 22, 21, 20, 20, 20, 18]
43.809[22, 21, 21, 21, 19, 20, 19, 17]
43.831[24, 21, 22, 20, 19, 20, 20, 17]
43.855[23, 23, 21, 19, 19, 20, 20, 18]
43.869[22, 22, 21, 17, 21, 18, 20, 18]
43.892[23, 23, 23, 18, 19, 19, 20, 21]
43.914[21, 21, 23, 17, 20, 19, 20, 21]
43.929[19, 21, 22, 18, 20, 19, 19, 21]
43.951[19, 19, 21, 18, 20, 19, 19, 21]
43.975[21, 21, 22, 17, 21, 20, 19, 21]
43.989[19, 22, 20, 17, 21, 20, 19, 19]
44.012[20, 22, 22, 18, 20, 18, 20, 18]
44.035[22, 22, 21, 19, 20, 18, 20, 20]
44.049[23, 22, 20, 19, 18, 18, 21, 20]
44.072[21, 21, 21, 20, 17, 17, 20, 20]
44.095[22, 21, 22, 20, 18, 17, 18, 20]
44.109[22, 20, 20, 18, 18, 18, 17, 23]
44.132[21, 20, 20, 18, 18, 19, 19, 21]
44.155[20, 20, 22, 17, 19, 19, 19, 19]
44.169[21, 21, 21, 18, 18, 18, 20, 20]
44.192[23, 20, 19, 20, 19, 20, 20, 18]
44.215[23, 21, 19, 21, 20, 21, 20, 16]
44.229[22, 23, 20, 21, 20, 21, 19, 17]
44.251[22, 22, 20, 20, 20, 21, 17, 20]
44.274[21, 21, 21, 21, 22, 21, 17, 21]
44.289[18, 22, 21, 19, 20, 20, 20, 22]
44.311[19, 23, 23, 18, 22, 19, 20, 23]
44.335[18, 21, 22, 17, 21, 18, 22, 23]
44.349[18, 23, 20, 17, 20, 19, 22, 21]
44.372[19, 22, 20, 18, 20, 20, 22, 23]
44.394[19, 22, 21, 18, 20, 21, 20, 22]
44.418[20, 21, 20, 18, 21, 21, 19, 20]
44.431[21, 21, 20, 19, 21, 21, 17, 21]
44.454[21, 20, 19, 20, 23, 20, 19, 20]
44.477[21, 20, 21, 18, 24, 18, 19, 16]
44.491[22, 21, 21, 19, 24, 18, 20, 18]
44.514[21, 20, 22, 20, 22, 17, 21, 19]
44.537[21, 21, 22, 20, 22, 18, 21, 17]
44.551[21, 21, 23, 19, 21, 20, 21, 18]
44.575[20, 22, 23, 20, 20, 19, 23, 18]
44.597[18, 21, 21, 18, 20, 20, 24, 18]
44.612[17, 23, 21, 19, 22, 19, 23, 17]
44.634[18, 23, 21, 18, 21, 19, 23, 17]
44.657[18, 23, 22, 17, 22, 16, 22, 17]
44.671[18, 23, 21, 19, 22, 18, 18, 18]
44.694[20, 24, 21, 19, 23, 16, 17, 18]
44.717[20, 21, 20, 20, 20, 18, 19, 20]
44.731[18, 21, 20, 21, 22, 18, 20, 20]
44.755[19, 20, 20, 25, 21, 19, 20, 21]
44.777[18, 19, 20, 23, 20, 18, 20, 19]
44.791[17, 18, 24, 24, 19, 20, 21, 20]
44.814[17, 19, 24, 23, 23, 19, 18, 19]
44.837[17, 19, 24, 22, 21, 20, 18, 21]
44.851[19, 21, 25, 21, 21, 20, 18, 21]
44.875[21, 22, 25, 23, 24, 20, 22, 23]
44.897[21, 23, 23, 25, 24, 19, 22, 23]
44.911[22, 22, 21, 24, 20, 20, 24, 20]
44.934[22, 22, 22, 24, 21, 19, 24, 20]
44.957[20, 22, 19, 22, 20, 19, 23, 21]
44.971[20, 21, 20, 23, 18, 19, 20, 21]
44.994[20, 22, 20, 18, 20, 20, 20, 21]
45.017[18, 22, 23, 22, 22, 18, 19, 22]
45.032[19, 24, 22, 22, 22, 18, 19, 22]
45.054[20, 24, 22, 21, 22, 20, 21, 21]
45.077[18, 24, 25, 20, 22, 23, 20, 19]
45.092[19, 21, 23, 21, 22, 22, 20, 20]
45.115[20, 22, 23, 25, 19, 23, 20, 19]
45.137[19, 18, 24, 26, 19, 22, 20, 19]
45.151[21, 18, 26, 25, 18, 21, 20, 18]
45.174[23, 19, 23, 26, 17, 18, 20, 18]
45.197[23, 19, 23, 26, 18, 20, 20, 17]
45.211[22, 19, 21, 23, 19, 19, 18, 17]
45.234[22, 21, 24, 30, 19, 19, 17, 16]
45.257[20, 21, 23, 30, 20, 19, 18, 18]
45.271[19, 18, 23, 30, 21, 21, 18, 17]
45.294[19, 21, 24, 30, 20, 20, 17, 21]
45.317[22, 21, 24, 29, 19, 20, 19, 22]
45.34[21, 21, 20, 21, 20, 22, 20, 21]
45.354[24, 20, 19, 23, 20, 21, 20, 21]
45.377[23, 21, 19, 26, 20, 23, 20, 21]
45.4[24, 18, 18, 25, 20, 22, 20, 21]
45.414[21, 18, 20, 24, 20, 21, 20, 20]
45.437[21, 17, 20, 25, 20, 20, 19, 20]
45.459[18, 16, 20, 23, 20, 21, 18, 19]
45.474[21, 18, 21, 23, 21, 19, 18, 19]
45.497[19, 17, 21, 26, 21, 19, 19, 16]
45.519[20, 17, 21, 26, 21, 19, 18, 16]
45.534[21, 18, 21, 27, 21, 19, 20, 19]
45.557[21, 19, 21, 28, 21, 17, 21, 18]
45.579[18, 17, 23, 26, 22, 17, 21, 20]
45.594[20, 18, 23, 23, 22, 17, 20, 20]
45.617[18, 18, 23, 22, 21, 17, 21, 21]
45.639[18, 18, 22, 21, 21, 19, 19, 20]
45.654[18, 20, 22, 19, 22, 19, 19, 21]
45.685[19, 21, 20, 17, 20, 20, 21, 22]
45.699[17, 22, 19, 18, 21, 20, 20, 21]
45.714[17, 23, 21, 18, 23, 21, 20, 21]
45.737[17, 23, 20, 18, 21, 19, 19, 21]
45.759[16, 21, 21, 18, 20, 20, 21, 21]
45.774[16, 20, 20, 19, 22, 20, 20, 19]
45.797[17, 20, 21, 19, 22, 20, 21, 19]
45.819[17, 19, 19, 18, 21, 20, 20, 17]
45.834[17, 18, 19, 19, 22, 21, 22, 17]
45.857[20, 19, 20, 19, 23, 21, 22, 17]
45.879[19, 20, 20, 19, 21, 19, 21, 19]
45.894[18, 20, 19, 19, 20, 22, 22, 19]
45.925[19, 20, 19, 19, 19, 21, 22, 20]
45.939[18, 18, 20, 21, 20, 21, 23, 21]
45.954[17, 20, 22, 26, 19, 21, 21, 21]
45.977[17, 20, 22, 25, 20, 21, 22, 18]
45.999[18, 18, 22, 26, 21, 18, 21, 20]
46.014[18, 21, 23, 26, 20, 19, 20, 18]
46.037[18, 22, 21, 23, 20, 19, 17, 16]
46.059[19, 20, 20, 20, 21, 20, 19, 17]
46.073[21, 20, 21, 25, 21, 20, 18, 18]
46.098[21, 22, 22, 25, 22, 21, 18, 17]
46.118[20, 21, 23, 26, 23, 21, 19, 17]
46.142[21, 21, 24, 28, 21, 21, 19, 17]
46.157[21, 21, 23, 26, 21, 21, 19, 19]
46.178[19, 22, 22, 21, 20, 20, 18, 18]
46.201[19, 20, 22, 22, 18, 19, 18, 19]
46.217[18, 20, 20, 23, 18, 19, 18, 19]
46.238[19, 17, 20, 24, 19, 18, 20, 19]
46.261[20, 18, 22, 25, 20, 17, 18, 19]
46.277[20, 17, 20, 25, 19, 19, 19, 19]
46.3[19, 20, 20, 25, 19, 18, 19, 19]
46.321[20, 21, 20, 24, 20, 20, 19, 20]
46.337[18, 23, 20, 21, 19, 21, 18, 20]
46.358[18, 22, 19, 25, 18, 21, 18, 19]
46.381[20, 21, 18, 25, 17, 22, 18, 20]
46.397[20, 21, 18, 24, 19, 22, 19, 20]
46.419[20, 21, 20, 23, 18, 20, 19, 19]
46.441[19, 22, 18, 24, 19, 21, 18, 20]
46.457[19, 22, 20, 27, 20, 21, 20, 21]
46.478[17, 21, 20, 27, 21, 18, 20, 21]
46.501[17, 20, 20, 27, 19, 17, 21, 22]
46.517[17, 20, 20, 28, 21, 18, 21, 23]
46.538[19, 18, 23, 26, 20, 17, 22, 21]
46.561[20, 17, 23, 25, 20, 16, 23, 20]
46.577[20, 18, 22, 25, 18, 18, 23, 19]
46.6[20, 20, 23, 24, 20, 19, 22, 17]
46.621[20, 21, 22, 23, 20, 18, 21, 17]
46.637[18, 21, 23, 28, 22, 20, 21, 17]
46.658[16, 21, 22, 24, 22, 21, 21, 16]
46.681[16, 22, 24, 25, 23, 21, 20, 15]
46.697[16, 24, 22, 27, 25, 21, 20, 14]
46.718[15, 23, 23, 29, 23, 22, 21, 16]
46.741[17, 23, 22, 30, 23, 21, 18, 17]
46.765[18, 23, 23, 31, 23, 20, 17, 16]
46.778[18, 23, 23, 30, 22, 21, 18, 16]
46.801[22, 18, 23, 29, 20, 20, 18, 17]
46.817[23, 20, 22, 27, 20, 18, 17, 17]
46.838[22, 20, 23, 24, 19, 17, 18, 15]
46.861[24, 19, 23, 24, 20, 17, 16, 16]
46.877[24, 19, 23, 23, 20, 17, 15, 17]
46.898[21, 19, 25, 24, 20, 17, 16, 17]
46.921[21, 20, 27, 27, 21, 18, 16, 18]
46.937[23, 20, 25, 24, 23, 19, 17, 18]
46.958[21, 23, 24, 23, 22, 19, 17, 18]
46.981[23, 23, 24, 21, 22, 19, 18, 18]
46.996[23, 24, 23, 27, 22, 21, 17, 18]
47.019[22, 21, 20, 24, 22, 20, 19, 16]
47.041[20, 23, 20, 25, 20, 21, 19, 17]
47.056[19, 19, 21, 26, 22, 20, 21, 19]
47.078[18, 18, 22, 31, 21, 21, 20, 18]
47.101[16, 18, 26, 30, 22, 20, 21, 18]
47.116[19, 19, 27, 30, 23, 19, 19, 18]
47.138[18, 21, 27, 29, 22, 17, 18, 19]
47.161[19, 21, 27, 27, 20, 18, 17, 19]
47.176[18, 22, 25, 23, 21, 18, 19, 18]
47.198[22, 23, 21, 18, 20, 17, 20, 20]
47.221[21, 22, 18, 25, 18, 19, 19, 20]
47.244[22, 19, 19, 25, 19, 19, 20, 23]
47.258[21, 21, 20, 25, 21, 19, 20, 21]
47.281[22, 19, 23, 24, 21, 17, 20, 21]
47.303[21, 19, 25, 26, 19, 17, 18, 20]
47.318[19, 20, 25, 26, 21, 17, 17, 20]
47.341[19, 21, 24, 27, 21, 17, 17, 17]
47.364[19, 20, 23, 27, 20, 15, 18, 20]
47.378[17, 21, 21, 28, 20, 17, 17, 21]
47.401[19, 20, 20, 26, 21, 18, 19, 22]
47.423[21, 21, 19, 20, 20, 16, 20, 22]
47.439[21, 21, 23, 26, 19, 18, 20, 22]
47.461[21, 20, 22, 26, 19, 20, 19, 20]
47.483[22, 20, 22, 31, 20, 18, 20, 19]
47.498[21, 21, 22, 31, 18, 19, 20, 20]
47.521[19, 20, 24, 30, 20, 20, 20, 20]
47.543[18, 21, 22, 25, 21, 20, 19, 19]
47.56[19, 21, 22, 26, 20, 19, 21, 20]
47.581[20, 23, 23, 20, 19, 20, 20, 19]
47.603[19, 22, 24, 27, 20, 19, 19, 21]
47.618[19, 21, 22, 27, 19, 19, 17, 19]
47.641[20, 21, 21, 26, 19, 19, 17, 17]
47.663[21, 19, 20, 27, 18, 19, 18, 19]
47.678[20, 16, 23, 31, 20, 19, 18, 19]
47.701[21, 21, 21, 26, 20, 20, 19, 18]
47.724[20, 20, 23, 25, 21, 21, 20, 19]
47.738[19, 21, 23, 26, 20, 19, 21, 21]
47.761[18, 21, 26, 29, 21, 19, 20, 19]
47.783[18, 21, 22, 24, 20, 19, 19, 20]
47.806[18, 21, 24, 23, 20, 20, 19, 19]
47.821[18, 22, 23, 25, 20, 19, 20, 20]
47.843[17, 21, 24, 24, 22, 19, 19, 17]
47.858[19, 22, 23, 25, 22, 19, 18, 17]
47.881[18, 23, 24, 27, 21, 19, 22, 17]
47.904[18, 21, 21, 28, 23, 19, 21, 18]
47.918[19, 22, 21, 28, 22, 19, 19, 17]
47.941[19, 21, 23, 34, 19, 19, 22, 18]
47.964[18, 20, 21, 30, 19, 19, 22, 18]
47.986[18, 21, 24, 29, 20, 20, 20, 18]
48.001[19, 20, 23, 27, 18, 19, 19, 17]
48.023[19, 18, 24, 31, 17, 20, 20, 17]
48.038[19, 20, 23, 26, 17, 20, 18, 17]
48.061[20, 21, 24, 27, 18, 22, 19, 18]
48.084[21, 21, 21, 28, 17, 20, 18, 22]
48.098[22, 22, 25, 36, 20, 21, 21, 21]
48.121[21, 23, 24, 31, 21, 20, 20, 23]
48.144[22, 23, 23, 29, 21, 20, 20, 22]
48.166[23, 23, 22, 31, 20, 17, 19, 21]
48.181[23, 22, 22, 32, 21, 18, 20, 15]
48.203[22, 22, 20, 24, 20, 19, 17, 15]
48.226[21, 21, 20, 23, 19, 19, 17, 15]
48.241[19, 22, 23, 32, 19, 20, 17, 16]
48.264[19, 20, 23, 32, 21, 20, 16, 17]
48.286[17, 20, 23, 30, 19, 20, 15, 19]
48.301[18, 20, 24, 34, 19, 19, 15, 20]
48.323[19, 22, 25, 37, 19, 19, 20, 21]
48.346[19, 22, 22, 30, 19, 20, 20, 21]
48.361[19, 22, 22, 29, 19, 21, 19, 22]
48.391[20, 25, 23, 29, 20, 20, 20, 21]
48.406[18, 24, 22, 29, 21, 20, 21, 20]
48.421[17, 22, 21, 26, 21, 20, 18, 20]
48.443[18, 24, 24, 26, 22, 19, 19, 19]
48.466[17, 24, 25, 25, 23, 18, 20, 16]
48.481[20, 21, 24, 28, 23, 18, 20, 17]
48.504[20, 25, 23, 22, 22, 16, 19, 17]
48.526[21, 24, 23, 23, 21, 16, 18, 16]
48.541[21, 22, 20, 23, 21, 16, 16, 16]
48.563[22, 22, 21, 29, 18, 15, 17, 16]
48.586[20, 22, 20, 26, 20, 18, 17, 16]
48.601[21, 18, 21, 25, 20, 18, 18, 17]
48.623[20, 19, 20, 26, 22, 19, 19, 19]
48.646[20, 21, 20, 26, 22, 20, 21, 19]
48.661[20, 20, 19, 27, 22, 21, 21, 20]
48.683[19, 20, 18, 27, 22, 19, 22, 20]
48.706[19, 20, 20, 29, 21, 19, 23, 18]
48.721[20, 19, 21, 28, 18, 20, 22, 17]
48.743[20, 19, 22, 29, 17, 19, 21, 17]
48.766[21, 19, 22, 24, 18, 18, 21, 17]
48.781[22, 19, 22, 24, 16, 19, 19, 18]
48.803[23, 18, 21, 22, 16, 19, 18, 19]
48.826[23, 19, 24, 27, 18, 18, 18, 18]
48.841[23, 19, 22, 25, 21, 20, 19, 18]
48.863[22, 18, 22, 24, 21, 20, 16, 19]
48.886[21, 19, 22, 24, 20, 20, 18, 16]
48.901[19, 21, 22, 29, 21, 21, 20, 18]
48.923[20, 20, 20, 25, 21, 22, 19, 19]
48.947[17, 20, 20, 25, 20, 20, 18, 19]
48.961[20, 20, 20, 24, 19, 20, 21, 19]
48.983[19, 20, 21, 30, 19, 20, 19, 19]
49.006[20, 20, 21, 25, 19, 18, 19, 17]
49.021[20, 22, 23, 26, 18, 17, 18, 17]
49.044[23, 20, 24, 26, 16, 16, 19, 19]
49.067[24, 22, 25, 26, 17, 18, 17, 19]
49.081[23, 22, 28, 24, 18, 18, 16, 21]
49.103[23, 23, 26, 25, 19, 19, 16, 21]
49.127[22, 22, 24, 24, 20, 19, 15, 21]
49.149[21, 24, 24, 27, 20, 19, 17, 19]
49.163[18, 23, 26, 34, 21, 18, 16, 19]
49.186[19, 24, 23, 31, 20, 19, 17, 19]
49.209[19, 22, 24, 30, 19, 18, 18, 19]
49.223[19, 22, 23, 30, 18, 20, 21, 20]
49.246[19, 21, 25, 30, 20, 19, 19, 20]
49.269[19, 20, 20, 24, 19, 19, 21, 21]
49.283[19, 19, 21, 25, 20, 17, 20, 22]
49.306[19, 20, 22, 25, 21, 18, 19, 23]
49.329[19, 19, 23, 29, 23, 17, 18, 22]
49.343[19, 20, 21, 25, 23, 18, 18, 22]
49.366[19, 21, 23, 24, 23, 19, 19, 21]
49.389[19, 20, 24, 27, 22, 20, 19, 20]
49.403[18, 21, 24, 28, 23, 19, 20, 19]
49.426[20, 20, 24, 24, 21, 19, 20, 19]
49.449[18, 20, 24, 25, 21, 18, 21, 19]
49.463[19, 19, 23, 25, 19, 17, 18, 20]
49.486[19, 19, 21, 29, 19, 18, 19, 19]
49.509[19, 19, 20, 30, 18, 19, 19, 20]
49.523[19, 21, 19, 29, 20, 20, 18, 20]
49.546[21, 21, 22, 30, 19, 21, 18, 18]
49.569[20, 20, 23, 32, 19, 22, 18, 18]
49.583[20, 20, 23, 26, 19, 21, 19, 19]
49.606[20, 19, 24, 21, 19, 22, 18, 19]
49.629[19, 21, 27, 25, 20, 22, 18, 19]
49.644[17, 20, 24, 24, 19, 22, 19, 21]
49.666[17, 19, 25, 21, 20, 22, 19, 22]
49.689[16, 19, 23, 21, 21, 23, 16, 21]
49.704[18, 19, 23, 23, 20, 21, 20, 18]
49.726[18, 17, 20, 26, 19, 20, 20, 17]
49.749[17, 18, 21, 26, 20, 20, 20, 17]
49.763[18, 19, 20, 26, 20, 18, 20, 17]
49.786[17, 19, 23, 26, 19, 17, 21, 20]
49.809[16, 19, 25, 30, 20, 18, 20, 21]
49.823[15, 19, 24, 26, 19, 18, 20, 22]
49.846[17, 20, 23, 26, 20, 20, 21, 21]
49.869[17, 19, 24, 27, 19, 21, 23, 20]
49.883[20, 20, 22, 28, 19, 20, 23, 19]
49.906[22, 21, 23, 25, 18, 19, 22, 19]
49.929[23, 22, 22, 24, 21, 19, 22, 18]
49.943[22, 23, 23, 25, 21, 18, 22, 18]
49.966[22, 23, 25, 31, 22, 18, 22, 17]
49.989[21, 24, 24, 29, 23, 19, 21, 18]
50.003[19, 23, 21, 27, 24, 19, 21, 18]
50.026[18, 24, 23, 29, 22, 19, 19, 18]
50.049[19, 23, 24, 30, 21, 20, 17, 21]
50.071[20, 24, 22, 23, 21, 22, 18, 21]
50.086[18, 23, 23, 23, 21, 22, 19, 20]
50.109[19, 22, 25, 22, 19, 24, 19, 20]
50.131[19, 21, 27, 23, 21, 25, 19, 20]
50.146[17, 18, 25, 25, 21, 23, 19, 19]
50.169[17, 20, 23, 24, 21, 21, 18, 18]
50.191[18, 17, 24, 28, 20, 20, 19, 19]
50.207[17, 18, 23, 28, 21, 17, 19, 19]
50.229[17, 20, 22, 27, 21, 18, 19, 19]
50.251[19, 21, 23, 25, 20, 19, 19, 19]
50.266[19, 19, 24, 27, 19, 20, 20, 19]
50.289[19, 21, 25, 28, 20, 19, 20, 20]
50.311[19, 21, 24, 27, 19, 19, 19, 19]
50.327[20, 20, 21, 27, 19, 18, 19, 19]
50.349[19, 20, 21, 29, 20, 17, 20, 17]
50.371[19, 20, 21, 31, 20, 16, 18, 18]
50.386[19, 20, 19, 27, 20, 17, 16, 18]
50.409