[18, 18, 22, 17, 20, 19, 17, 18]
0.993[19, 20, 20, 17, 22, 18, 17, 19]
1.017[18, 20, 22, 19, 21, 18, 16, 20]
1.039[19, 19, 19, 21, 20, 16, 16, 22]
1.054[19, 19, 20, 20, 21, 17, 18, 20]
1.076[17, 18, 19, 24, 19, 18, 17, 20]
1.098[15, 15, 22, 23, 17, 19, 21, 21]
1.115[15, 15, 20, 22, 16, 20, 21, 20]
1.136[15, 15, 21, 21, 17, 21, 22, 18]
1.167[16, 16, 20, 20, 15, 19, 21, 19]
1.173[18, 17, 22, 18, 15, 19, 22, 18]
1.196[18, 18, 20, 18, 16, 19, 20, 18]
1.218[19, 19, 20, 20, 17, 19, 22, 20]
1.234[18, 17, 22, 19, 18, 18, 22, 20]
1.255[18, 19, 20, 19, 18, 21, 20, 22]
1.278[17, 18, 19, 17, 18, 21, 20, 22]
1.294[18, 18, 19, 19, 18, 22, 19, 22]
1.316[18, 18, 21, 16, 19, 21, 20, 21]
1.338[19, 19, 19, 18, 18, 22, 20, 22]
1.361[19, 17, 20, 19, 18, 20, 21, 19]
1.376[20, 19, 22, 21, 20, 22, 21, 18]
1.398[19, 18, 21, 20, 20, 21, 21, 17]
1.414[19, 18, 20, 19, 19, 21, 20, 17]
1.436[17, 18, 20, 19, 22, 22, 21, 17]
1.46[16, 19, 19, 17, 22, 23, 21, 17]
1.481[16, 18, 18, 17, 21, 22, 20, 16]
1.496[17, 19, 18, 17, 19, 23, 22, 18]
1.527[16, 19, 19, 20, 20, 22, 21, 17]
1.549[17, 18, 20, 20, 18, 22, 20, 16]
1.555[19, 18, 21, 20, 18, 19, 20, 18]
1.586[19, 18, 20, 20, 18, 19, 20, 18]
1.602[19, 19, 21, 21, 18, 17, 19, 17]
1.615[18, 19, 21, 19, 17, 18, 20, 17]
1.638[18, 19, 21, 18, 17, 16, 21, 18]
1.661[15, 19, 20, 18, 17, 18, 21, 20]
1.676[18, 18, 21, 19, 18, 18, 20, 19]
1.699[17, 19, 21, 18, 18, 20, 22, 19]
1.721[18, 19, 21, 17, 17, 20, 21, 20]
1.736[18, 19, 20, 18, 17, 22, 19, 20]
1.759[20, 19, 21, 17, 20, 21, 20, 19]
1.781[18, 20, 19, 17, 19, 21, 20, 20]
1.797[19, 18, 20, 17, 19, 20, 19, 20]
1.818[18, 19, 19, 18, 20, 20, 19, 20]
1.84[18, 19, 21, 18, 20, 20, 20, 19]
1.855[18, 19, 20, 20, 18, 19, 20, 20]
1.878[17, 18, 22, 19, 17, 20, 20, 20]
1.9[18, 21, 22, 19, 17, 20, 20, 19]
1.925[19, 20, 22, 19, 19, 19, 20, 19]
1.938[20, 20, 21, 19, 18, 18, 20, 20]
1.96[20, 22, 22, 17, 21, 19, 19, 19]
1.983[19, 22, 21, 17, 21, 18, 18, 18]
2.006[19, 21, 21, 19, 21, 18, 17, 19]
2.02[18, 21, 22, 19, 19, 18, 16, 18]
2.043[17, 22, 20, 18, 22, 19, 17, 17]
2.066[18, 21, 19, 19, 19, 18, 17, 19]
2.08[18, 20, 19, 20, 20, 19, 17, 18]
2.103[17, 20, 20, 17, 21, 19, 18, 20]
2.126[19, 22, 21, 17, 22, 18, 21, 21]
2.141[18, 21, 22, 18, 20, 20, 21, 21]
2.163[17, 21, 22, 21, 20, 20, 21, 20]
2.186[17, 22, 22, 20, 21, 21, 21, 21]
2.2[20, 23, 19, 20, 20, 22, 20, 19]
2.223[20, 21, 18, 20, 20, 24, 17, 19]
2.246[22, 21, 19, 21, 22, 21, 16, 19]
2.261[23, 20, 19, 21, 23, 22, 19, 20]
2.283[23, 20, 19, 20, 22, 20, 18, 19]
2.306[23, 18, 19, 22, 21, 19, 18, 22]
2.321[22, 17, 19, 21, 20, 19, 19, 21]
2.343[21, 19, 20, 20, 20, 19, 18, 20]
2.366[19, 20, 19, 18, 19, 19, 18, 20]
2.38[20, 19, 22, 19, 18, 19, 18, 21]
2.403[17, 19, 22, 17, 18, 19, 19, 19]
2.433[17, 21, 22, 18, 20, 18, 20, 20]
2.441[17, 20, 22, 17, 21, 19, 20, 21]
2.463[17, 19, 23, 19, 21, 20, 18, 21]
2.486[19, 20, 22, 20, 21, 21, 17, 20]
2.5[22, 20, 22, 21, 23, 22, 18, 18]
2.523[22, 20, 22, 21, 22, 21, 17, 18]
2.546[23, 21, 20, 21, 20, 19, 18, 18]
2.56[23, 20, 19, 20, 21, 17, 19, 18]
2.583[21, 20, 18, 18, 22, 16, 20, 18]
2.606[19, 20, 18, 18, 19, 14, 19, 19]
2.62[19, 20, 17, 19, 20, 16, 19, 19]
2.643[20, 19, 18, 21, 20, 18, 19, 20]
2.666[21, 20, 18, 19, 18, 17, 19, 20]
2.68[20, 20, 19, 20, 17, 18, 18, 20]
2.703[20, 18, 20, 21, 19, 18, 18, 21]
2.726[19, 17, 21, 20, 18, 20, 18, 20]
2.74[18, 18, 20, 19, 19, 20, 18, 19]
2.763[17, 19, 19, 19, 21, 20, 19, 20]
2.786[18, 21, 18, 20, 21, 21, 20, 21]
2.8[17, 21, 18, 19, 21, 22, 20, 21]
2.823[18, 20, 21, 18, 20, 20, 20, 22]
2.846[17, 23, 21, 18, 21, 21, 20, 23]
2.86[16, 22, 21, 20, 20, 22, 20, 22]
2.884[21, 20, 21, 18, 20, 21, 20, 20]
2.906[21, 21, 21, 19, 19, 21, 20, 21]
2.928[21, 21, 19, 20, 19, 21, 21, 20]
2.943[22, 17, 19, 20, 18, 21, 22, 21]
2.966[22, 17, 18, 19, 17, 21, 21, 20]
2.988[20, 18, 18, 22, 17, 22, 20, 22]
3.003[19, 18, 19, 22, 16, 21, 20, 21]
3.026[21, 19, 18, 21, 17, 22, 19, 21]
3.048[20, 19, 19, 21, 18, 22, 19, 20]
3.063[21, 17, 20, 20, 20, 22, 18, 21]
3.086[18, 18, 21, 18, 20, 20, 20, 19]
3.108[19, 19, 19, 19, 22, 21, 22, 19]
3.123[20, 18, 20, 20, 24, 19, 21, 18]
3.146[21, 21, 19, 19, 23, 18, 20, 17]
3.169[21, 23, 19, 19, 22, 18, 21, 17]
3.183[23, 21, 19, 20, 22, 18, 20, 18]
3.214[22, 20, 21, 20, 23, 17, 18, 16]
3.228[20, 21, 19, 20, 21, 16, 19, 17]
3.243[21, 19, 20, 21, 21, 17, 22, 19]
3.273[21, 17, 20, 20, 20, 17, 22, 17]
3.288[20, 18, 19, 21, 20, 19, 21, 18]
3.303[20, 18, 18, 21, 18, 18, 21, 19]
3.326[19, 18, 20, 21, 18, 19, 20, 17]
3.348[19, 20, 19, 20, 18, 20, 17, 17]
3.363[19, 22, 18, 22, 19, 22, 16, 18]
3.386[18, 21, 19, 20, 19, 21, 19, 18]
3.408[19, 21, 19, 20, 19, 21, 19, 19]
3.422[21, 20, 20, 19, 19, 21, 18, 19]
3.446[21, 19, 21, 20, 20, 19, 18, 19]
3.468[22, 19, 21, 21, 20, 17, 17, 19]
3.483[22, 22, 21, 21, 21, 19, 14, 19]
3.507[21, 21, 22, 21, 20, 19, 14, 19]
3.528[22, 21, 21, 21, 19, 20, 15, 20]
3.55[21, 21, 23, 21, 18, 20, 17, 20]
3.567[20, 20, 25, 18, 17, 21, 18, 21]
3.587[21, 21, 27, 18, 19, 20, 18, 20]
3.61[21, 22, 25, 17, 20, 19, 17, 21]
3.627[22, 22, 25, 19, 20, 20, 18, 20]
3.648[22, 21, 24, 17, 21, 20, 17, 20]
3.67[24, 20, 23, 18, 21, 22, 18, 18]
3.687[23, 19, 21, 17, 21, 20, 18, 19]
3.708[23, 18, 23, 20, 19, 22, 19, 20]
3.724[21, 19, 23, 19, 21, 21, 20, 21]
3.747[21, 19, 22, 19, 20, 22, 21, 20]
3.769[20, 19, 19, 19, 20, 21, 21, 20]
3.784[20, 19, 20, 20, 18, 21, 20, 19]
3.807[22, 19, 17, 16, 18, 20, 20, 19]
3.827[20, 17, 18, 18, 18, 20, 20, 18]
3.85[21, 18, 19, 19, 18, 22, 20, 21]
3.866[18, 17, 21, 19, 18, 22, 19, 20]
3.887[17, 18, 21, 19, 20, 22, 20, 20]
3.91[15, 22, 21, 19, 21, 20, 20, 20]
3.926[15, 21, 21, 19, 21, 22, 18, 20]
3.947[15, 21, 21, 18, 19, 20, 18, 17]
3.97[17, 21, 21, 18, 20, 20, 17, 19]
3.986[17, 21, 20, 18, 20, 20, 18, 18]
4.007[17, 16, 22, 18, 21, 20, 17, 17]
4.03[19, 17, 22, 18, 21, 17, 17, 17]
4.047[19, 18, 22, 20, 22, 17, 17, 18]
4.067[17, 19, 21, 20, 21, 18, 17, 19]
4.091[18, 19, 22, 21, 21, 17, 16, 20]
4.105[17, 20, 22, 21, 19, 18, 16, 20]
4.128[17, 22, 21, 22, 20, 21, 16, 21]
4.15[16, 20, 22, 21, 21, 21, 17, 21]
4.166[18, 20, 22, 20, 22, 20, 17, 20]
4.188[18, 19, 22, 19, 21, 20, 18, 18]
4.21[21, 19, 21, 18, 23, 20, 18, 19]
4.227[20, 16, 22, 18, 22, 18, 18, 19]
4.249[22, 18, 24, 18, 22, 17, 17, 19]
4.27[21, 16, 22, 17, 22, 16, 18, 18]
4.285[21, 16, 22, 18, 21, 16, 16, 18]
4.308[19, 15, 22, 19, 19, 16, 17, 18]
4.33[19, 17, 21, 17, 21, 16, 17, 18]
4.345[18, 15, 20, 16, 21, 18, 16, 18]
4.368[20, 17, 21, 17, 20, 18, 16, 20]
4.39[19, 17, 21, 18, 22, 19, 17, 20]
4.405[19, 18, 20, 17, 22, 17, 19, 20]
4.428[20, 18, 22, 16, 20, 16, 18, 20]
4.45[20, 19, 20, 17, 18, 17, 20, 21]
4.465[19, 18, 22, 18, 19, 19, 19, 22]
4.488[19, 18, 21, 17, 18, 18, 20, 23]
4.51[21, 18, 20, 17, 18, 19, 19, 21]
4.525[21, 17, 20, 18, 19, 21, 19, 22]
4.548[21, 19, 20, 18, 19, 19, 20, 21]
4.571[21, 18, 20, 17, 20, 17, 20, 17]
4.585[21, 19, 20, 17, 19, 17, 20, 16]
4.608[20, 21, 20, 17, 19, 17, 20, 17]
4.63[19, 21, 20, 17, 19, 16, 21, 18]
4.645[19, 20, 21, 18, 20, 20, 20, 19]
4.668[20, 20, 21, 17, 21, 21, 19, 21]
4.69[21, 20, 20, 18, 23, 22, 19, 20]
4.705[21, 19, 22, 20, 23, 21, 18, 20]
4.727[20, 20, 20, 20, 23, 23, 18, 19]
4.75[20, 21, 20, 20, 24, 20, 18, 18]
4.765[19, 22, 19, 20, 22, 20, 18, 17]
4.788[18, 22, 19, 20, 20, 21, 19, 17]
4.81[18, 22, 18, 18, 21, 21, 20, 18]
4.833[18, 21, 21, 17, 20, 19, 20, 20]
4.848[18, 20, 20, 17, 19, 18, 20, 20]
4.87[17, 19, 21, 19, 20, 20, 20, 19]
4.893[17, 18, 20, 18, 21, 19, 18, 20]
4.915[17, 19, 21, 18, 20, 22, 16, 19]
4.93[17, 19, 19, 20, 21, 22, 18, 17]
4.953[19, 20, 18, 19, 21, 22, 18, 17]
4.983[20, 20, 19, 18, 21, 20, 18, 18]
4.99[20, 21, 19, 18, 19, 22, 18, 17]
5.013[20, 22, 19, 18, 19, 18, 18, 18]
5.027[21, 21, 20, 17, 21, 18, 17, 18]
5.051[21, 22, 19, 19, 21, 18, 18, 18]
5.073[21, 23, 18, 19, 21, 20, 19, 18]
5.087[21, 21, 19, 19, 22, 17, 17, 17]
5.11[20, 20, 18, 22, 22, 18, 17, 16]
5.132[18, 20, 18, 23, 19, 18, 17, 16]
5.147[19, 18, 18, 22, 19, 19, 17, 14]
5.171[19, 18, 19, 20, 21, 17, 16, 15]
5.193[20, 17, 19, 20, 21, 17, 20, 16]
5.208[20, 18, 20, 18, 21, 18, 20, 16]
5.23[21, 20, 21, 19, 20, 18, 20, 16]
5.253[19, 19, 21, 19, 20, 18, 20, 18]
5.268[19, 19, 21, 20, 18, 19, 21, 18]
5.29[18, 22, 19, 21, 20, 19, 18, 19]
5.321[19, 21, 18, 21, 19, 19, 20, 19]
5.327[18, 19, 19, 20, 20, 20, 21, 21]
5.35[16, 21, 18, 19, 20, 20, 20, 19]
5.373[18, 22, 18, 18, 20, 18, 19, 19]
5.387[18, 21, 19, 17, 19, 20, 20, 19]
5.41[18, 22, 22, 16, 21, 20, 19, 18]
5.433[20, 22, 21, 18, 20, 21, 20, 18]
5.447[21, 22, 20, 19, 20, 20, 21, 18]
5.47[19, 22, 22, 20, 20, 21, 21, 19]
5.492[19, 20, 22, 21, 20, 19, 21, 18]
5.507[19, 19, 19, 21, 18, 20, 22, 19]
5.53[18, 20, 21, 21, 18, 17, 20, 18]
5.553[17, 22, 23, 19, 18, 18, 20, 18]
5.567[17, 23, 22, 20, 22, 18, 20, 18]
5.59[18, 23, 22, 19, 22, 20, 19, 18]
5.612[18, 23, 22, 21, 21, 20, 19, 17]
5.627[16, 24, 22, 20, 21, 21, 17, 18]
5.65[17, 22, 21, 20, 22, 20, 18, 20]
5.673[17, 23, 25, 18, 19, 20, 19, 21]
5.687[17, 22, 24, 18, 19, 21, 19, 20]
5.71[17, 22, 24, 16, 19, 21, 19, 21]
5.733[18, 22, 25, 16, 20, 21, 20, 21]
5.755[20, 23, 26, 19, 20, 21, 18, 22]
5.77[20, 20, 24, 19, 19, 21, 16, 21]
5.792[20, 19, 24, 20, 17, 21, 18, 21]
5.815[19, 18, 24, 20, 18, 20, 18, 20]
5.83[20, 20, 23, 21, 19, 18, 18, 21]
5.853[19, 17, 21, 21, 17, 19, 21, 16]
5.876[17, 19, 19, 21, 18, 19, 21, 18]
5.89[19, 20, 20, 22, 21, 17, 20, 19]
5.913[23, 20, 19, 22, 23, 18, 22, 18]
5.936[22, 19, 17, 21, 23, 18, 21, 18]
5.95[23, 19, 18, 19, 24, 17, 19, 18]
5.981[24, 18, 19, 20, 25, 19, 20, 16]
5.996[23, 17, 22, 18, 24, 19, 19, 19]
6.01[20, 17, 21, 18, 21, 19, 17, 20]
6.033[20, 20, 22, 17, 20, 22, 17, 21]
6.056[17, 20, 23, 19, 18, 22, 19, 22]
6.07[18, 22, 22, 18, 17, 22, 19, 23]
6.093[20, 22, 19, 19, 15, 22, 20, 21]
6.116[20, 23, 21, 19, 16, 21, 19, 20]
6.13[20, 20, 20, 20, 15, 18, 20, 20]
6.153[21, 22, 20, 20, 17, 18, 19, 20]
6.176[20, 20, 21, 20, 17, 18, 19, 18]
6.19[19, 21, 20, 19, 18, 19, 19, 18]
6.212[19, 20, 19, 19, 18, 18, 18, 18]
6.236[19, 22, 20, 18, 18, 20, 19, 17]
6.25[20, 20, 21, 18, 18, 20, 20, 18]
6.273[20, 22, 21, 18, 21, 21, 19, 18]
6.296[20, 21, 22, 19, 21, 19, 19, 18]
6.31[20, 22, 22, 19, 21, 20, 21, 17]
6.333[20, 20, 22, 20, 22, 19, 19, 18]
6.356[18, 22, 22, 20, 21, 19, 20, 18]
6.37[18, 19, 21, 19, 20, 17, 20, 19]
6.393[16, 22, 20, 19, 21, 19, 20, 18]
6.416[15, 21, 19, 18, 22, 18, 20, 19]
6.43[14, 21, 20, 18, 21, 20, 19, 17]
6.453[16, 21, 19, 21, 22, 20, 18, 18]
6.483[17, 20, 20, 22, 20, 21, 17, 16]
6.498[18, 19, 20, 20, 19, 19, 18, 17]
6.512[20, 20, 21, 21, 18, 21, 17, 16]
6.536[20, 20, 22, 19, 18, 19, 16, 19]
6.55[21, 19, 23, 17, 19, 19, 16, 17]
6.572[21, 21, 21, 20, 20, 18, 15, 19]
6.603[20, 22, 21, 20, 18, 18, 15, 19]
6.61[19, 22, 22, 19, 19, 15, 16, 19]
6.633[19, 21, 20, 21, 19, 18, 19, 17]
6.656[18, 23, 18, 20, 18, 19, 18, 17]
6.67[18, 22, 20, 19, 17, 19, 18, 18]
6.693[18, 20, 19, 20, 18, 20, 18, 17]
6.716[22, 19, 19, 21, 16, 22, 19, 17]
6.738[23, 22, 19, 19, 16, 21, 17, 18]
6.753[22, 21, 21, 20, 18, 20, 18, 18]
6.776[21, 20, 23, 19, 18, 21, 20, 16]
6.798[21, 21, 23, 19, 20, 19, 20, 17]
6.813[20, 21, 22, 19, 20, 16, 19, 18]
6.836[18, 19, 22, 21, 20, 17, 20, 17]
6.859[19, 18, 22, 20, 20, 16, 20, 17]
6.873[20, 20, 19, 20, 20, 17, 19, 17]
6.896[19, 20, 19, 20, 19, 19, 19, 16]
6.918[19, 21, 20, 20, 19, 19, 19, 17]
6.932[19, 22, 18, 20, 20, 19, 19, 17]
6.955[21, 22, 20, 22, 17, 19, 19, 16]
6.978[21, 22, 19, 21, 18, 19, 19, 17]
6.993[21, 22, 22, 21, 18, 19, 18, 15]
7.016[20, 21, 23, 20, 19, 19, 19, 15]
7.038[20, 22, 24, 18, 20, 18, 18, 17]
7.053[18, 24, 24, 16, 21, 20, 20, 18]
7.076[17, 24, 24, 16, 21, 20, 20, 19]
7.114[16, 23, 22, 17, 20, 19, 20, 21]
7.128[16, 23, 22, 18, 19, 20, 20, 21]
7.136[15, 23, 21, 19, 18, 21, 20, 21]
7.158[18, 20, 21, 20, 20, 18, 19, 21]
7.173[18, 19, 21, 21, 22, 18, 17, 21]
7.195[19, 19, 19, 20, 21, 19, 17, 19]
7.218[21, 21, 18, 20, 21, 20, 18, 20]
7.233[22, 18, 18, 20, 20, 19, 19, 21]
7.255[21, 22, 16, 18, 19, 19, 18, 21]
7.278[21, 22, 15, 19, 17, 18, 18, 21]
7.292[22, 22, 16, 20, 18, 18, 19, 21]
7.316[20, 22, 18, 18, 20, 17, 18, 20]
7.338[20, 24, 18, 20, 23, 18, 16, 20]
7.352[19, 21, 18, 20, 22, 20, 18, 18]
7.375[20, 21, 19, 20, 21, 21, 18, 19]
7.398[21, 21, 20, 19, 20, 20, 18, 18]
7.413[20, 20, 20, 19, 20, 21, 18, 20]
7.436[22, 19, 20, 18, 18, 20, 20, 20]
7.458[22, 18, 22, 18, 17, 19, 19, 20]
7.472[21, 20, 21, 18, 18, 23, 19, 19]
7.496[19, 20, 20, 22, 18, 23, 19, 20]
7.518[20, 21, 19, 22, 17, 22, 20, 21]
7.532[18, 20, 19, 22, 17, 22, 19, 20]
7.556[20, 21, 17, 23, 17, 23, 19, 22]
7.578[21, 23, 17, 22, 16, 19, 20, 21]
7.592[22, 23, 19, 19, 15, 19, 20, 22]
7.616[21, 21, 19, 20, 15, 19, 19, 19]
7.638[21, 21, 18, 19, 15, 19, 19, 20]
7.668[21, 22, 20, 20, 15, 18, 19, 19]
7.683[21, 18, 23, 20, 17, 20, 20, 19]
7.698[22, 19, 22, 21, 17, 20, 20, 20]
7.721[23, 21, 23, 20, 18, 21, 20, 20]
7.743[23, 21, 24, 21, 20, 19, 20, 20]
7.758[23, 22, 23, 22, 20, 20, 20, 22]
7.781[22, 23, 19, 22, 20, 17, 18, 21]
7.796[21, 21, 20, 21, 20, 17, 17, 21]
7.818[20, 20, 20, 20, 22, 18, 17, 20]
7.841[19, 21, 20, 20, 20, 18, 20, 18]
7.856[18, 20, 22, 17, 23, 16, 19, 18]
7.893[20, 23, 23, 17, 22, 18, 19, 18]
7.9[20, 23, 21, 15, 22, 18, 19, 17]
7.916[20, 22, 22, 18, 20, 16, 18, 19]
7.938[21, 22, 21, 17, 22, 17, 15, 19]
7.968[22, 21, 18, 18, 21, 18, 18, 20]
7.983[20, 18, 18, 19, 21, 18, 16, 19]
7.998[18, 17, 19, 20, 22, 16, 17, 18]
8.021[21, 16, 18, 19, 21, 17, 17, 17]
8.035[19, 17, 18, 20, 21, 19, 17, 21]
8.058[19, 18, 20, 20, 21, 18, 15, 19]
8.081[20, 17, 20, 20, 20, 17, 16, 21]
8.096[21, 17, 22, 21, 21, 18, 16, 20]
8.118[19, 19, 22, 19, 22, 18, 16, 22]
8.141[19, 19, 22, 20, 21, 17, 17, 19]
8.155[18, 19, 19, 20, 21, 18, 17, 20]
8.179[18, 19, 20, 19, 21, 18, 16, 20]
8.201[17, 21, 15, 19, 20, 18, 17, 20]
8.215[16, 19, 15, 21, 20, 18, 17, 20]
8.238[19, 18, 17, 19, 20, 17, 18, 21]
8.261[20, 21, 18, 20, 19, 16, 18, 22]
8.275[20, 21, 17, 21, 21, 17, 18, 21]
8.298[19, 19, 19, 20, 22, 18, 20, 22]
8.321[21, 19, 19, 19, 22, 17, 20, 21]
8.335[18, 22, 21, 21, 22, 20, 19, 20]
8.358[17, 22, 20, 19, 22, 19, 19, 19]
8.381[19, 23, 23, 19, 21, 21, 19, 19]
8.395[20, 24, 22, 20, 20, 21, 17, 18]
8.418[19, 24, 23, 21, 19, 21, 15, 19]
8.441[20, 22, 20, 18, 19, 19, 17, 19]
8.455[20, 22, 21, 17, 22, 20, 17, 17]
8.479[18, 22, 19, 20, 22, 18, 18, 19]
8.5[18, 20, 20, 19, 22, 18, 19, 18]
8.522[17, 20, 21, 19, 25, 19, 20, 17]
8.539[16, 22, 21, 19, 26, 20, 18, 18]
8.56[18, 20, 20, 20, 23, 20, 19, 22]
8.583[19, 21, 21, 20, 22, 21, 18, 22]
8.599[19, 21, 20, 22, 23, 22, 18, 21]
8.62[19, 24, 20, 22, 21, 23, 20, 23]
8.643[21, 23, 19, 22, 19, 21, 21, 23]
8.659[21, 23, 21, 23, 20, 22, 20, 21]
8.68[19, 21, 21, 22, 21, 21, 21, 21]
8.702[20, 22, 22, 20, 17, 21, 20, 21]
8.719[21, 19, 21, 19, 19, 20, 20, 21]
8.74[20, 18, 21, 21, 19, 20, 19, 21]
8.77[18, 17, 22, 21, 19, 19, 18, 21]
8.779[19, 19, 22, 21, 19, 20, 18, 20]
8.8[17, 18, 21, 21, 20, 19, 17, 21]
8.822[16, 20, 21, 21, 20, 19, 15, 20]
8.839[15, 20, 22, 20, 20, 20, 16, 19]
8.86[15, 20, 21, 19, 20, 19, 17, 18]
8.882[14, 20, 21, 20, 20, 18, 18, 17]
8.906[15, 19, 21, 19, 20, 18, 19, 17]
8.92[15, 20, 22, 19, 21, 18, 21, 16]
8.942[18, 21, 22, 20, 20, 18, 20, 16]
8.959[19, 22, 22, 20, 20, 18, 20, 20]
8.98[19, 21, 24, 19, 22, 20, 20, 20]
9.002[19, 21, 24, 20, 20, 20, 20, 20]
9.019[20, 19, 22, 20, 18, 20, 20, 21]
9.041[19, 17, 21, 19, 20, 20, 19, 21]
9.062[18, 17, 20, 18, 20, 20, 19, 17]
9.079[19, 17, 19, 20, 18, 18, 17, 18]
9.101[19, 17, 19, 18, 18, 17, 18, 17]
9.122[17, 18, 20, 19, 18, 18, 20, 18]
9.139[17, 18, 20, 20, 17, 19, 20, 18]
9.16[18, 19, 22, 20, 17, 19, 20, 19]
9.182[18, 18, 20, 18, 17, 19, 22, 18]
9.199[19, 20, 23, 21, 19, 19, 21, 20]
9.22[19, 22, 24, 21, 20, 18, 21, 18]
9.242[22, 22, 24, 20, 19, 18, 22, 18]
9.266[21, 22, 22, 22, 20, 18, 22, 19]
9.28[22, 24, 22, 22, 20, 18, 22, 20]
9.302[23, 23, 19, 21, 19, 18, 21, 17]
9.319[24, 23, 18, 20, 18, 17, 21, 20]
9.34[21, 23, 19, 20, 19, 17, 20, 20]
9.362[22, 36, 20, 19, 18, 16, 19, 21]
9.379[19, 35, 23, 20, 20, 17, 18, 20]
9.4[18, 34, 21, 20, 21, 19, 18, 20]
9.422[18, 34, 23, 21, 21, 19, 18, 21]
9.439[18, 34, 23, 21, 20, 20, 18, 20]
9.46[18, 21, 24, 20, 20, 20, 19, 20]
9.482[18, 21, 23, 19, 19, 20, 19, 20]
9.498[17, 22, 23, 18, 19, 18, 18, 22]
9.52[18, 19, 21, 18, 19, 20, 19, 20]
9.542[19, 19, 21, 19, 22, 18, 18, 20]
9.565[20, 18, 19, 20, 22, 18, 17, 19]
9.587[19, 20, 18, 20, 22, 16, 17, 19]
9.602[20, 20, 19, 22, 23, 16, 16, 17]
9.625[20, 22, 18, 21, 23, 16, 15, 17]
9.641[19, 23, 19, 20, 21, 17, 16, 17]
9.662[18, 23, 20, 20, 20, 19, 16, 18]
9.685[18, 22, 20, 20, 21, 20, 17, 19]
9.7[17, 22, 20, 19, 20, 21, 18, 19]
9.722[17, 21, 20, 18, 20, 20, 19, 19]
9.745[19, 21, 19, 19, 19, 19, 19, 19]
9.76[19, 20, 19, 19, 22, 18, 18, 19]
9.782[20, 20, 20, 17, 20, 19, 18, 18]
9.805[20, 21, 20, 20, 21, 17, 18, 19]
9.82[21, 21, 22, 20, 21, 17, 16, 19]
9.842[20, 19, 21, 20, 21, 17, 17, 18]
9.865[20, 21, 21, 21, 19, 17, 19, 18]
9.88[21, 21, 18, 23, 20, 17, 17, 18]
9.902[21, 20, 19, 20, 20, 17, 17, 17]
9.925[18, 20, 19, 20, 20, 17, 18, 18]
9.94[19, 20, 21, 21, 20, 18, 17, 19]
9.962[20, 20, 22, 21, 19, 18, 16, 19]
9.985[18, 20, 22, 20, 19, 18, 15, 21]
10.0[19, 21, 20, 22, 20, 18, 15, 20]
10.022[20, 20, 20, 21, 19, 19, 15, 21]
10.045[20, 21, 17, 21, 20, 18, 17, 20]
10.06[19, 20, 17, 22, 21, 18, 17, 20]
10.082[19, 19, 17, 22, 21, 18, 17, 19]
10.105[18, 19, 19, 20, 21, 19, 17, 20]
10.12[17, 20, 19, 21, 21, 20, 18, 19]
10.151[16, 19, 20, 21, 20, 20, 18, 21]
10.165[18, 18, 21, 19, 21, 20, 18, 20]
10.187[19, 17, 21, 20, 20, 21, 19, 20]
10.202[20, 18, 22, 21, 20, 21, 20, 20]
10.225[21, 18, 24, 19, 21, 19, 20, 19]
10.24[23, 18, 24, 19, 20, 20, 20, 17]
10.262[23, 17, 23, 17, 20, 21, 22, 18]
10.285[22, 20, 22, 19, 20, 19, 21, 17]
10.3[23, 19, 21, 17, 18, 19, 20, 17]
10.322[21, 21, 19, 18, 18, 19, 20, 17]
10.345[22, 22, 19, 19, 19, 19, 19, 19]
10.36[21, 24, 18, 20, 19, 19, 18, 19]
10.382[21, 22, 19, 19, 20, 22, 17, 20]
10.406[20, 21, 20, 23, 21, 21, 17, 19]
10.42[22, 20, 18, 22, 19, 22, 19, 21]
10.442[19, 21, 18, 21, 19, 22, 20, 19]
10.465[18, 19, 18, 21, 19, 23, 19, 19]
10.488[18, 20, 18, 22, 20, 22, 19, 19]
10.502[18, 22, 21, 20, 20, 21, 19, 20]
10.525[18, 19, 20, 21, 22, 21, 17, 20]
10.548[19, 22, 20, 22, 21, 22, 14, 19]
10.562[19, 23, 20, 23, 20, 20, 15, 19]
10.585[20, 22, 21, 22, 19, 19, 16, 18]
10.608[21, 22, 18, 21, 19, 18, 16, 17]
10.623[18, 23, 20, 21, 17, 18, 17, 17]
10.645[19, 21, 20, 21, 20, 16, 18, 18]
10.667[21, 21, 22, 20, 19, 17, 18, 19]
10.682[20, 21, 22, 19, 19, 17, 19, 19]
10.705[19, 19, 22, 18, 21, 19, 18, 18]
10.727[19, 19, 21, 17, 22, 18, 18, 17]
10.742[19, 20, 20, 18, 21, 19, 18, 17]
10.765[16, 20, 22, 20, 23, 18, 17, 18]
10.787[17, 20, 21, 21, 23, 18, 18, 18]
10.802[17, 21, 22, 22, 21, 17, 19, 19]
10.826[19, 21, 23, 22, 20, 17, 19, 19]
10.847[19, 19, 24, 21, 19, 17, 19, 19]
10.862[21, 19, 23, 20, 19, 18, 21, 18]
10.885[20, 19, 23, 19, 20, 18, 21, 18]
10.907[21, 17, 22, 20, 20, 17, 20, 17]
10.922[20, 18, 23, 19, 22, 17, 20, 19]
10.945[21, 18, 23, 20, 23, 18, 19, 19]
10.967[21, 20, 22, 21, 22, 19, 18, 18]
10.982[22, 19, 22, 21, 22, 18, 18, 19]
11.005[23, 21, 22, 19, 23, 19, 18, 19]
11.027[23, 21, 20, 20, 23, 22, 18, 18]
11.042[22, 21, 20, 18, 22, 22, 19, 18]
11.065[20, 23, 19, 16, 22, 22, 19, 19]
11.087[20, 22, 19, 17, 20, 22, 18, 17]
11.102[20, 23, 19, 20, 21, 25, 17, 17]
11.125[19, 22, 20, 21, 19, 22, 17, 16]
11.147[20, 23, 22, 21, 19, 22, 20, 18]
11.162[20, 20, 21, 23, 20, 20, 19, 18]
11.185[20, 22, 20, 24, 22, 22, 19, 19]
11.207[17, 21, 21, 21, 21, 20, 19, 20]
11.231[16, 21, 21, 22, 21, 20, 18, 23]
11.245[17, 21, 20, 22, 21, 19, 17, 21]
11.267[19, 21, 20, 21, 22, 20, 17, 21]
11.282[20, 20, 21, 21, 21, 19, 19, 21]
11.305[20, 19, 22, 22, 20, 18, 19, 20]
11.328[21, 21, 22, 22, 21, 18, 21, 17]
11.342[20, 20, 22, 22, 20, 19, 19, 17]
11.365[17, 19, 22, 23, 19, 18, 21, 17]
11.388[15, 20, 21, 23, 19, 16, 20, 17]
11.402[18, 21, 19, 23, 18, 19, 20, 17]
11.425[18, 20, 21, 23, 17, 19, 19, 16]
11.448[20, 21, 21, 23, 18, 19, 19, 16]
11.47[21, 21, 22, 20, 18, 19, 18, 17]
11.485[20, 21, 23, 22, 18, 20, 17, 16]
11.507[21, 21, 23, 20, 20, 16, 17, 16]
11.53[20, 23, 21, 20, 21, 17, 18, 16]
11.545[18, 23, 19, 21, 20, 18, 17, 16]
11.568[19, 28, 20, 21, 21, 18, 16, 15]
11.59[22, 27, 19, 20, 22, 18, 17, 17]
11.605[20, 25, 19, 20, 22, 19, 17, 17]
11.628[21, 23, 21, 19, 21, 18, 17, 17]
11.65[22, 23, 20, 18, 22, 17, 17, 17]
11.665[23, 18, 19, 20, 22, 17, 20, 18]
11.688[22, 19, 18, 18, 22, 17, 20, 17]
11.71[22, 20, 18, 21, 23, 18, 21, 18]
11.725[22, 21, 17, 19, 22, 18, 22, 18]
11.748[24, 20, 17, 20, 21, 19, 22, 18]
11.77[24, 20, 18, 19, 21, 19, 21, 18]
11.785[23, 19, 18, 21, 19, 20, 21, 16]
11.808[23, 20, 18, 19, 18, 19, 20, 17]
11.83[21, 18, 20, 19, 18, 20, 19, 16]
11.845[19, 20, 20, 19, 20, 21, 19, 17]
11.868[17, 19, 22, 20, 20, 19, 19, 18]
11.891[16, 20, 22, 19, 20, 20, 19, 20]
11.905[15, 20, 22, 21, 21, 21, 19, 19]
11.928[17, 21, 22, 23, 20, 20, 21, 21]
11.95[18, 18, 23, 21, 19, 19, 22, 21]
11.965[19, 19, 22, 21, 19, 21, 24, 21]
11.988[20, 20, 23, 22, 18, 20, 24, 20]
12.01[22, 21, 23, 20, 18, 20, 25, 19]
12.025[21, 20, 22, 20, 19, 20, 21, 19]
12.048[22, 21, 21, 20, 22, 21, 21, 18]
12.07[21, 21, 20, 19, 22, 19, 19, 17]
12.093[21, 21, 20, 19, 22, 20, 19, 19]
12.108[21, 21, 19, 19, 22, 19, 18, 19]
12.13[21, 22, 21, 18, 22, 21, 20, 19]
12.145[18, 22, 22, 18, 21, 21, 19, 19]
12.169[19, 21, 24, 18, 22, 22, 18, 21]
12.19[19, 21, 24, 18, 24, 21, 21, 22]
12.205[22, 23, 27, 23, 28, 47, 87, 43]
12.228[25, 24, 28, 34, 125, 93, 245, 69]
12.25[50, 33, 35, 72, 262, 146, 346, 175]
12.265[61, 43, 58, 186, 382, 180, 500, 241]
12.288[74, 55, 81, 274, 485, 233, 561, 309]
12.31[97, 78, 105, 333, 622, 258, 688, 347]
12.325[123, 88, 123, 375, 720, 267, 773, 395]
12.348[130, 96, 136, 404, 723, 287, 790, 467]
12.37[139, 99, 132, 379, 700, 279, 734, 467]
12.393[152, 95, 131, 381, 731, 287, 824, 523]
12.408[166, 84, 117, 344, 698, 288, 755, 516]
12.43[153, 78, 100, 308, 619, 307, 702, 504]
12.454[152, 71, 87, 274, 611, 294, 680, 482]
12.468[158, 66, 85, 263, 621, 331, 813, 500]
12.49[144, 64, 68, 180, 562, 312, 708, 436]
12.513[121, 57, 62, 167, 478, 314, 721, 440]
12.528[120, 56, 63, 162, 453, 296, 684, 421]
12.55[110, 55, 61, 158, 433, 290, 713, 368]
12.581[90, 51, 59, 156, 389, 257, 556, 325]
12.588[99, 55, 68, 176, 365, 249, 572, 318]
12.61[93, 58, 76, 184, 371, 225, 544, 303]
12.633[96, 60, 76, 182, 422, 212, 593, 341]
12.648[109, 55, 76, 187, 448, 193, 567, 344]
12.67[126, 60, 77, 191, 436, 177, 602, 359]
12.693[128, 63, 74, 181, 409, 160, 614, 347]
12.707[130, 65, 73, 176, 460, 175, 600, 353]
12.73[137, 61, 74, 196, 437, 193, 549, 360]
12.753[125, 62, 71, 184, 380, 195, 508, 342]
12.768[117, 60, 70, 182, 391, 198, 465, 360]
12.79[116, 58, 67, 171, 409, 194, 433, 384]
12.813[110, 52, 58, 174, 340, 185, 440, 374]
12.828[105, 55, 60, 160, 300, 188, 458, 332]
12.851[110, 56, 58, 163, 329, 189, 493, 352]
12.873[94, 54, 58, 162, 334, 182, 514, 311]
12.887[81, 50, 54, 154, 294, 178, 473, 253]
12.91[95, 51, 55, 149, 300, 185, 488, 261]
12.933[90, 48, 51, 143, 308, 155, 458, 265]
12.947[98, 42, 48, 140, 280, 155, 426, 298]
12.971[105, 43, 46, 142, 309, 170, 388, 323]
12.993[107, 42, 43, 143, 301, 177, 428, 325]
13.007[101, 46, 45, 134, 292, 192, 429, 324]
13.03[97, 49, 48, 146, 309, 193, 450, 321]
13.053[85, 49, 48, 154, 330, 184, 465, 274]
13.067[77, 45, 46, 144, 308, 179, 463, 243]
13.09[75, 46, 48, 148, 336, 183, 450, 246]
13.113[67, 41, 45, 146, 334, 152, 426, 242]
13.128[65, 39, 46, 124, 322, 148, 410, 238]
13.15[62, 38, 47, 116, 322, 172, 395, 241]
13.173[69, 41, 47, 113, 305, 164, 393, 238]
13.187[68, 41, 46, 102, 273, 149, 364, 241]
13.21[69, 40, 45, 94, 269, 149, 369, 231]
13.233[71, 39, 39, 91, 249, 144, 340, 228]
13.248[73, 43, 43, 96, 234, 113, 319, 199]
13.27[78, 40, 48, 152, 254, 161, 323, 216]
13.293[77, 39, 48, 156, 261, 168, 336, 209]
13.315[83, 39, 49, 155, 245, 177, 302, 209]
13.331[80, 38, 48, 153, 276, 211, 283, 218]
13.353[85, 32, 46, 153, 288, 214, 285, 227]
13.375[93, 37, 41, 99, 252, 199, 281, 284]
13.39[101, 40, 40, 101, 282, 198, 289, 288]
13.413[106, 41, 40, 113, 298, 188, 290, 322]
13.435[111, 44, 41, 124, 278, 184, 317, 322]
13.451[111, 44, 40, 112, 251, 202, 329, 341]
13.474[94, 40, 40, 126, 294, 179, 324, 280]
13.495[86, 40, 43, 136, 288, 189, 332, 274]
13.511[86, 44, 46, 131, 291, 192, 348, 256]
13.532[81, 44, 44, 122, 278, 162, 348, 246]
13.555[72, 45, 45, 121, 285, 140, 372, 198]
13.571[77, 46, 48, 116, 244, 144, 409, 230]
13.592[82, 46, 49, 104, 234, 141, 400, 248]
13.615[79, 42, 48, 102, 216, 145, 407, 247]
13.631[77, 39, 47, 99, 211, 146, 401, 250]
13.653[84, 38, 44, 97, 202, 145, 382, 275]
13.675[81, 37, 38, 90, 207, 159, 333, 251]
13.691[79, 33, 35, 90, 175, 148, 319, 259]
13.712[74, 35, 38, 94, 192, 148, 326, 241]
13.735[82, 35, 40, 102, 208, 147, 328, 267]
13.757[75, 41, 42, 116, 219, 166, 322, 252]
13.774[74, 52, 42, 114, 226, 157, 325, 246]
13.795[75, 58, 44, 123, 241, 151, 310, 268]
13.811[73, 56, 40, 127, 263, 164, 317, 263]
13.833[68, 58, 39, 133, 250, 168, 322, 232]
13.855[78, 54, 39, 124, 247, 144, 316, 225]
13.871[81, 45, 39, 128, 256, 142, 307, 219]
13.892[81, 36, 37, 120, 281, 162, 339, 198]
13.922[76, 35, 35, 111, 260, 141, 307, 191]
13.931[75, 32, 38, 109, 280, 134, 298, 189]
13.952[64, 34, 41, 115, 276, 135, 300, 189]
13.975[63, 32, 40, 108, 257, 137, 298, 195]
13.991[59, 34, 41, 116, 222, 136, 338, 174]
14.012[62, 36, 45, 125, 223, 155, 352, 174]
14.036[57, 34, 43, 119, 210, 154, 353, 172]
14.051[60, 33, 40, 112, 211, 154, 336, 171]
14.072[58, 33, 41, 117, 231, 161, 370, 157]
14.095[53, 32, 40, 108, 233, 142, 321, 114]
14.111[47, 29, 37, 96, 220, 147, 332, 109]
14.132[48, 31, 34, 92, 225, 164, 353, 105]
14.155[48, 29, 35, 92, 217, 161, 365, 133]
14.171[49, 31, 38, 86, 198, 148, 321, 141]
14.192[50, 30, 36, 80, 196, 183, 356, 169]
14.215[50, 30, 33, 87, 222, 174, 353, 173]
14.231[67, 32, 36, 94, 198, 162, 346, 211]
14.252[75, 33, 34, 89, 214, 172, 362, 233]
14.282[76, 34, 31, 86, 203, 178, 366, 243]
14.299[75, 35, 37, 90, 200, 147, 351, 230]
14.312[85, 36, 37, 92, 174, 137, 335, 266]
14.335[73, 33, 36, 95, 198, 133, 334, 240]
14.357[70, 32, 35, 95, 192, 146, 356, 221]
14.372[74, 33, 40, 100, 200, 147, 378, 216]
14.395[72, 33, 38, 95, 235, 145, 354, 212]
14.417[61, 33, 38, 86, 241, 150, 357, 175]
14.432[60, 35, 39, 77, 238, 148, 375, 174]
14.455[52, 37, 40, 91, 232, 145, 344, 154]
14.477[43, 34, 36, 98, 256, 140, 346, 181]
14.492[50, 33, 33, 97, 219, 143, 395, 197]
14.515[48, 32, 35, 99, 231, 150, 397, 185]
14.537[49, 38, 39, 112, 221, 161, 364, 189]
14.552[52, 40, 45, 119, 223, 144, 347, 217]
14.575[49, 38, 43, 113, 191, 160, 326, 184]
14.597[42, 39, 45, 115, 206, 151, 256, 169]
14.612[55, 40, 44, 111, 192, 148, 235, 195]
14.635[60, 36, 43, 105, 192, 151, 301, 203]
14.657[60, 33, 36, 84, 189, 162, 317, 168]
14.672[64, 36, 39, 84, 239, 162, 316, 183]
14.695[66, 36, 39, 82, 229, 166, 356, 205]
14.717[55, 36, 41, 88, 224, 169, 411, 193]
14.732[50, 33, 37, 79, 236, 158, 384, 184]
14.754[52, 33, 37, 80, 237, 147, 383, 232]
14.777[55, 31, 36, 79, 187, 172, 414, 230]
14.792[58, 31, 37, 81, 188, 171, 382, 217]
14.814[68, 31, 35, 74, 195, 159, 337, 231]
14.837[68, 31, 37, 72, 187, 188, 343, 225]
14.852[63, 32, 41, 77, 219, 189, 361, 177]
14.874[57, 32, 39, 71, 239, 149, 343, 166]
14.897[57, 37, 36, 65, 243, 163, 354, 173]
14.912[51, 35, 35, 67, 237, 179, 398, 149]
14.935[49, 36, 35, 87, 246, 150, 422, 147]
14.957[51, 36, 36, 89, 224, 153, 399, 143]
14.972[56, 37, 37, 101, 204, 160, 398, 142]
14.995[59, 32, 38, 104, 207, 153, 402, 119]
15.018[55, 33, 39, 107, 206, 131, 382, 102]
15.032[58, 34, 39, 102, 186, 131, 338, 108]
15.054[64, 35, 36, 97, 206, 129, 349, 145]
15.077[64, 37, 36, 87, 219, 124, 330, 166]
15.092[67, 39, 37, 85, 211, 114, 336, 161]
15.116[66, 38, 38, 97, 237, 132, 310, 169]
15.137[71, 36, 37, 101, 277, 123, 315, 196]
15.152[72, 34, 38, 99, 273, 132, 332, 237]
15.174[82, 35, 38, 100, 256, 135, 330, 263]
15.205[79, 34, 38, 100, 257, 151, 366, 282]
15.219[84, 36, 36, 93, 272, 146, 389, 289]
15.234[82, 38, 38, 72, 229, 157, 393, 276]
15.257[78, 40, 38, 76, 213, 147, 384, 225]
15.279[65, 38, 39, 71, 261, 176, 391, 176]
15.295[62, 36, 38, 75, 262, 166, 342, 191]
15.317[69, 35, 40, 69, 233, 174, 308, 199]
15.34[68, 33, 39, 74, 282, 170, 298, 205]
15.354[64, 30, 37, 73, 279, 174, 264, 202]
15.377[65, 30, 34, 75, 248, 145, 386, 228]
15.399[70, 34, 35, 76, 277, 158, 398, 190]
15.414[59, 34, 34, 71, 260, 146, 393, 173]
15.441[54, 37, 34, 68, 204, 162, 392, 158]
15.46[55, 38, 35, 73, 221, 170, 419, 168]
15.475[58, 38, 36, 75, 235, 168, 316, 150]
15.497[55, 35, 35, 71, 214, 147, 311, 156]
15.519[55, 34, 35, 71, 210, 154, 308, 144]
15.535[60, 34, 36, 82, 242, 134, 290, 144]
15.557[59, 34, 34, 84, 226, 122, 248, 139]
15.58[54, 34, 35, 83, 204, 153, 302, 121]
15.594[53, 31, 35, 86, 207, 160, 296, 125]
15.617[65, 34, 34, 92, 244, 161, 325, 160]
15.639[61, 30, 29, 84, 214, 158, 328, 152]
15.655[60, 28, 29, 74, 209, 181, 417, 153]
15.678[61, 30, 29, 76, 248, 163, 368, 151]
15.699[58, 31, 28, 90, 243, 163, 368, 158]
15.715[54, 32, 29, 85, 211, 158, 391, 159]
15.738[55, 32, 31, 84, 270, 163, 417, 161]
15.76[54, 35, 31, 84, 272, 136, 333, 152]
15.775[57, 33, 30, 82, 259, 118, 332, 170]
15.797[70, 33, 29, 58, 246, 108, 317, 160]
15.82[70, 31, 27, 53, 248, 108, 260, 123]
15.835[69, 31, 25, 45, 173, 96, 205, 118]
15.857[67, 28, 24, 42, 174, 85, 185, 109]
15.879[65, 27, 24, 35, 121, 85, 159, 73]
15.895[47, 29, 25, 31, 111, 78, 140, 50]
15.917[32, 26, 25, 29, 89, 48, 96, 38]
15.94[28, 26, 25, 28, 82, 44, 70, 32]
15.955[29, 23, 24, 26, 58, 34, 66, 30]
15.977[24, 22, 22, 24, 50, 26, 50, 26]
16.0[24, 20, 23, 23, 36, 23, 41, 23]
16.015[21, 19, 23, 23, 28, 19, 28, 22]
16.037[21, 19, 23, 21, 24, 17, 23, 20]
16.06[19, 19, 22, 21, 22, 17, 22, 17]
16.075[18, 21, 23, 22, 21, 17, 19, 18]
16.097[19, 20, 23, 24, 21, 18, 19, 17]
16.12[21, 19, 27, 25, 20, 17, 17, 19]
16.135[24, 20, 28, 23, 19, 19, 18, 21]
16.157[24, 22, 28, 24, 18, 21, 18, 21]
16.18[25, 25, 28, 24, 19, 21, 20, 21]
16.204[23, 25, 27, 23, 20, 18, 21, 21]
16.217[24, 28, 22, 23, 19, 19, 21, 21]
16.24[22, 27, 22, 24, 20, 17, 19, 19]
16.27[22, 28, 20, 24, 21, 16, 21, 19]
16.277[21, 24, 20, 23, 19, 17, 18, 22]
16.3[24, 25, 20, 21, 20, 19, 20, 22]
16.323[20, 22, 22, 21, 21, 19, 21, 21]
16.337[21, 24, 22, 20, 20, 19, 21, 22]
16.36[22, 23, 22, 20, 18, 20, 21, 21]
16.383[22, 22, 21, 20, 19, 19, 21, 21]
16.397[20, 22, 21, 20, 18, 18, 19, 21]
16.42[22, 21, 19, 23, 19, 19, 20, 19]
16.443[20, 19, 16, 24, 20, 19, 19, 18]
16.457[19, 19, 17, 24, 20, 20, 19, 20]
16.48[18, 20, 16, 25, 19, 20, 18, 20]
16.503[19, 20, 18, 24, 21, 21, 19, 19]
16.518[17, 21, 21, 20, 20, 20, 18, 21]
16.54[19, 22, 22, 19, 21, 20, 19, 23]
16.563[20, 21, 107, 18, 21, 17, 17, 22]
16.577[20, 22, 151, 18, 20, 18, 18, 21]
16.599[24, 20, 164, 21, 20, 17, 17, 22]
16.623[25, 21, 165, 20, 19, 20, 17, 28]
16.637[19, 24, 22, 20, 17, 17, 19, 43]
0.923[19, 23, 22, 20, 18, 17, 17, 21]
0.939[20, 20, 20, 20, 17, 17, 19, 21]
0.962[18, 20, 18, 18, 17, 17, 19, 21]
0.984[19, 18, 17, 19, 17, 17, 19, 19]
0.999[20, 17, 19, 17, 17, 16, 20, 20]
1.021[19, 17, 18, 19, 16, 17, 23, 21]
1.047[19, 19, 18, 20, 17, 16, 23, 20]
1.066[18, 19, 18, 20, 17, 17, 22, 19]
1.081[16, 19, 17, 21, 18, 18, 25, 21]
1.103[18, 18, 14, 21, 19, 18, 24, 22]
1.119[19, 18, 14, 20, 19, 17, 20, 20]
1.141[20, 18, 15, 19, 20, 19, 20, 19]
1.164[22, 19, 15, 19, 21, 18, 21, 21]
1.179[22, 20, 19, 18, 20, 18, 19, 19]
1.202[22, 21, 20, 18, 18, 18, 18, 18]
1.223[21, 21, 20, 18, 18, 19, 19, 21]
1.239[21, 20, 22, 20, 19, 19, 19, 22]
1.261[19, 19, 22, 19, 18, 18, 19, 21]
1.284[19, 17, 21, 20, 18, 18, 18, 21]
1.299[18, 18, 21, 21, 20, 20, 19, 22]
1.321[18, 19, 22, 22, 19, 21, 19, 22]
1.343[21, 19, 19, 21, 17, 22, 18, 21]
1.358[23, 19, 21, 22, 18, 23, 17, 22]
1.381[22, 19, 19, 21, 17, 23, 20, 21]
1.404[23, 19, 19, 19, 16, 22, 21, 20]
1.427[25, 17, 19, 18, 18, 21, 21, 20]
1.441[22, 18, 20, 17, 19, 19, 22, 20]
1.464[21, 18, 18, 18, 18, 20, 22, 20]
1.486[21, 18, 21, 21, 20, 20, 20, 20]
1.501[20, 19, 20, 21, 21, 19, 21, 22]
1.523[17, 19, 20, 22, 20, 19, 21, 19]
1.546[16, 18, 20, 24, 19, 18, 20, 20]
1.562[17, 18, 22, 21, 20, 17, 21, 20]
1.583[16, 17, 21, 20, 19, 16, 21, 21]
1.606[16, 17, 20, 20, 17, 16, 23, 20]
1.621[16, 17, 21, 18, 18, 17, 22, 21]
1.644[20, 17, 20, 18, 18, 17, 22, 23]
1.666[21, 17, 17, 19, 16, 18, 22, 23]
1.681[21, 17, 16, 18, 16, 18, 21, 22]
1.704[23, 18, 17, 19, 17, 20, 18, 22]
1.726[29, 18, 18, 20, 16, 18, 18, 21]
1.741[27, 19, 20, 18, 17, 17, 18, 18]
1.772[26, 20, 21, 18, 17, 17, 19, 20]
1.786[26, 20, 21, 19, 16, 16, 18, 20]
1.801[25, 21, 21, 18, 18, 15, 18, 21]
1.823[19, 22, 20, 18, 19, 15, 18, 21]
1.846[19, 20, 18, 19, 21, 17, 19, 22]
1.869[21, 20, 19, 19, 21, 18, 20, 20]
1.884[22, 21, 20, 18, 21, 19, 19, 21]
1.906[23, 22, 20, 19, 21, 20, 18, 18]
1.929[22, 20, 20, 19, 21, 21, 18, 19]
1.959[23, 21, 21, 20, 21, 21, 18, 20]
1.966[21, 23, 20, 21, 21, 20, 17, 20]
1.989[20, 22, 19, 21, 20, 19, 17, 19]
2.011[20, 22, 20, 20, 19, 21, 18, 19]
2.026[20, 22, 20, 20, 20, 20, 19, 19]
2.049[20, 22, 21, 20, 19, 19, 18, 18]
2.071[22, 20, 21, 19, 20, 21, 19, 18]
2.086[22, 20, 22, 18, 22, 21, 19, 18]
2.109[20, 21, 21, 19, 22, 20, 20, 19]
2.132[20, 21, 20, 19, 23, 19, 19, 20]
2.146[21, 22, 19, 18, 23, 19, 18, 20]
2.169[20, 23, 21, 17, 22, 19, 18, 20]
2.191[18, 22, 21, 20, 20, 18, 18, 20]
2.207[21, 22, 22, 20, 19, 20, 17, 20]
2.229[21, 23, 23, 20, 18, 20, 17, 17]
2.251[21, 22, 23, 20, 16, 18, 17, 18]
2.266[20, 22, 22, 21, 15, 17, 16, 18]
2.289[20, 23, 21, 20, 17, 20, 17, 19]
2.311[18, 22, 21, 21, 18, 18, 17, 20]
2.326[19, 23, 21, 21, 19, 18, 18, 21]
2.349[20, 23, 19, 24, 19, 20, 18, 20]
2.371[21, 23, 19, 22, 20, 21, 18, 23]
2.386[21, 22, 18, 21, 20, 19, 19, 23]
2.409[20, 23, 18, 22, 19, 19, 18, 21]
2.431[20, 21, 19, 20, 19, 21, 20, 22]
2.445[19, 22, 19, 20, 19, 20, 20, 22]
2.469[17, 21, 21, 21, 19, 20, 21, 20]
2.491[16, 21, 23, 22, 19, 22, 19, 19]
2.505[16, 20, 22, 22, 21, 22, 21, 19]
2.536[16, 20, 21, 23, 20, 20, 19, 18]
2.551[14, 19, 21, 21, 21, 20, 18, 17]
2.566[17, 18, 20, 21, 20, 20, 19, 18]
2.589[20, 20, 19, 18, 20, 18, 19, 18]
2.611[20, 20, 20, 18, 17, 17, 18, 17]
2.626[21, 22, 20, 19, 18, 17, 18, 16]
2.649[22, 21, 22, 20, 19, 16, 18, 18]
2.671[21, 24, 21, 21, 19, 15, 18, 18]
2.686[18, 23, 21, 21, 20, 17, 18, 19]
2.709[18, 22, 22, 23, 20, 18, 20, 21]
2.731[19, 21, 21, 22, 22, 18, 18, 21]
2.746[19, 22, 19, 22, 21, 19, 18, 21]
2.769[19, 20, 21, 23, 22, 19, 17, 19]
2.791[22, 19, 20, 23, 23, 19, 19, 19]
2.806[22, 21, 20, 21, 24, 20, 20, 18]
2.829[21, 20, 20, 21, 21, 21, 19, 20]
2.852[21, 21, 21, 19, 22, 20, 19, 19]
2.881[22, 22, 22, 18, 22, 20, 21, 19]
2.889[19, 22, 21, 19, 24, 21, 19, 19]
2.912[20, 20, 20, 18, 23, 20, 17, 19]
2.934[19, 20, 20, 20, 25, 18, 18, 17]
2.949[19, 19, 20, 19, 25, 18, 18, 18]
2.971[19, 18, 20, 18, 24, 18, 18, 18]
2.994[19, 19, 20, 19, 22, 16, 19, 19]
3.009[18, 21, 21, 19, 23, 17, 18, 20]
3.031[19, 22, 21, 17, 21, 18, 20, 20]
3.054[18, 21, 21, 19, 19, 19, 19, 19]
3.069[19, 24, 23, 18, 22, 20, 19, 19]
3.091[19, 22, 22, 18, 23, 19, 18, 19]
3.114[19, 23, 21, 21, 21, 20, 18, 17]
3.128[18, 21, 21, 21, 23, 20, 15, 19]
3.152[19, 22, 22, 20, 23, 20, 16, 19]
3.174[18, 20, 19, 22, 20, 19, 16, 19]
3.19[20, 21, 20, 21, 20, 19, 17, 20]
3.211[19, 20, 20, 18, 20, 19, 18, 21]
3.234[20, 21, 20, 19, 18, 18, 18, 19]
3.249[20, 20, 20, 21, 18, 18, 19, 20]
3.271[20, 21, 21, 22, 19, 18, 18, 20]
3.294[17, 20, 20, 22, 18, 19, 18, 20]
3.308[18, 20, 21, 23, 19, 18, 18, 19]
3.331[18, 20, 21, 23, 19, 19, 19, 19]
3.354[15, 20, 19, 21, 21, 18, 20, 19]
3.368[16, 19, 16, 19, 19, 18, 19, 21]
3.391[17, 18, 18, 21, 20, 20, 19, 20]
3.414[17, 19, 17, 20, 20, 21, 17, 20]
3.435[17, 17, 16, 18, 20, 21, 19, 20]
3.452[17, 18, 18, 20, 19, 21, 18, 20]
3.473[18, 17, 19, 21, 21, 21, 18, 19]
3.496[18, 16, 18, 19, 20, 18, 20, 19]
3.512[18, 16, 22, 19, 20, 18, 21, 18]
3.533[19, 16, 22, 20, 19, 19, 20, 19]
3.556[18, 17, 20, 19, 18, 19, 21, 17]
3.572[19, 17, 20, 18, 18, 20, 19, 17]
3.593[19, 18, 21, 19, 18, 19, 19, 17]
3.616[19, 18, 19, 19, 19, 21, 19, 19]
3.632[19, 19, 19, 20, 21, 21, 18, 18]
3.653[19, 18, 21, 19, 21, 22, 19, 19]
3.669[18, 20, 22, 20, 20, 21, 20, 19]
3.692[17, 20, 22, 21, 21, 22, 19, 20]
3.713[19, 20, 20, 21, 21, 20, 18, 19]
3.729[18, 20, 21, 21, 19, 21, 20, 18]
3.752[19, 19, 19, 23, 20, 19, 19, 17]
3.774[17, 19, 21, 21, 21, 19, 19, 18]
3.795[19, 19, 20, 19, 21, 21, 20, 17]
3.812[17, 18, 20, 20, 20, 22, 20, 15]
3.833[17, 19, 20, 21, 20, 20, 19, 15]
3.855[17, 21, 21, 19, 21, 21, 19, 18]
3.872[17, 20, 19, 20, 20, 20, 20, 17]
3.893[17, 20, 21, 22, 20, 19, 19, 18]
3.915[20, 21, 21, 21, 21, 19, 17, 18]
3.932[21, 21, 20, 17, 22, 18, 19, 19]
3.961[21, 20, 20, 19, 21, 17, 19, 17]
3.975[23, 21, 19, 18, 22, 17, 18, 17]
3.99[22, 22, 18, 18, 22, 17, 18, 18]
4.013[20, 22, 19, 20, 24, 17, 19, 18]
4.035[21, 21, 20, 20, 23, 17, 20, 17]
4.051[21, 21, 21, 20, 22, 17, 20, 17]
4.073[19, 21, 21, 20, 21, 18, 21, 18]
4.095[20, 18, 21, 19, 23, 19, 20, 18]
4.11[21, 19, 21, 18, 22, 20, 20, 18]
4.133[20, 20, 21, 21, 22, 21, 17, 18]
4.155[20, 22, 19, 19, 22, 21, 18, 19]
4.17[19, 21, 20, 21, 22, 21, 16, 18]
4.193[18, 23, 21, 22, 23, 19, 18, 17]
4.215[18, 23, 21, 21, 21, 17, 18, 17]
4.232[18, 24, 21, 20, 23, 20, 18, 17]
4.253[20, 21, 20, 21, 23, 20, 19, 16]
4.275[21, 22, 21, 21, 23, 21, 21, 16]
4.291[21, 21, 22, 21, 22, 21, 20, 16]
4.313[20, 22, 22, 23, 22, 22, 19, 16]
4.335[23, 21, 23, 20, 19, 20, 20, 15]
4.351[21, 20, 24, 20, 20, 20, 20, 20]
4.373[21, 20, 23, 19, 19, 19, 20, 20]
4.396[22, 21, 21, 19, 17, 18, 20, 19]
4.411[22, 18, 21, 18, 18, 19, 19, 20]
4.433[21, 19, 18, 21, 19, 18, 18, 21]
4.455[23, 21, 18, 21, 19, 18, 16, 18]
4.471[23, 21, 17, 21, 21, 19, 16, 18]
4.493[23, 19, 19, 21, 22, 21, 15, 19]
4.516[23, 19, 19, 20, 20, 20, 15, 19]
4.531[22, 20, 20, 18, 19, 20, 17, 19]
4.553[21, 18, 20, 20, 19, 19, 18, 20]
4.575[22, 17, 22, 19, 18, 17, 16, 20]
4.591[22, 18, 20, 19, 18, 16, 17, 20]
4.613[22, 19, 21, 20, 19, 16, 18, 20]
4.635[22, 18, 22, 20, 19, 17, 15, 20]
4.658[21, 19, 24, 19, 19, 20, 15, 19]
4.673[22, 19, 24, 18, 19, 21, 17, 19]
4.695[21, 20, 27, 17, 19, 19, 18, 18]
4.718[20, 20, 26, 17, 19, 21, 19, 17]
4.733[20, 21, 24, 17, 20, 19, 19, 17]
4.757[21, 20, 23, 17, 20, 17, 21, 17]
4.778[20, 20, 23, 19, 20, 18, 20, 17]
4.793[19, 21, 21, 19, 20, 18, 19, 17]
4.815[19, 20, 20, 19, 20, 17, 19, 17]
4.839[19, 20, 21, 20, 19, 18, 19, 16]
4.853[18, 21, 21, 21, 20, 17, 19, 15]
4.875[18, 23, 21, 21, 18, 17, 19, 15]
4.898[19, 22, 21, 21, 21, 18, 19, 17]
4.913[20, 23, 21, 21, 20, 18, 18, 17]
4.936[20, 24, 22, 20, 21, 17, 21, 19]
4.958[19, 24, 21, 20, 22, 19, 19, 19]
4.974[20, 23, 21, 23, 23, 19, 18, 20]
4.995[20, 22, 20, 23, 20, 18, 19, 19]
5.018[21, 24, 20, 22, 21, 18, 18, 19]
5.033[21, 23, 19, 24, 22, 18, 19, 19]
5.055[20, 22, 18, 23, 21, 18, 19, 19]
5.078[21, 23, 18, 21, 21, 18, 22, 17]
5.093[22, 23, 19, 21, 23, 19, 21, 18]
5.115[20, 22, 17, 21, 22, 19, 22, 17]
5.138[20, 21, 20, 19, 21, 20, 20, 16]
5.153[22, 19, 21, 19, 21, 19, 22, 16]
5.175[20, 20, 20, 19, 22, 20, 19, 17]
5.198[18, 20, 21, 18, 20, 21, 20, 18]
5.213[19, 20, 21, 19, 22, 21, 19, 18]
5.235[20, 20, 19, 20, 20, 19, 18, 19]
5.258[18, 21, 20, 19, 20, 21, 16, 20]
5.273[20, 21, 19, 18, 20, 20, 17, 18]
5.295[20, 20, 19, 18, 21, 20, 17, 18]
5.318[18, 21, 18, 18, 19, 20, 17, 18]
5.333[20, 21, 20, 19, 19, 21, 18, 17]
5.355[21, 20, 20, 22, 19, 18, 17, 16]
5.378[20, 20, 21, 21, 19, 18, 17, 18]
5.401[20, 20, 22, 22, 19, 19, 16, 17]
5.415[21, 21, 21, 24, 18, 19, 15, 17]
5.438[19, 22, 24, 24, 20, 19, 16, 18]
5.453[20, 21, 24, 22, 20, 19, 16, 19]
5.475[19, 22, 24, 23, 19, 19, 17, 19]
5.498[18, 22, 22, 22, 19, 17, 16, 20]
5.513[18, 20, 24, 19, 20, 17, 16, 21]
5.536[20, 18, 20, 18, 20, 15, 16, 20]
5.559[20, 23, 20, 18, 21, 16, 15, 19]
5.573[20, 21, 23, 19, 20, 17, 16, 20]
5.595[21, 22, 24, 18, 20, 18, 17, 18]
5.618[22, 23, 23, 21, 20, 17, 19, 16]
5.633[18, 24, 23, 20, 20, 17, 19, 16]
5.657[18, 22, 23, 19, 19, 17, 20, 15]
5.678[19, 24, 21, 18, 19, 17, 20, 16]
5.7[18, 22, 21, 18, 20, 17, 21, 17]
5.715[17, 22, 22, 15, 19, 16, 20, 17]
5.738[19, 23, 23, 17, 19, 19, 20, 17]
5.76[18, 22, 24, 17, 21, 18, 19, 18]
5.776[18, 21, 22, 17, 20, 17, 19, 17]
5.798[19, 21, 22, 19, 19, 18, 18, 18]
5.821[19, 22, 22, 20, 18, 18, 18, 20]
5.835[18, 21, 21, 18, 18, 17, 18, 19]
5.858[20, 22, 20, 19, 16, 17, 20, 20]
5.881[19, 21, 20, 20, 17, 17, 20, 20]
5.895[18, 20, 21, 20, 17, 19, 20, 20]
5.918[19, 20, 22, 19, 21, 18, 19, 17]
5.941[19, 22, 21, 20, 21, 21, 19, 18]
5.955[19, 22, 21, 20, 20, 22, 19, 17]
5.978[19, 22, 21, 19, 21, 22, 18, 16]
6.001[20, 23, 22, 20, 22, 21, 20, 15]
6.015[21, 23, 22, 21, 19, 23, 20, 17]
6.038[19, 21, 23, 22, 20, 19, 20, 16]
6.061[19, 20, 23, 22, 21, 18, 18, 16]
6.076[19, 21, 23, 23, 20, 20, 18, 18]
6.098[18, 20, 22, 22, 18, 20, 16, 20]
6.121[17, 19, 20, 20, 19, 20, 16, 19]
6.135[17, 19, 22, 19, 20, 21, 17, 19]
6.158[17, 21, 22, 18, 20, 22, 17, 20]
6.181[17, 20, 22, 18, 20, 20, 18, 19]
6.195[16, 20, 22, 19, 21, 19, 17, 19]
6.218[16, 19, 22, 20, 21, 18, 18, 19]
6.242[17, 19, 21, 22, 18, 16, 17, 19]
6.255[17, 17, 22, 22, 20, 17, 19, 20]
6.278[18, 17, 20, 21, 20, 16, 19, 20]
6.301[19, 17, 20, 22, 19, 17, 19, 18]
6.315[18, 18, 22, 24, 19, 18, 19, 17]
6.338[21, 21, 20, 23, 19, 18, 19, 18]
6.361[20, 22, 20, 24, 17, 17, 18, 18]
6.375[20, 22, 21, 25, 20, 18, 18, 17]
6.398[22, 21, 23, 24, 20, 19, 19, 17]
6.421[23, 22, 23, 22, 20, 18, 18, 19]
6.435[21, 19, 23, 20, 21, 19, 17, 19]
6.458[22, 20, 23, 20, 24, 18, 19, 18]
6.481[24, 19, 24, 20, 21, 18, 19, 17]
6.495[23, 21, 23, 19, 21, 18, 19, 16]
6.518[22, 21, 23, 19, 22, 20, 18, 17]
6.541[21, 22, 22, 20, 22, 18, 19, 16]
6.555[22, 22, 22, 21, 19, 17, 18, 17]
6.578[18, 23, 22, 20, 20, 17, 17, 17]
6.601[17, 23, 19, 23, 20, 16, 17, 19]
6.615[19, 21, 19, 21, 18, 15, 17, 18]
6.638[20, 21, 18, 22, 19, 19, 20, 20]
6.661[21, 22, 19, 21, 20, 22, 20, 20]
6.684[21, 21, 19, 22, 19, 22, 21, 20]
6.698[21, 22, 20, 20, 20, 21, 20, 19]
6.721[21, 22, 21, 21, 20, 21, 22, 19]
6.751[20, 22, 22, 22, 21, 20, 18, 19]
6.758[19, 19, 23, 20, 20, 18, 19, 20]
6.781[18, 20, 22, 19, 20, 18, 18, 20]
6.811[18, 18, 21, 20, 19, 19, 19, 21]
6.818[17, 20, 21, 19, 19, 18, 19, 20]
6.841[17, 19, 20, 19, 19, 17, 19, 20]
6.864[17, 18, 18, 20, 18, 20, 18, 21]
6.878[19, 20, 18, 23, 18, 21, 19, 20]
6.902[18, 21, 20, 22, 17, 22, 19, 21]
6.924[20, 21, 20, 23, 16, 23, 20, 21]
6.938[19, 22, 21, 23, 19, 25, 21, 20]
6.961[20, 23, 22, 21, 20, 24, 20, 19]
6.984[21, 21, 22, 19, 21, 24, 22, 19]
6.998[21, 22, 22, 20, 22, 24, 20, 18]
7.021[23, 22, 21, 19, 23, 25, 20, 18]
7.044[24, 21, 19, 19, 21, 23, 20, 20]
7.058[23, 21, 19, 20, 21, 21, 20, 19]
7.081[22, 21, 19, 22, 19, 21, 19, 20]
7.104[24, 18, 19, 20, 19, 21, 19, 19]
7.118[20, 18, 20, 19, 19, 21, 18, 18]
7.141[22, 18, 21, 21, 19, 20, 19, 18]
7.164[21, 19, 19, 20, 19, 19, 17, 19]
7.178[20, 18, 18, 18, 21, 18, 20, 18]
7.201[20, 18, 17, 20, 21, 17, 20, 20]
7.224[21, 18, 17, 19, 21, 15, 21, 21]
7.238[18, 18, 17, 17, 18, 15, 19, 21]
7.261[17, 21, 18, 18, 20, 16, 21, 20]
7.284[19, 22, 20, 18, 21, 16, 21, 22]
7.306[18, 23, 21, 17, 20, 18, 21, 21]
7.321[18, 25, 21, 18, 21, 19, 20, 19]
7.343[19, 24, 23, 19, 22, 19, 23, 18]
7.358[19, 22, 23, 19, 21, 19, 23, 18]
7.381[19, 22, 22, 21, 20, 19, 22, 17]
7.404[19, 21, 20, 21, 20, 16, 22, 17]
7.419[18, 21, 21, 20, 21, 15, 23, 18]
7.441[18, 22, 20, 20, 19, 16, 23, 19]
7.464[20, 20, 20, 20, 20, 15, 20, 18]
7.487[20, 21, 19, 20, 21, 16, 19, 17]
7.501[21, 22, 21, 19, 22, 18, 20, 18]
7.523[21, 21, 20, 19, 21, 18, 19, 18]
7.538[21, 19, 20, 20, 22, 19, 17, 18]
7.561[19, 21, 22, 19, 21, 20, 17, 18]
7.584[20, 20, 23, 19, 20, 18, 17, 19]
7.606[19, 19, 23, 19, 20, 18, 18, 18]
7.621[20, 18, 24, 20, 17, 19, 19, 20]
7.643[19, 21, 22, 19, 17, 17, 19, 19]
7.666[19, 22, 22, 18, 17, 19, 19, 18]
7.681[18, 21, 21, 17, 17, 18, 19, 20]
7.704[22, 22, 20, 19, 20, 19, 17, 19]
7.728[22, 21, 18, 18, 21, 19, 18, 21]
7.741[23, 21, 19, 19, 22, 19, 18, 20]
7.763[23, 18, 19, 20, 22, 18, 19, 20]
7.786[23, 20, 20, 18, 23, 19, 19, 19]
7.802[19, 19, 19, 20, 21, 19, 22, 20]
7.824[20, 20, 20, 20, 22, 20, 20, 18]
7.846[21, 19, 19, 19, 21, 20, 20, 19]
7.862[21, 21, 20, 20, 23, 20, 19, 20]
7.884[20, 21, 19, 21, 23, 19, 19, 20]
7.906[21, 22, 18, 20, 21, 19, 17, 20]
7.921[19, 22, 19, 20, 24, 17, 17, 20]
7.944[17, 21, 19, 19, 24, 18, 17, 20]
7.966[16, 21, 17, 20, 22, 18, 17, 20]
7.982[16, 20, 18, 19, 21, 20, 17, 21]
8.004[16, 21, 19, 20, 22, 20, 16, 20]
8.026[17, 20, 18, 20, 18, 20, 17, 21]
8.041[19, 19, 18, 20, 18, 21, 18, 20]
8.064[20, 20, 19, 18, 17, 19, 17, 20]
8.086[19, 21, 20, 20, 18, 18, 18, 19]
8.1[20, 21, 20, 20, 19, 18, 18, 19]
8.124[19, 22, 19, 20, 20, 18, 16, 19]
8.146[18, 22, 19, 20, 21, 18, 17, 18]
8.16[17, 23, 19, 20, 22, 17, 19, 19]
8.184[17, 21, 19, 20, 21, 17, 19, 20]
8.206[17, 20, 21, 19, 20, 19, 19, 19]
8.22[15, 20, 22, 20, 18, 18, 20, 19]
8.244[20, 21, 22, 19, 17, 19, 19, 20]
8.266[20, 19, 22, 20, 17, 19, 19, 19]
8.28[22, 20, 21, 18, 19, 21, 20, 18]
8.304[23, 24, 20, 18, 18, 19, 19, 18]
8.326[25, 23, 19, 19, 19, 19, 19, 19]
8.34[24, 23, 19, 20, 18, 19, 18, 19]
8.364[24, 23, 18, 19, 19, 20, 17, 21]
8.387[25, 23, 18, 20, 18, 20, 16, 21]
8.409[23, 19, 20, 20, 20, 20, 16, 23]
8.423[22, 20, 19, 20, 20, 20, 18, 21]
8.446[20, 20, 19, 20, 22, 21, 19, 22]
8.475[20, 19, 20, 22, 21, 21, 20, 20]
8.484[16, 19, 22, 21, 20, 19, 20, 20]
8.505[17, 21, 21, 21, 20, 18, 20, 17]
8.528[15, 20, 21, 19, 18, 19, 19, 17]
8.544[15, 20, 21, 21, 18, 19, 19, 18]
8.565[17, 19, 19, 19, 20, 18, 17, 17]
8.588[17, 17, 17, 19, 19, 18, 18, 17]
8.604[20, 15, 16, 20, 20, 20, 18, 18]
8.625[21, 14, 18, 20, 22, 20, 19, 18]
8.648[21, 15, 18, 18, 21, 18, 19, 16]
8.664[20, 16, 21, 17, 21, 19, 20, 16]
8.685[20, 17, 23, 18, 21, 19, 19, 18]
8.708[19, 18, 22, 19, 21, 18, 19, 20]
8.725[18, 20, 20, 20, 20, 19, 18, 19]
8.746[18, 19, 19, 21, 21, 20, 17, 20]
8.768[18, 18, 17, 23, 19, 19, 19, 22]
8.784[17, 18, 16, 22, 20, 19, 20, 21]
8.807[18, 17, 17, 22, 20, 19, 20, 20]
8.828[19, 16, 17, 22, 20, 19, 22, 20]
8.844[19, 16, 18, 22, 20, 18, 22, 19]
8.866[19, 16, 17, 20, 20, 18, 22, 18]
8.888[19, 17, 17, 20, 20, 17, 22, 18]
8.905[19, 17, 15, 19, 21, 18, 22, 18]
8.926[19, 16, 21, 18, 21, 18, 21, 19]
8.948[18, 16, 21, 19, 20, 19, 20, 18]
8.964[17, 18, 21, 20, 20, 20, 20, 18]
8.987[17, 18, 21, 21, 19, 20, 18, 18]
9.008[16, 20, 22, 21, 17, 18, 20, 18]
9.025[15, 19, 18, 21, 17, 20, 19, 17]
9.046[16, 20, 17, 19, 18, 19, 18, 19]
9.068[17, 19, 20, 20, 17, 18, 20, 18]
9.084[19, 19, 20, 19, 18, 20, 21, 19]
9.106[19, 18, 20, 19, 18, 20, 18, 19]
9.128[20, 19, 20, 19, 18, 18, 19, 18]
9.144[20, 22, 21, 19, 20, 19, 20, 17]
9.166[20, 22, 21, 17, 21, 19, 19, 18]
9.196[20, 23, 23, 17, 22, 19, 19, 17]
9.204[19, 23, 23, 19, 22, 18, 21, 19]
9.226[22, 24, 24, 18, 21, 19, 21, 20]
9.248[22, 21, 23, 19, 19, 19, 19, 20]
9.264[21, 20, 22, 19, 19, 18, 19, 21]
9.286[22, 19, 22, 19, 21, 18, 18, 21]
9.308[21, 19, 20, 18, 23, 18, 16, 21]
9.324[19, 21, 20, 18, 22, 19, 16, 19]
9.345[18, 20, 20, 18, 22, 18, 16, 20]
9.368[18, 20, 21, 19, 20, 17, 18, 17]
9.384[17, 21, 19, 19, 17, 19, 19, 16]
9.405[18, 22, 19, 22, 15, 20, 20, 16]
9.428[19, 22, 20, 43, 19, 24, 59, 21]
9.444[30, 28, 42, 118, 46, 91, 126, 77]
9.466[55, 34, 57, 181, 115, 99, 193, 177]
9.488[59, 42, 71, 241, 187, 112, 259, 196]
9.511[62, 47, 79, 266, 234, 131, 288, 203]
9.525[68, 53, 89, 301, 343, 177, 371, 213]
9.548[72, 57, 87, 297, 366, 194, 416, 214]
9.571[70, 58, 81, 274, 422, 286, 550, 197]
9.586[76, 56, 74, 249, 478, 322, 555, 226]
9.608[80, 53, 74, 282, 504, 378, 626, 247]
9.631[88, 57, 70, 255, 530, 425, 639, 255]
9.645[87, 56, 73, 270, 570, 452, 639, 268]
9.668[119, 69, 91, 298, 593, 466, 602, 312]
9.691[138, 73, 94, 300, 568, 491, 636, 345]
9.706[144, 85, 107, 282, 634, 485, 609, 355]
9.728[145, 86, 114, 302, 606, 498, 656, 371]
9.75[156, 91, 115, 281, 593, 476, 654, 389]
9.766[166, 96, 129, 352, 677, 455, 599, 502]
9.803[151, 98, 132, 370, 693, 409, 573, 474]
9.81[160, 92, 124, 367, 610, 391, 609, 530]
9.825[168, 95, 130, 410, 658, 361, 579, 544]
9.848[166, 94, 134, 427, 693, 399, 573, 531]
9.871[133, 87, 129, 399, 610, 401, 600, 397]
9.886[146, 87, 135, 418, 573, 420, 607, 422]
9.908[136, 87, 137, 403, 585, 405, 573, 369]
9.93[139, 84, 126, 353, 498, 386, 498, 369]
9.945[135, 80, 119, 344, 422, 340, 523, 374]
9.968[138, 73, 98, 284, 380, 305, 485, 377]
9.99[130, 69, 85, 249, 381, 280, 451, 351]
10.005[132, 62, 75, 265, 367, 288, 408, 338]
10.028[113, 55, 74, 272, 368, 278, 454, 292]
10.05[112, 57, 77, 267, 368, 262, 405, 294]
10.066[104, 53, 76, 265, 320, 239, 428, 279]
10.088[100, 57, 73, 227, 334, 244, 429, 270]
10.11[90, 57, 71, 202, 328, 255, 426, 290]
10.126[97, 57, 69, 203, 361, 243, 411, 338]
10.148[94, 64, 71, 187, 418, 291, 427, 328]
10.17[101, 65, 66, 182, 419, 294, 387, 328]
10.186[99, 61, 74, 224, 397, 310, 419, 324]
10.208[99, 65, 77, 233, 390, 296, 430, 307]
10.231[87, 63, 73, 197, 358, 274, 430, 253]
10.245[83, 53, 68, 195, 329, 233, 399, 253]
10.268[71, 49, 70, 200, 384, 286, 456, 245]
10.291[75, 46, 57, 170, 379, 263, 411, 247]
10.305[68, 40, 55, 177, 407, 250, 428, 202]
10.328[72, 45, 59, 185, 391, 260, 385, 214]
10.35[67, 43, 52, 193, 373, 271, 400, 206]
10.365[68, 45, 56, 212, 337, 248, 391, 215]
10.388[56, 45, 54, 192, 365, 251, 401, 200]
10.418[60, 44, 54, 189, 367, 247, 343, 208]
10.433[66, 44, 57, 194, 381, 244, 361, 195]
10.449[69, 49, 59, 184, 350, 234, 365, 198]
10.47[78, 54, 55, 174, 359, 227, 299, 174]
10.493[91, 54, 56, 172, 352, 217, 295, 202]
10.508[98, 55, 58, 188, 344, 223, 340, 209]
10.531[95, 52, 52, 201, 353, 228, 344, 200]
10.553[104, 49, 52, 212, 369, 217, 391, 189]
10.568[100, 44, 56, 194, 366, 196, 446, 190]
10.591[92, 46, 55, 201, 353, 209, 453, 167]
10.613[87, 44, 51, 180, 327, 213, 448, 157]
10.628[89, 46, 54, 164, 331, 204, 439, 164]
10.651[76, 45, 55, 149, 307, 206, 416, 157]
10.673[74, 48, 54, 161, 278, 199, 368, 150]
10.688[74, 47, 56, 172, 325, 180, 378, 144]
10.711[73, 48, 57, 165, 325, 202, 357, 153]
10.733[86, 48, 55, 152, 289, 215, 338, 191]
10.748[100, 52, 57, 169, 313, 222, 293, 200]
10.77[101, 50, 55, 165, 302, 245, 299, 202]
10.793[110, 52, 58, 182, 282, 249, 268, 202]
10.808[130, 54, 59, 211, 319, 240, 299, 229]
10.83[129, 55, 62, 215, 353, 253, 313, 207]
10.853[126, 52, 59, 212, 344, 260, 310, 231]
10.868[127, 51, 59, 214, 344, 237, 286, 239]
10.891[133, 49, 56, 203, 315, 236, 303, 252]
10.914[113, 45, 54, 173, 278, 233, 283, 222]
10.929[108, 42, 51, 170, 264, 209, 285, 212]
10.95[102, 39, 49, 158, 256, 242, 320, 199]
10.973[107, 39, 47, 148, 278, 250, 316, 198]
10.988[87, 38, 45, 156, 274, 248, 298, 184]
11.01[92, 43, 46, 150, 266, 241, 278, 198]
11.033[88, 44, 47, 147, 237, 246, 292, 203]
11.048[92, 47, 49, 153, 255, 218, 354, 260]
11.07[81, 48, 51, 154, 236, 224, 387, 266]
11.093[83, 49, 51, 126, 255, 222, 441, 271]
11.108[79, 46, 51, 132, 256, 225, 474, 269]
11.131[81, 44, 51, 159, 261, 214, 484, 302]
11.153[72, 41, 50, 152, 238, 218, 437, 248]
11.168[85, 41, 51, 150, 230, 219, 407, 240]
11.191[97, 47, 62, 177, 253, 243, 387, 264]
11.213[94, 45, 63, 193, 276, 236, 361, 252]
11.229[93, 47, 65, 187, 270, 268, 330, 208]
11.251[96, 51, 69, 197, 279, 268, 314, 239]
11.273[85, 49, 71, 228, 289, 250, 392, 238]
11.288[67, 43, 64, 234, 283, 234, 347, 212]
11.31[79, 46, 63, 237, 270, 243, 353, 212]
11.333[80, 45, 62, 224, 272, 221, 359, 205]
11.348[87, 42, 59, 227, 256, 186, 374, 159]
11.371[100, 44, 59, 203, 263, 186, 319, 186]
11.393[102, 42, 52, 176, 259, 186, 346, 179]
11.416[96, 42, 52, 154, 256, 182, 342, 215]
11.431[107, 41, 49, 162, 251, 163, 349, 223]
11.454[100, 42, 49, 159, 253, 173, 387, 225]
11.483[88, 41, 45, 160, 226, 202, 404, 202]
11.49[90, 44, 48, 152, 189, 198, 397, 240]
11.513[87, 40, 43, 151, 203, 200, 423, 219]
11.536[67, 40, 50, 159, 267, 228, 429, 213]
11.55[65, 39, 48, 150, 293, 236, 395, 211]
11.573[63, 39, 45, 143, 309, 213, 366, 215]
11.596[62, 34, 45, 146, 325, 214, 461, 189]
11.61[84, 39, 55, 170, 329, 194, 455, 190]
11.634[90, 44, 52, 157, 329, 206, 450, 195]
11.656[94, 47, 58, 166, 311, 201, 466, 197]
11.671[98, 46, 58, 166, 298, 234, 470, 183]
11.693[96, 48, 61, 180, 292, 233, 364, 165]
11.716[75, 44, 54, 164, 285, 239, 314, 137]
11.73[66, 39, 52, 171, 230, 209, 301, 127]
11.753[58, 34, 48, 155, 228, 201, 269, 120]
11.776[61, 39, 52, 162, 228, 164, 297, 119]
11.79[74, 42, 56, 160, 210, 172, 302, 135]
11.814[77, 43, 55, 150, 205, 204, 340, 157]
11.836[81, 41, 58, 161, 232, 197, 354, 162]
11.85[84, 43, 58, 168, 227, 203, 339, 183]
11.874[88, 43, 58, 166, 237, 227, 320, 213]
11.896[82, 38, 53, 174, 245, 229, 365, 218]
11.91[77, 36, 54, 197, 236, 203, 343, 199]
11.934[80, 41, 51, 183, 212, 207, 331, 200]
11.956[81, 40, 49, 182, 241, 227, 323, 192]
11.97[73, 39, 51, 197, 225, 216, 349, 166]
11.994[71, 43, 52, 177, 205, 216, 301, 144]
12.016[75, 44, 53, 160, 197, 250, 323, 158]
12.03[81, 41, 56, 161, 186, 262, 329, 152]
12.054[84, 40, 60, 158, 161, 247, 340, 140]
12.076[86, 39, 56, 161, 209, 245, 346, 175]
12.091[83, 34, 53, 170, 216, 241, 337, 174]
12.113[82, 35, 57, 171, 227, 224, 352, 168]
12.136[71, 38, 57, 184, 241, 216, 346, 170]
12.151[65, 39, 58, 193, 251, 212, 357, 167]
12.174[70, 40, 60, 171, 220, 196, 309, 140]
12.196[71, 42, 60, 175, 224, 204, 320, 157]
12.211[76, 45, 57, 167, 281, 187, 286, 159]
12.234[74, 46, 53, 149, 271, 180, 290, 156]
12.256[79, 45, 47, 140, 267, 180, 259, 182]
12.27[70, 44, 47, 148, 287, 189, 312, 174]
12.293[70, 42, 46, 136, 281, 178, 315, 161]
12.316[64, 38, 45, 163, 226, 173, 317, 167]
12.339[62, 34, 44, 157, 244, 181, 311, 170]
12.353[56, 36, 46, 158, 242, 191, 387, 144]
12.376[53, 34, 43, 149, 208, 195, 390, 143]
12.399[55, 37, 46, 146, 206, 227, 479, 164]
12.413[66, 38, 45, 110, 191, 227, 484, 183]
12.436[66, 43, 55, 146, 176, 221, 495, 180]
12.458[68, 41, 51, 137, 156, 231, 495, 181]
12.474[69, 42, 52, 140, 206, 224, 453, 188]
12.496[68, 43, 52, 157, 222, 201, 385, 171]
12.519[71, 44, 53, 163, 248, 231, 385, 194]
12.533[73, 44, 47, 144, 261, 235, 376, 192]
12.556[69, 43, 49, 156, 260, 228, 378, 195]
12.579[73, 45, 51, 156, 230, 235, 422, 202]
12.593[74, 43, 50, 144, 221, 246, 403, 222]
12.616[63, 42, 51, 157, 214, 222, 385, 174]
12.638[74, 39, 46, 162, 191, 215, 383, 189]
12.654[83, 38, 44, 154, 198, 212, 323, 203]
12.676[81, 36, 44, 151, 198, 206, 311, 216]
12.698[81, 37, 46, 157, 207, 183, 330, 202]
12.714[78, 35, 42, 147, 229, 187, 373, 224]
12.736[68, 40, 51, 142, 257, 186, 392, 248]
12.758[57, 40, 49, 141, 253, 176, 400, 239]
12.774[60, 40, 46, 143, 297, 192, 403, 222]
12.796[61, 40, 44, 128, 285, 193, 388, 213]
12.818[65, 41, 44, 121, 256, 190, 344, 203]
12.833[65, 36, 39, 135, 237, 197, 333, 173]
12.856[67, 38, 41, 150, 247, 203, 328, 176]
12.879[67, 39, 43, 145, 205, 182, 345, 172]
12.893[75, 40, 45, 148, 234, 191, 356, 215]
12.916[70, 41, 48, 155, 230, 197, 352, 209]
12.938[71, 44, 48, 134, 228, 198, 343, 197]
12.952[71, 44, 46, 110, 220, 197, 339, 191]
12.976[68, 42, 45, 122, 221, 192, 346, 197]
12.998[61, 39, 40, 120, 216, 184, 333, 143]
13.012[59, 38, 42, 115, 216, 179, 359, 133]
13.036[58, 33, 41, 129, 235, 171, 350, 161]
13.059[74, 32, 43, 137, 231, 187, 343, 194]
13.081[99, 36, 44, 131, 247, 196, 278, 239]
13.096[99, 39, 48, 146, 246, 218, 304, 248]
13.119[108, 43, 48, 167, 251, 225, 306, 253]
13.133[107, 44, 49, 158, 240, 224, 323, 239]
13.156[101, 45, 49, 163, 251, 202, 326, 220]
13.178[80, 45, 50, 162, 259, 212, 356, 153]
13.193[81, 45, 49, 151, 264, 190, 327, 143]
13.216[72, 40, 47, 123, 282, 175, 315, 137]
13.239[73, 38, 44, 123, 268, 183, 305, 142]
13.261[71, 37, 48, 139, 265, 211, 308, 131]
13.276[63, 34, 52, 163, 243, 204, 274, 132]
13.299[57, 32, 51, 167, 225, 210, 299, 135]
13.321[58, 32, 50, 169, 197, 240, 303, 152]
13.336[59, 35, 51, 188, 243, 245, 332, 153]
13.359[61, 35, 47, 181, 238, 238, 334, 154]
13.381[66, 34, 43, 169, 255, 276, 354, 157]
13.396[72, 37, 48, 161, 257, 271, 326, 204]
13.427[76, 39, 50, 161, 267, 245, 328, 222]
13.44[82, 39, 56, 144, 234, 248, 301, 215]
13.457[84, 38, 60, 139, 241, 230, 280, 223]
13.478[84, 41, 61, 132, 203, 168, 267, 227]
13.5[79, 40, 57, 139, 198, 213, 313, 200]
13.516[80, 40, 59, 142, 214, 222, 305, 189]
13.538[72, 41, 54, 141, 237, 211, 310, 192]
13.568[69, 39, 50, 141, 225, 221, 325, 182]
13.576[72, 37, 44, 141, 230, 255, 360, 247]
13.598[76, 36, 44, 138, 233, 212, 324, 256]
13.62[98, 35, 40, 129, 226, 200, 325, 286]
13.637[99, 32, 41, 148, 208, 198, 312, 287]
13.658[101, 37, 42, 150, 231, 208, 308, 300]
13.68[97, 41, 45, 157, 241, 170, 258, 249]
13.703[96, 40, 46, 159, 244, 179, 288, 259]
13.718[73, 38, 48, 182, 255, 225, 279, 206]
13.741[70, 40, 46, 161, 250, 232, 275, 200]
13.757[70, 39, 45, 146, 239, 231, 274, 200]
13.778[71, 34, 41, 132, 235, 246, 287, 200]
13.8[70, 35, 43, 142, 230, 252, 253, 164]
13.816[64, 38, 49, 118, 205, 211, 268, 173]
13.838[64, 38, 49, 114, 194, 194, 299, 179]
13.86[64, 37, 51, 115, 184, 185, 289, 159]
13.877[62, 38, 53, 123, 207, 175, 301, 165]
13.898[63, 37, 50, 105, 198, 184, 329, 158]
13.92[66, 37, 46, 107, 195, 197, 338, 183]
13.936[69, 35, 45, 110, 247, 220, 305, 203]
13.958[75, 40, 48, 130, 260, 234, 335, 241]
13.98[84, 38, 49, 132, 233, 230, 297, 234]
13.996[83, 38, 48, 129, 259, 205, 286, 244]
14.018[80, 41, 47, 132, 254, 209, 260, 215]
14.04[81, 39, 47, 134, 231, 185, 276, 188]
14.056[75, 36, 45, 117, 263, 175, 254, 163]
14.078[68, 37, 42, 112, 263, 184, 264, 220]
14.1[76, 37, 44, 130, 264, 188, 241, 216]
14.116[78, 34, 50, 164, 310, 186, 275, 218]
14.138[77, 35, 53, 176, 302, 220, 272, 238]
14.16[72, 36, 52, 173, 261, 211, 259, 235]
14.177[72, 35, 51, 172, 266, 207, 295, 215]
14.197[76, 36, 56, 198, 270, 222, 329, 209]
14.22[76, 41, 51, 173, 237, 217, 318, 214]
14.243[77, 41, 48, 164, 243, 188, 312, 198]
14.258[78, 42, 50, 166, 250, 178, 312, 182]
14.28[76, 44, 55, 169, 248, 172, 280, 166]
14.303[65, 44, 51, 126, 221, 151, 291, 191]
14.317[61, 40, 51, 112, 199, 142, 275, 184]
14.34[54, 39, 52, 107, 227, 139, 291, 203]
14.363[60, 38, 52, 138, 220, 162, 301, 199]
14.379[73, 37, 49, 140, 236, 162, 361, 190]
14.4[87, 39, 51, 142, 249, 174, 321, 177]
14.423[96, 40, 53, 149, 252, 175, 322, 184]
14.438[98, 40, 55, 164, 203, 198, 333, 218]
14.46[95, 41, 54, 145, 217, 184, 350, 228]
14.483[82, 42, 54, 140, 198, 176, 289, 218]
14.498[77, 41, 54, 151, 182, 185, 346, 217]
14.52[71, 39, 58, 167, 194, 199, 338, 222]
14.543[67, 38, 54, 166, 206, 178, 308, 163]
14.558[64, 34, 55, 172, 202, 177, 300, 148]
14.581[67, 34, 56, 191, 204, 174, 293, 146]
14.602[60, 33, 51, 193, 208, 183, 220, 214]
14.618[65, 34, 45, 172, 191, 173, 294, 218]
14.64[63, 34, 44, 163, 232, 171, 294, 217]
14.663[62, 34, 43, 156, 230, 189, 278, 216]
14.678[58, 36, 41, 133, 233, 202, 318, 223]
14.7[52, 35, 41, 123, 228, 185, 330, 139]
14.723[48, 35, 39, 129, 235, 182, 284, 119]
14.738[49, 37, 40, 122, 187, 182, 307, 131]
14.76[50, 37, 39, 111, 228, 178, 325, 136]
14.782[74, 39, 40, 112, 232, 187, 296, 180]
14.799[75, 39, 41, 105, 246, 182, 300, 188]
14.82[71, 39, 41, 114, 264, 180, 301, 188]
14.843[69, 40, 41, 118, 281, 177, 281, 179]
14.858[71, 40, 42, 125, 246, 169, 245, 183]
14.88[53, 40, 43, 142, 263, 185, 272, 148]
14.903[50, 42, 47, 158, 263, 188, 284, 140]
14.918[72, 43, 46, 157, 245, 180, 287, 137]
14.94[73, 41, 47, 154, 256, 194, 285, 140]
14.963[72, 40, 44, 156, 270, 195, 296, 135]
14.978[76, 35, 42, 159, 254, 168, 302, 143]
15.0[76, 34, 41, 150, 244, 161, 294, 151]
15.023[60, 32, 41, 138, 271, 193, 270, 151]
15.038[64, 33, 42, 142, 244, 186, 324, 154]
15.061[68, 34, 44, 144, 223, 175, 331, 171]
15.083[64, 34, 46, 129, 222, 192, 354, 159]
15.097[73, 37, 43, 122, 251, 197, 346, 154]
15.12[71, 39, 47, 149, 217, 180, 349, 159]
15.143[70, 37, 45, 157, 209, 179, 302, 157]
15.165[67, 38, 45, 159, 247, 195, 311, 138]
15.188[65, 38, 44, 155, 288, 219, 260, 150]
15.203[63, 36, 49, 173, 270, 248, 256, 151]
15.225[70, 34, 47, 157, 267, 238, 247, 145]
15.24[71, 36, 49, 153, 308, 239, 287, 150]
15.263[72, 37, 53, 158, 284, 247, 298, 165]
15.285[75, 42, 58, 171, 250, 211, 339, 167]
15.3[71, 41, 54, 148, 258, 168, 338, 172]
15.323[67, 42, 56, 155, 305, 194, 377, 187]
15.345[66, 43, 59, 153, 289, 202, 349, 190]
15.36[67, 42, 56, 149, 283, 202, 328, 191]
15.383[66, 37, 50, 151, 277, 202, 270, 175]
15.405[62, 37, 50, 167, 256, 223, 281, 169]
15.42[56, 40, 49, 162, 202, 212, 277, 156]
15.443[55, 42, 54, 181, 187, 203, 318, 147]
15.465[51, 42, 56, 183, 214, 198, 314, 125]
15.48[48, 39, 55, 170, 198, 197, 303, 132]
15.503[47, 38, 53, 155, 187, 171, 287, 127]
15.525[54, 39, 54, 161, 214, 192, 298, 130]
15.54[63, 35, 47, 142, 207, 198, 258, 137]
15.563[63, 36, 48, 151, 205, 184, 259, 135]
15.585[61, 38, 49, 164, 223, 181, 268, 119]
15.6[65, 38, 48, 161, 241, 189, 275, 134]
15.631[60, 34, 46, 165, 224, 159, 207, 141]
15.645[53, 33, 44, 165, 219, 158, 207, 132]
15.66[70, 34, 42, 163, 196, 182, 230, 147]
15.683[71, 35, 41, 152, 182, 190, 238, 146]
15.705[72, 34, 41, 153, 199, 183, 240, 145]
15.721[74, 35, 45, 148, 213, 195, 252, 126]
15.743[73, 37, 48, 141, 208, 189, 250, 118]
15.765[80, 40, 46, 125, 241, 166, 332, 179]
15.78[82, 40, 46, 136, 253, 148, 336, 194]
15.803[85, 40, 51, 142, 232, 159, 354, 192]
15.825[85, 38, 48, 137, 291, 138, 352, 198]
15.84[84, 36, 45, 142, 310, 136, 356, 210]
15.863[66, 34, 46, 140, 302, 139, 289, 163]
15.885[60, 32, 44, 131, 297, 157, 301, 146]
15.9[61, 33, 42, 134, 302, 154, 282, 148]
15.923[61, 35, 40, 125, 228, 180, 291, 158]
15.945[63, 40, 47, 125, 202, 209, 314, 181]
15.96[62, 38, 46, 130, 194, 215, 308, 168]
15.983[72, 39, 49, 119, 197, 216, 294, 181]
16.005[68, 41, 53, 149, 230, 226, 299, 183]
16.02[78, 43, 53, 151, 245, 239, 303, 205]
16.043[79, 40, 50, 149, 252, 217, 272, 178]
16.065[83, 40, 50, 157, 237, 211, 260, 184]
16.08[84, 42, 50, 162, 241, 218, 269, 194]
16.103[84, 41, 48, 134, 217, 207, 254, 197]
16.126[73, 39, 48, 136, 199, 187, 253, 177]
16.149[71, 38, 46, 145, 199, 227, 311, 183]
16.162[73, 37, 45, 142, 212, 234, 348, 195]
16.185[68, 45, 64, 225, 203, 228, 357, 191]
16.208[70, 42, 63, 235, 184, 242, 360, 181]
16.223[68, 41, 64, 253, 226, 236, 387, 179]
16.245[69, 41, 63, 263, 238, 197, 348, 179]
16.268[59, 45, 66, 262, 281, 191, 320, 157]
16.283[60, 36, 51, 208, 298, 179, 334, 143]
16.305[61, 39, 53, 217, 309, 185, 331, 150]
16.329[61, 40, 51, 200, 305, 191, 298, 138]
16.343[66, 43, 57, 192, 320, 197, 322, 152]
16.365[74, 40, 57, 200, 282, 220, 373, 194]
16.389[68, 40, 53, 197, 279, 245, 367, 237]
16.403[68, 38, 49, 171, 282, 233, 392, 246]
16.426[74, 40, 50, 174, 295, 235, 451, 258]
16.448[82, 42, 52, 178, 280, 236, 463, 300]
16.463[83, 42, 52, 164, 284, 220, 471, 282]
16.485[87, 47, 59, 158, 275, 217, 483, 244]
16.508[84, 47, 60, 163, 294, 213, 465, 229]
16.522[86, 47, 59, 156, 264, 229, 425, 228]
16.545[74, 45, 55, 144, 297, 247, 401, 162]
16.568[76, 51, 63, 186, 294, 235, 332, 158]
16.582[78, 49, 62, 189, 284, 221, 310, 204]
16.605[78, 48, 63, 198, 309, 227, 385, 213]
16.628[76, 50, 65, 218, 322, 199, 382, 203]
16.642[75, 50, 64, 224, 304, 206, 444, 193]
16.665[96, 50, 67, 238, 319, 231, 467, 261]
16.688[98, 49, 65, 246, 353, 239, 466, 228]
16.703[97, 49, 65, 233, 301, 240, 426, 219]
16.725[98, 48, 65, 213, 292, 242, 423, 213]
16.748[105, 46, 68, 217, 287, 232, 385, 227]
16.762[82, 44, 61, 180, 293, 239, 354, 163]
16.785[78, 46, 60, 160, 275, 229, 366, 194]
16.808[78, 45, 60, 174, 276, 224, 354, 194]
16.823[77, 45, 57, 180, 298, 237, 346, 203]
16.846[72, 45, 55, 158, 273, 222, 343, 194]
16.868[84, 46, 53, 145, 270, 183, 366, 204]
16.883[88, 45, 53, 162, 249, 177, 370, 179]
16.906[90, 45, 51, 152, 249, 175, 355, 180]
16.928[87, 41, 50, 150, 215, 161, 352, 178]
16.943[85, 43, 52, 168, 234, 164, 340, 222]
16.966[87, 41, 57, 218, 250, 191, 325, 198]
16.988[79, 42, 61, 223, 292, 199, 300, 203]
17.011[85, 44, 61, 228, 294, 219, 314, 213]
17.026[91, 47, 62, 229, 303, 210, 318, 221]
17.048[97, 49, 59, 221, 323, 241, 314, 174]
17.071[83, 44, 49, 168, 292, 227, 339, 176]
17.086[86, 47, 51, 161, 307, 236, 327, 199]
17.108[92, 45, 53, 173, 323, 218, 359, 215]
17.131[84, 43, 51, 167, 332, 237, 349, 208]
17.146[84, 39, 52, 166, 334, 198, 332, 224]
17.169[94, 41, 54, 199, 380, 220, 304, 246]
17.191[92, 33, 44, 192, 360, 207, 324, 227]
17.206[85, 34, 42, 182, 355, 220, 297, 258]
17.228[87, 34, 42, 186, 362, 191, 299, 268]
17.251[81, 45, 54, 202, 340, 187, 323, 250]
17.266[75, 48, 58, 179, 308, 172, 329, 252]
17.296[72, 48, 60, 187, 327, 171, 333, 250]
17.311[67, 48, 62, 182, 323, 166, 335, 209]
17.326[69, 50, 67, 190, 307, 177, 346, 213]
17.349[73, 46, 66, 197, 359, 191, 329, 227]
17.371[77, 46, 66, 197, 339, 181, 341, 268]
17.386[80, 47, 64, 191, 297, 210, 317, 278]
17.408[85, 49, 64, 197, 313, 228, 335, 286]
17.431[89, 51, 59, 195, 336, 236, 321, 302]
17.446[90, 47, 49, 175, 302, 254, 330, 316]
17.468[83, 46, 46, 169, 299, 266, 319, 260]
17.491[79, 44, 46, 152, 296, 257, 347, 251]
17.506[79, 46, 51, 173, 299, 255, 379, 272]
17.528[78, 41, 49, 175, 267, 246, 383, 255]
17.551[84, 45, 51, 178, 255, 230, 415, 233]
17.573[89, 47, 55, 204, 292, 237, 397, 264]
17.588[102, 49, 55, 209, 309, 232, 367, 278]
17.611[99, 44, 47, 192, 286, 209, 312, 257]
17.625[91, 47, 50, 185, 296, 212, 309, 260]
17.648[90, 42, 48, 185, 315, 203, 257, 276]
17.671[82, 39, 44, 147, 283, 169, 258, 259]
17.685[64, 38, 45, 142, 287, 162, 288, 238]
17.708[69, 40, 47, 159, 326, 173, 322, 239]
17.731[78, 38, 46, 155, 325, 185, 342, 226]
17.745[74, 42, 47, 144, 301, 198, 334, 201]
17.768[79, 43, 49, 159, 330, 200, 377, 202]
17.791[82, 42, 52, 185, 318, 194, 359, 212]
17.805[81, 43, 53, 158, 299, 187, 338, 230]
17.828[93, 48, 60, 161, 287, 179, 354, 234]
17.851[87, 46, 59, 162, 304, 166, 361, 233]
17.865[93, 47, 59, 158, 282, 171, 343, 226]
17.888[93, 46, 58, 138, 297, 172, 355, 240]
17.911[90, 46, 57, 157, 284, 180, 350, 238]
17.925[80, 39, 48, 152, 267, 167, 333, 242]
17.948[81, 46, 56, 163, 251, 181, 323, 254]
17.971[73, 43, 55, 182, 258, 192, 322, 275]
17.994[78, 45, 55, 181, 232, 197, 315, 284]
18.009[81, 44, 56, 179, 219, 218, 342, 251]
18.031[84, 45, 56, 188, 247, 235, 338, 247]
18.053[83, 36, 47, 187, 231, 227, 338, 250]
18.076[84, 41, 51, 174, 225, 216, 317, 235]
18.098[85, 41, 50, 184, 321, 233, 313, 215]
18.113[81, 41, 47, 170, 326, 201, 331, 215]
18.128[71, 39, 47, 158, 316, 184, 314, 222]
18.151[74, 43, 47, 148, 352, 172, 329, 215]
18.173[79, 40, 45, 141, 365, 188, 380, 231]
18.188[79, 42, 45, 116, 287, 187, 402, 231]
18.211[80, 44, 50, 179, 328, 235, 350, 251]
18.233[85, 48, 61, 224, 332, 272, 386, 243]
18.248[85, 51, 67, 230, 299, 276, 372, 241]
18.271[78, 50, 67, 236, 291, 290, 362, 219]
18.293[74, 49, 66, 243, 315, 280, 328, 220]
18.308[69, 48, 64, 213, 293, 241, 335, 190]
18.331[65, 47, 58, 173, 295, 204, 312, 182]
18.353[67, 43, 54, 167, 291, 210, 301, 181]
18.368[64, 45, 52, 176, 285, 190, 287, 184]
18.391[62, 44, 57, 178, 250, 173, 288, 179]
18.413[65, 42, 53, 173, 211, 180, 300, 184]
18.428[62, 39, 47, 168, 192, 187, 288, 178]
18.451[58, 35, 45, 168, 197, 184, 350, 186]
18.472[59, 36, 48, 163, 174, 179, 358, 192]
18.489[68, 40, 49, 157, 192, 178, 357, 199]
18.511[66, 40, 49, 153, 206, 182, 344, 201]
18.532[76, 42, 52, 156, 211, 168, 389, 209]
18.549[74, 44, 55, 152, 224, 167, 341, 193]
18.571[72, 42, 51, 132, 241, 158, 305, 197]
18.593[62, 36, 43, 126, 222, 167, 310, 181]
18.609[67, 37, 48, 125, 216, 152, 308, 195]
18.632[62, 35, 47, 128, 226, 187, 235, 183]
18.653[62, 35, 45, 123, 213, 202, 261, 208]
18.675[60, 35, 54, 128, 207, 209, 268, 181]
18.691[63, 37, 57, 133, 219, 202, 279, 184]
18.712[64, 40, 57, 126, 219, 213, 274, 164]
18.729[59, 40, 56, 110, 202, 187, 269, 200]
18.75[67, 41, 63, 148, 206, 186, 290, 193]
18.773[70, 43, 57, 138, 252, 175, 287, 196]
18.789[69, 42, 56, 127, 253, 185, 268, 217]
18.81[66, 42, 55, 143, 261, 200, 313, 220]
18.833[74, 42, 56, 145, 263, 191, 403, 198]
18.849[66, 38, 44, 110, 266, 185, 412, 208]
18.87[73, 35, 43, 121, 253, 184, 423, 226]
18.893[73, 42, 53, 148, 287, 194, 439, 208]
18.916[88, 42, 56, 157, 310, 163, 417, 216]
18.93[84, 45, 58, 170, 311, 204, 360, 249]
18.953[86, 48, 59, 167, 303, 211, 309, 240]
18.975[81, 48, 60, 171, 290, 207, 304, 221]
18.99[79, 40, 49, 148, 266, 195, 295, 210]
19.013[72, 41, 47, 126, 227, 221, 313, 218]
19.035[65, 35, 47, 116, 242, 193, 294, 176]
19.05[73, 32, 45, 118, 265, 190, 290, 154]
19.073[72, 31, 43, 103, 251, 194, 281, 171]
19.095[75, 31, 42, 104, 244, 220, 286, 180]
19.11[66, 28, 36, 106, 264, 200, 260, 154]
19.133[70, 31, 35, 104, 255, 207, 244, 159]
19.155[60, 32, 36, 109, 231, 192, 266, 153]
19.17[59, 32, 38, 126, 248, 201, 250, 145]
19.192[59, 35, 40, 131, 239, 188, 266, 159]
19.215[64, 36, 42, 137, 220, 190, 265, 185]
19.23[59, 37, 44, 165, 240, 182, 285, 186]
19.252[73, 45, 50, 170, 276, 189, 287, 210]
19.275[71, 47, 53, 155, 251, 172, 290, 201]
19.291[79, 51, 56, 167, 251, 195, 267, 184]
19.312[82, 53, 59, 164, 257, 204, 278, 171]
19.335[82, 51, 55, 135, 226, 207, 259, 192]
19.35[68, 43, 50, 121, 219, 202, 231, 161]
19.372[72, 43, 45, 127, 229, 214, 242, 172]
19.395[70, 37, 44, 110, 225, 181, 235, 175]
19.41[65, 36, 43, 109, 247, 199, 321, 187]
19.432[67, 39, 47, 105, 247, 190, 317, 158]
19.455[73, 40, 50, 150, 212, 214, 320, 182]
19.47[73, 39, 51, 152, 200, 207, 359, 177]
19.492[64, 38, 53, 164, 212, 222, 361, 175]
19.515[66, 37, 52, 159, 198, 187, 276, 192]
19.531[63, 33, 48, 159, 204, 184, 276, 191]
19.553[61, 33, 45, 116, 215, 172, 271, 184]
19.576[58, 30, 43, 110, 207, 166, 191, 174]
19.59[65, 30, 38, 89, 191, 131, 167, 167]
19.612[60, 28, 39, 94, 157, 128, 125, 106]
19.635[60, 29, 37, 102, 142, 119, 93, 87]
19.65[54, 34, 46, 111, 104, 74, 85, 41]
19.672[52, 33, 46, 104, 95, 60, 62, 37]
19.695[41, 33, 46, 95, 92, 46, 49, 33]
19.71[32, 33, 45, 89, 81, 36, 32, 29]
19.732[29, 33, 45, 74, 69, 34, 29, 24]
19.755[29, 27, 35, 50, 59, 31, 26, 22]
19.77[27, 29, 34, 48, 54, 29, 24, 20]
19.794[24, 29, 28, 47, 32, 25, 19, 22]
19.815[20, 28, 26, 45, 28, 24, 16, 21]
19.83[20, 26, 26, 39, 22, 20, 17, 21]
19.852[19, 26, 24, 37, 23, 22, 17, 21]
19.875[18, 25, 27, 36, 24, 23, 17, 22]
19.898[16, 21, 29, 34, 24, 24, 19, 19]
19.913[19, 21, 28, 27, 24, 30, 18, 19]
19.935[20, 20, 26, 29, 27, 35, 19, 17]
19.958[23, 22, 27, 27, 25, 35, 21, 18]
19.972[23, 22, 23, 26, 24, 35, 22, 19]
19.995[25, 22, 20, 26, 22, 34, 21, 19]
20.018[23, 22, 20, 26, 22, 27, 22, 21]
20.033[21, 23, 20, 19, 19, 21, 22, 22]
20.055[20, 20, 18, 19, 18, 20, 21, 19]
20.086[39, 19, 17, 17, 18, 20, 20, 19]
20.093[40, 20, 16, 18, 19, 18, 20, 20]
20.115[41, 20, 18, 19, 18, 22, 22, 19]
20.137[42, 19, 20, 19, 19, 22, 21, 19]
20.152[41, 21, 20, 18, 22, 22, 20, 20]
20.175[23, 20, 22, 19, 23, 22, 22, 19]
20.197[21, 20, 24, 18, 23, 22, 22, 21]
20.212[20, 19, 22, 18, 23, 18, 20, 22]
20.235[19, 21, 21, 18, 23, 19, 20, 22]
20.257[19, 19, 21, 19, 21, 19, 22, 23]
20.272[23, 20, 21, 19, 20, 19, 19, 24]
20.296[23, 19, 19, 19, 18, 18, 20, 22]
20.317[24, 19, 19, 18, 19, 17, 19, 19]
20.332[22, 18, 20, 17, 18, 17, 18, 18]
20.355[23, 19, 20, 17, 19, 16, 15, 18]
20.378[19, 18, 20, 17, 19, 15, 16, 17]
20.392[20, 22, 20, 15, 19, 16, 15, 19]
20.415[21, 23, 22, 19, 18, 17, 16, 21]
20.437[25, 22, 21, 21, 19, 16, 17, 20]
20.452[24, 22, 19, 20, 18, 18, 19, 19]
20.475[25, 23, 21, 20, 18, 18, 17, 19]
20.497[23, 20, 22, 20, 19, 17, 18, 18]
20.512[22, 23, 21, 20, 19, 20, 20, 18]
20.535[19, 22, 23, 19, 17, 22, 19, 18]
20.558[19, 22, 23, 21, 19, 20, 18, 19]
20.572[18, 22, 22, 22, 18, 21, 19, 21]
20.595[18, 22, 22, 23, 20, 22, 19, 21]
20.618[17, 21, 21, 22, 21, 21, 17, 22]
20.632[21, 22, 20, 20, 21, 18, 18, 22]
20.655[21, 22, 22, 19, 21, 18, 18, 22]
20.678[22, 22, 21, 19, 22, 18, 19, 21]
20.692[23, 22, 22, 19, 20, 18, 18, 21]
20.715[23, 21, 23, 16, 20, 18, 19, 20]
20.738[20, 21, 22, 18, 20, 19, 19, 20]
20.752[21, 19, 22, 22, 18, 19, 20, 18]
20.775[20, 23, 25, 20, 20, 20, 19, 19]
20.798[20, 22, 24, 21, 19, 19, 21, 20]
20.812[20, 22, 26, 24, 19, 19, 21, 21]
20.835[20, 21, 25, 25, 21, 19, 21, 21]
20.857[19, 23, 23, 22, 21, 19, 21, 23]
20.881[19, 20, 20, 23, 20, 18, 20, 22]
20.903[18, 19, 19, 24, 19, 18, 20, 22]
20.918[23, 19, 18, 23, 19, 17, 20, 19]
20.941[23, 20, 18, 19, 18, 17, 21, 19]
20.963[22, 18, 23, 19, 19, 17, 19, 19]
20.977[25, 22, 23, 19, 17, 19, 18, 18]
21.001[26, 22, 24, 18, 17, 18, 17, 18]
21.015[24, 23, 23, 19, 19, 19, 16, 19]
21.038[26, 22, 23, 20, 18, 20, 16, 19]
21.061[26, 23, 19, 22, 16, 18, 17, 18]
21.075[24, 19, 20, 23, 19, 19, 19, 21]
21.106[23, 19, 18, 22, 20, 20, 19, 19]
21.121[20, 18, 17, 22, 19, 19, 20, 24]
21.135[18, 22, 18, 22, 20, 19, 21, 25]
21.158[18, 21, 17, 22, 21, 20, 20, 26]
21.181[19, 22, 17, 22, 21, 19, 19, 26]
21.195[20, 22, 19, 22, 22, 19, 19, 27]
21.218[20, 21, 19, 21, 22, 20, 21, 22]
21.241[21, 18, 20, 22, 23, 22, 20, 22]
21.255[19, 19, 23, 22, 23, 22, 20, 21]
21.277[18, 18, 24, 19, 23, 22, 21, 18]
21.301[19, 22, 25, 21, 23, 22, 21, 18]
21.315[18, 22, 25, 22, 22, 21, 19, 18]
21.337[18, 21, 25, 23, 22, 19, 18, 18]
21.36[19, 20, 21, 21, 21, 19, 19, 19]
21.375[19, 22, 23, 25, 53, 29, 20, 19]
21.398[19, 20, 26, 27, 73, 38, 23, 19]
21.42[21, 19, 26, 26, 74, 39, 24, 18]
21.435[21, 22, 25, 26, 76, 40, 24, 18]
21.457[23, 24, 26, 26, 79, 39, 25, 20]
21.481[24, 23, 26, 27, 62, 34, 24, 19]
21.495[23, 23, 21, 25, 37, 24, 21, 21]
21.517[25, 25, 24, 24, 36, 22, 20, 22]
21.541[24, 24, 23, 24, 35, 23, 20, 20]
21.555[22, 22, 22, 29, 46, 26, 18, 20]
21.578[23, 24, 22, 27, 48, 25, 17, 22]
21.601[22, 24, 23, 25, 48, 24, 17, 22]
21.615[29, 24, 22, 26, 48, 24, 22, 83]
21.637[31, 25, 22, 27, 59, 25, 27, 114]
21.661[35, 25, 24, 23, 56, 29, 29, 127]
21.675[33, 24, 24, 26, 83, 30, 28, 129]
21.697[34, 25, 23, 25, 85, 29, 30, 130]
21.721[26, 23, 20, 28, 86, 30, 28, 106]
21.735[24, 23, 21, 27, 78, 28, 24, 78]
21.758[19, 21, 19, 26, 72, 21, 22, 60]
21.781[25, 23, 18, 26, 54, 20, 28, 81]
21.803[26, 21, 17, 28, 56, 20, 27, 86]
21.818[27, 22, 18, 26, 56, 21, 25, 82]
21.841[27, 23, 20, 26, 56, 23, 25, 77]
21.863[26, 25, 21, 26, 57, 24, 25, 75]
21.877[22, 23, 21, 22, 47, 24, 21, 46]
21.901[21, 22, 21, 22, 51, 27, 24, 35]
21.923[21, 21, 23, 23, 60, 35, 24, 32]
21.938[20, 22, 24, 24, 78, 38, 24, 31]
21.961[21, 21, 22, 28, 91, 41, 25, 29]
21.983[20, 24, 24, 28, 103, 42, 24, 26]
21.998[25, 24, 26, 27, 101, 46, 25, 43]
22.028[25, 25, 24, 27, 103, 40, 25, 42]
22.044[25, 24, 23, 28, 102, 37, 25, 42]
22.058[24, 24, 25, 26, 96, 36, 24, 43]
22.081[25, 21, 23, 27, 83, 34, 24, 43]
22.103[21, 21, 22, 28, 80, 29, 25, 40]
22.118[22, 21, 22, 26, 71, 30, 25, 41]
22.14[23, 22, 23, 27, 70, 29, 24, 43]
22.163[23, 21, 22, 25, 68, 29, 25, 48]
22.178[23, 25, 25, 28, 71, 28, 24, 55]
22.2[21, 26, 25, 28, 71, 26, 20, 49]
22.223[18, 24, 26, 28, 78, 30, 22, 51]
22.238[19, 21, 25, 25, 68, 28, 23, 49]
22.261[18, 22, 23, 24, 66, 28, 22, 43]
22.283[18, 18, 20, 28, 58, 27, 23, 31]
22.297[19, 16, 21, 37, 59, 30, 23, 29]
22.321[19, 18, 19, 42, 47, 25, 20, 24]
22.343[19, 18, 19, 43, 52, 26, 20, 25]
22.357[20, 21, 21, 43, 51, 24, 20, 28]
22.381[20, 21, 21, 41, 52, 24, 21, 27]
22.403[21, 23, 22, 31, 49, 21, 20, 24]
22.418[21, 22, 22, 23, 48, 21, 22, 24]
22.441[19, 23, 23, 23, 32, 24, 21, 25]
22.463[20, 20, 20, 24, 26, 26, 21, 21]
22.477[22, 21, 22, 25, 37, 28, 21, 22]
22.501[20, 20, 20, 28, 53, 29, 21, 22]
22.523[19, 21, 22, 26, 53, 28, 23, 22]
22.537[20, 20, 22, 26, 55, 28, 23, 20]
22.561[21, 20, 24, 26, 57, 27, 22, 19]
22.583[18, 20, 25, 24, 49, 24, 20, 22]
22.597[19, 21, 27, 20, 33, 21, 21, 26]
22.621[21, 20, 26, 22, 33, 24, 18, 24]
22.643[21, 24, 25, 22, 31, 22, 17, 25]
22.658[19, 23, 25, 23, 37, 25, 19, 25]
22.681[19, 21, 25, 22, 52, 26, 19, 22]
22.703[21, 21, 22, 23, 53, 27, 20, 18]
22.718[24, 22, 22, 23, 52, 26, 20, 20]
22.741[23, 18, 24, 21, 52, 24, 20, 20]
22.763[22, 19, 21, 20, 47, 23, 20, 20]
22.786[23, 22, 20, 18, 31, 23, 21, 20]
22.801[21, 22, 21, 18, 28, 24, 22, 21]
22.823[17, 23, 22, 20, 45, 24, 21, 20]
22.846[19, 26, 22, 23, 47, 24, 23, 22]
22.861[22, 26, 22, 24, 48, 23, 21, 25]
22.883[22, 25, 22, 25, 54, 24, 20, 26]
22.906[22, 24, 22, 25, 55, 23, 21, 26]
22.921[21, 21, 22, 23, 42, 23, 22, 25]
22.943[20, 19, 21, 24, 60, 24, 20, 25]
22.966[22, 19, 22, 23, 60, 27, 21, 22]
22.981[21, 17, 23, 23, 55, 25, 21, 19]
23.004[21, 19, 22, 24, 55, 25, 20, 18]
23.027[20, 20, 20, 24, 54, 24, 20, 17]
23.041[21, 22, 20, 22, 30, 23, 19, 19]
23.063[18, 23, 20, 22, 27, 20, 21, 20]
23.086[20, 25, 20, 24, 25, 19, 20, 19]
23.101[22, 26, 21, 22, 25, 19, 18, 20]
23.123[22, 25, 20, 21, 28, 19, 19, 20]
23.146[21, 24, 19, 21, 46, 20, 21, 18]
23.161[20, 23, 20, 25, 48, 20, 19, 16]
23.183[20, 22, 19, 23, 49, 18, 20, 17]
23.206[20, 20, 18, 23, 49, 17, 22, 17]
23.221[19, 21, 18, 24, 47, 17, 20, 17]
23.243[19, 21, 22, 25, 49, 17, 20, 19]
23.266[20, 19, 19, 21, 50, 19, 20, 22]
23.28[20, 21, 19, 28, 50, 20, 21, 23]
23.303[22, 23, 19, 47, 50, 19, 21, 24]
23.326[22, 23, 19, 56, 52, 19, 22, 25]
23.34[23, 24, 21, 58, 33, 19, 20, 25]
23.363[21, 24, 22, 58, 27, 19, 22, 22]
23.386[20, 22, 25, 55, 25, 19, 21, 21]
23.4[19, 20, 25, 40, 24, 20, 20, 20]
23.423[20, 20, 25, 28, 23, 20, 20, 19]
23.446[19, 20, 21, 22, 38, 19, 20, 19]
23.467[20, 20, 23, 22, 50, 17, 20, 21]
23.484[21, 19, 20, 22, 54, 17, 19, 20]
23.505[20, 21, 22, 26, 53, 18, 18, 20]
23.527[19, 22, 22, 23, 52, 18, 19, 22]
23.544[19, 20, 21, 24, 43, 18, 22, 23]
23.565[19, 24, 19, 23, 28, 18, 20, 23]
23.587[19, 24, 20, 24, 21, 19, 20, 23]
23.604[21, 21, 19, 17, 21, 19, 23, 22]
23.626[22, 19, 19, 20, 21, 19, 21, 22]
23.648[22, 20, 20, 22, 26, 19, 20, 20]
23.671[22, 17, 22, 22, 47, 19, 20, 20]
23.685[22, 16, 20, 21, 50, 21, 21, 20]
23.707[20, 17, 21, 25, 50, 21, 19, 20]
23.724[21, 17, 22, 23, 52, 21, 19, 18]
23.745[20, 18, 22, 21, 49, 20, 22, 20]
23.768[21, 18, 20, 20, 32, 21, 22, 20]
23.784[21, 22, 21, 21, 28, 20, 22, 26]
23.805[21, 22, 22, 21, 45, 22, 22, 25]
23.827[18, 24, 21, 22, 49, 22, 23, 25]
23.844[18, 24, 22, 24, 49, 23, 21, 24]
23.865[16, 24, 21, 24, 48, 22, 21, 24]
23.887[15, 23, 22, 24, 48, 19, 21, 19]
23.904[18, 22, 19, 22, 34, 18, 20, 20]
23.926[18, 22, 18, 22, 27, 19, 20, 23]
23.955[18, 23, 18, 19, 45, 20, 21, 23]
23.964[19, 22, 19, 19, 46, 21, 20, 22]
23.985[19, 22, 19, 20, 47, 23, 20, 22]
24.007[17, 22, 20, 21, 48, 24, 23, 22]
24.024[18, 22, 21, 22, 49, 23, 22, 20]
24.045[17, 21, 20, 21, 32, 22, 21, 21]
24.067[16, 20, 20, 23, 30, 22, 24, 23]
24.084[24, 20, 21, 23, 27, 22, 23, 23]
24.105[25, 22, 20, 23, 45, 20, 21, 21]
24.127[24, 20, 22, 21, 46, 20, 21, 21]
24.144[27, 24, 23, 23, 47, 21, 21, 20]
24.165[27, 24, 24, 23, 49, 23, 18, 17]
24.187[19, 23, 23, 23, 48, 22, 19, 19]
24.211[20, 21, 24, 22, 29, 23, 19, 26]
24.225[22, 22, 23, 22, 28, 23, 19, 25]
24.247[19, 17, 22, 23, 39, 23, 18, 26]
24.262[19, 18, 20, 21, 40, 20, 18, 26]
24.285[20, 19, 20, 21, 42, 20, 17, 26]
24.307[22, 18, 19, 21, 43, 19, 18, 21]
24.322[23, 18, 18, 21, 42, 20, 17, 20]
24.345[22, 19, 18, 20, 32, 20, 18, 23]
24.367[24, 18, 18, 21, 39, 23, 18, 22]
24.383[23, 19, 18, 22, 46, 24, 20, 21]
24.405[25, 22, 22, 23, 46, 24, 20, 22]
24.427[23, 21, 23, 23, 47, 23, 18, 22]
24.443[23, 21, 25, 23, 46, 22, 18, 19]
24.465[20, 24, 26, 23, 50, 20, 18, 19]
24.487[21, 24, 27, 24, 45, 19, 17, 20]
24.504[18, 23, 25, 23, 46, 20, 18, 19]
24.525[18, 23, 23, 24, 46, 20, 19, 21]
24.549[18, 24, 25, 23, 46, 19, 18, 21]
24.563[19, 22, 25, 22, 34, 21, 18, 21]
24.585[19, 24, 22, 20, 47, 22, 17, 20]
24.609[21, 23, 22, 20, 45, 22, 17, 19]
24.63[19, 23, 22, 19, 46, 23, 16, 20]
24.653[21, 22, 21, 17, 46, 23, 16, 21]
24.667[20, 23, 20, 19, 46, 21, 17, 20]
24.69[22, 20, 21, 21, 28, 19, 19, 19]
24.705[21, 21, 21, 21, 28, 18, 18, 19]
24.727[24, 21, 21, 22, 45, 19, 18, 17]
24.75[23, 21, 22, 24, 48, 22, 18, 16]
24.765[24, 20, 23, 22, 47, 21, 19, 18]
24.788[23, 22, 24, 21, 49, 22, 18, 17]
24.81[21, 21, 22, 22, 49, 22, 19, 19]
24.825[20, 22, 22, 22, 46, 24, 19, 20]
24.847[20, 24, 21, 22, 47, 21, 19, 20]
24.87[20, 23, 20, 22, 49, 23, 17, 18]
24.885[20, 24, 22, 21, 48, 23, 19, 19]
24.909[22, 23, 23, 21, 48, 23, 19, 19]
24.93[21, 22, 24, 19, 35, 20, 21, 18]
24.945[25, 22, 23, 19, 42, 21, 22, 18]
24.968[24, 22, 22, 22, 41, 22, 22, 19]
24.99[23, 23, 21, 22, 39, 22, 21, 19]
25.005[22, 23, 19, 20, 41, 21, 22, 17]
25.027[20, 23, 18, 23, 42, 21, 20, 19]
25.05[19, 23, 19, 22, 33, 20, 20, 19]
25.065[19, 23, 18, 20, 29, 17, 21, 20]
25.088[23, 23, 19, 19, 41, 19, 19, 19]
25.11[22, 23, 19, 21, 50, 19, 18, 22]
25.125[22, 23, 21, 24, 52, 20, 17, 21]
25.147[20, 22, 21, 25, 52, 22, 18, 21]
25.17[21, 23, 23, 24, 53, 22, 18, 20]
25.186[17, 20, 22, 24, 45, 22, 18, 20]
25.209[17, 20, 22, 24, 32, 21, 16, 15]
25.23[18, 22, 24, 19, 27, 21, 18, 17]
25.245[18, 22, 23, 20, 25, 20, 18, 17]
25.267[18, 20, 23, 20, 24, 21, 18, 17]
25.29[19, 21, 22, 23, 42, 19, 18, 17]
25.313[20, 22, 23, 23, 45, 19, 18, 18]
25.327[18, 20, 21, 24, 46, 18, 17, 18]
25.35[17, 21, 20, 25, 46, 18, 17, 19]
25.365[17, 23, 20, 26, 46, 18, 16, 20]
25.387[21, 21, 22, 23, 29, 18, 15, 20]
25.41[21, 21, 20, 22, 24, 20, 16, 20]
25.426[22, 22, 19, 22, 22, 21, 17, 18]
25.447[23, 20, 19, 20, 45, 19, 17, 18]
25.47[24, 20, 20, 21, 48, 19, 17, 18]
25.485[22, 22, 18, 22, 49, 19, 19, 18]
25.507[22, 21, 18, 21, 50, 19, 20, 18]
25.53[21, 22, 20, 21, 50, 20, 21, 20]
25.545[22, 21, 21, 20, 31, 21, 21, 20]
25.567[20, 21, 20, 20, 26, 21, 22, 21]
25.59[19, 23, 21, 20, 21, 21, 21, 21]
25.612[19, 23, 22, 26, 21, 20, 21, 21]
25.627[20, 23, 21, 35, 21, 20, 21, 20]
25.65[18, 25, 21, 35, 20, 20, 20, 21]
25.68[19, 24, 21, 35, 19, 21, 19, 20]
25.687[21, 21, 20, 35, 21, 20, 20, 20]
25.711[21, 20, 22, 31, 20, 19, 20, 20]
25.732[20, 21, 21, 19, 21, 20, 18, 18]
25.747[20, 20, 20, 20, 22, 19, 17, 17]
25.77[19, 21, 20, 21, 21, 19, 18, 19]
25.792[19, 21, 22, 20, 21, 21, 18, 18]
25.807[19, 21, 21, 21, 21, 22, 20, 19]
25.83[18, 20, 22, 21, 20, 19, 20, 21]
25.853[21, 20, 23, 19, 20, 22, 20, 21]
25.867[22, 20, 26, 18, 21, 21, 20, 19]
25.89[21, 18, 24, 18, 20, 22, 19, 19]
25.913[22, 21, 23, 19, 19, 22, 15, 18]
25.927[23, 23, 23, 19, 20, 22, 18, 16]
25.95[20, 23, 21, 19, 20, 19, 17, 17]
25.972[20, 23, 17, 18, 19, 19, 20, 18]
25.987[20, 23, 18, 20, 19, 19, 20, 17]
26.01[17, 23, 18, 19, 20, 20, 21, 18]
26.032[18, 20, 17, 18, 19, 21, 19, 17]
26.047[20, 23, 17, 19, 18, 21, 21, 19]
26.07[18, 23, 20, 19, 19, 22, 20, 20]
26.093[18, 23, 19, 16, 20, 20, 19, 20]
26.107[20, 22, 19, 17, 20, 20, 20, 20]
26.13[20, 23, 20, 17, 21, 20, 21, 22]
26.153[20, 21, 21, 19, 22, 21, 20, 21]
26.167[21, 19, 19, 19, 21, 20, 21, 19]
26.19[21, 20, 20, 20, 19, 21, 23, 22]
26.213[19, 21, 20, 20, 20, 19, 23, 21]
26.227[18, 19, 20, 22, 20, 20, 22, 19]
26.25[18, 20, 22, 21, 20, 21, 22, 19]
26.273[19, 22, 23, 22, 20, 21, 21, 20]
26.287[19, 22, 23, 21, 21, 20, 20, 18]
26.31[22, 22, 23, 22, 21, 21, 20, 20]
26.333[23, 21, 23, 21, 19, 19, 19, 21]
26.347[20, 20, 20, 20, 19, 18, 19, 21]
26.37[21, 22, 20, 19, 22, 19, 19, 20]
26.393[21, 20, 20, 20, 22, 20, 20, 19]
26.407[21, 19, 19, 20, 19, 21, 18, 20]
26.43[20, 20, 21, 18, 21, 20, 18, 20]
26.453[22, 21, 22, 18, 23, 20, 19, 22]
26.475[21, 20, 22, 18, 22, 23, 17, 21]
26.49[21, 22, 23, 16, 22, 22, 17, 21]
26.514[18, 22, 22, 16, 22, 20, 18, 20]
26.535[18, 23, 20, 19, 21, 22, 21, 18]
26.55[18, 21, 19, 20, 18, 23, 21, 17]
26.573[18, 21, 21, 22, 18, 19, 21, 16]
26.596[18, 20, 20, 22, 20, 21, 20, 15]
26.61[20, 20, 22, 23, 22, 21, 21, 14]
26.633[22, 21, 22, 22, 21, 19, 19, 14]
26.655[22, 21, 24, 22, 22, 18, 18, 16]
26.67[23, 23, 22, 22, 23, 17, 18, 17]
26.693[24, 22, 23, 22, 21, 16, 19, 17]
26.716[22, 22, 22, 20, 19, 17, 19, 19]
26.73[20, 22, 20, 19, 22, 18, 18, 19]
26.753[20, 23, 21, 21, 22, 18, 18, 18]
26.776[20, 21, 22, 20, 20, 18, 18, 18]
26.791[17, 21, 21, 20, 20, 20, 17, 20]
26.813[17, 22, 21, 21, 20, 20, 15, 18]
26.836[18, 20, 22, 20, 17, 20, 17, 20]
26.85[18, 20, 20, 17, 17, 21, 18, 19]
26.873[18, 22, 20, 17, 19, 23, 17, 18]
26.896[19, 23, 20, 17, 21, 23, 19, 18]
26.91[19, 24, 20, 17, 21, 22, 19, 18]
26.934[19, 23, 21, 19, 22, 21, 18, 16]
26.956[19, 24, 21, 20, 23, 19, 18, 15]
26.97[19, 23, 20, 20, 22, 18, 18, 16]
26.993[19, 21, 20, 20, 22, 16, 19, 15]
27.015[19, 22, 19, 19, 22, 17, 20, 17]
27.03[21, 23, 19, 19, 21, 18, 22, 32]
27.053[20, 23, 19, 20, 21, 19, 23, 36]
27.076[19, 26, 18, 20, 21, 20, 24, 37]
27.09[20, 27, 20, 19, 20, 20, 23, 38]
27.113[19, 25, 21, 20, 20, 21, 24, 38]
27.135[19, 26, 21, 19, 21, 23, 21, 27]
27.15[20, 25, 22, 18, 19, 23, 19, 22]
27.173[20, 23, 23, 18, 18, 21, 20, 20]
27.196[20, 22, 23, 20, 20, 21, 18, 18]
27.21[21, 23, 21, 19, 20, 20, 19, 18]
27.233[19, 21, 21, 19, 20, 17, 21, 18]
27.256[18, 23, 19, 17, 20, 19, 20, 19]
27.27[18, 22, 19, 17, 21, 20, 19, 21]
27.293[19, 22, 19, 18, 19, 19, 20, 21]
27.316[20, 22, 19, 19, 19, 21, 21, 21]
27.33[20, 22, 20, 20, 19, 21, 20, 21]
27.353[20, 20, 24, 23, 18, 19, 21, 20]
27.376[22, 20, 24, 23, 19, 17, 20, 20]
27.39[21, 21, 21, 22, 19, 19, 21, 19]
27.413[22, 20, 24, 22, 19, 16, 19, 19]
27.435[23, 20, 24, 20, 21, 17, 19, 20]
27.45[25, 20, 20, 18, 20, 19, 19, 22]
27.473[22, 20, 21, 18, 19, 21, 20, 21]
27.495[24, 19, 23, 17, 20, 21, 19, 21]
27.518[23, 21, 20, 18, 20, 21, 19, 20]
27.533[24, 23, 20, 19, 19, 20, 19, 19]
27.563[22, 22, 23, 19, 20, 19, 19, 16]
27.578[22, 22, 22, 19, 20, 17, 18, 16]
27.593[19, 23, 21, 17, 20, 17, 18, 17]
27.616[20, 22, 21, 18, 19, 18, 17, 19]
27.638[18, 21, 22, 20, 18, 19, 17, 19]
27.654[21, 21, 19, 20, 20, 20, 17, 20]
27.675[21, 20, 18, 22, 19, 19, 18, 20]
27.698[20, 19, 20, 23, 18, 19, 17, 20]
27.713[20, 18, 19, 24, 19, 20, 19, 19]
27.736[19, 18, 20, 25, 20, 19, 19, 20]
27.758[17, 19, 20, 24, 19, 19, 18, 19]
27.773[16, 22, 21, 24, 19, 21, 16, 18]
27.795[18, 21, 24, 23, 21, 21, 17, 17]
27.818[18, 21, 23, 22, 20, 20, 16, 19]
27.84[18, 23, 22, 21, 19, 21, 17, 18]
27.855[19, 23, 23, 22, 19, 20, 18, 19]
27.878[19, 21, 23, 22, 17, 17, 20, 21]
27.893[18, 20, 21, 21, 18, 19, 20, 21]
27.915[18, 21, 21, 22, 19, 20, 20, 20]
27.938[19, 18, 20, 21, 19, 21, 20, 20]
27.953[19, 18, 20, 20, 19, 22, 21, 19]
27.975[20, 16, 18, 19, 23, 22, 20, 18]
27.998[21, 18, 17, 19, 21, 19, 21, 19]
28.012[21, 17, 18, 20, 20, 20, 21, 20]
28.035[21, 19, 19, 18, 20, 18, 21, 20]
28.058[19, 21, 20, 19, 22, 18, 19, 19]
28.072[20, 22, 20, 19, 19, 19, 19, 20]
28.095[21, 22, 23, 21, 20, 21, 19, 22]
28.118[20, 23, 22, 20, 20, 20, 20, 20]
28.132[21, 21, 21, 19, 21, 21, 19, 20]
28.156[20, 21, 21, 22, 20, 21, 20, 21]
28.179[19, 21, 20, 22, 20, 22, 21, 20]
28.192[19, 20, 18, 21, 18, 20, 18, 21]
28.215[20, 22, 18, 21, 20, 20, 18, 21]
28.238[21, 23, 18, 23, 19, 18, 18, 19]
28.252[21, 23, 18, 21, 18, 18, 17, 19]
28.276[22, 22, 20, 22, 19, 16, 16, 19]
28.298[20, 22, 21, 22, 20, 17, 17, 15]
28.312[19, 21, 21, 22, 19, 18, 17, 18]
28.335[20, 22, 22, 23, 17, 17, 19, 20]
28.358[22, 22, 22, 24, 18, 17, 21, 20]
28.372[20, 23, 21, 24, 17, 18, 20, 20]
28.396[20, 22, 20, 22, 17, 18, 21, 20]
28.418[22, 21, 21, 21, 17, 20, 21, 19]
28.441[21, 20, 20, 20, 17, 21, 20, 19]
28.456[20, 20, 18, 18, 17, 20, 18, 18]
28.479[21, 18, 19, 16, 17, 20, 19, 17]
28.5[23, 19, 18, 16, 17, 19, 17, 18]
28.516[23, 19, 19, 17, 17, 16, 17, 17]
28.538[22, 19, 19, 18, 16, 17, 16, 16]
28.56[24, 18, 21, 18, 16, 19, 16, 16]
28.576[22, 18, 20, 20, 16, 19, 17, 17]
28.598[20, 19, 21, 21, 17, 20, 17, 18]
28.627[18, 19, 21, 21, 19, 21, 18, 18]
28.644[18, 19, 20, 20, 19, 21, 21, 18]
28.657[16, 19, 22, 21, 18, 19, 20, 19]
28.68[17, 18, 22, 21, 19, 19, 19, 19]
28.696[18, 17, 23, 20, 19, 19, 19, 18]
28.718[19, 18, 22, 19, 18, 18, 18, 19]
28.74[19, 18, 23, 21, 19, 18, 17, 19]
28.756[20, 19, 21, 19, 20, 20, 18, 19]
28.777[19, 19, 21, 18, 20, 20, 20, 20]
28.8[20, 20, 21, 19, 18, 19, 22, 22]
28.816[20, 20, 20, 21, 21, 20, 21, 21]
28.837[21, 20, 20, 20, 19, 20, 21, 21]
28.86[19, 19, 20, 21, 19, 19, 21, 21]
28.876[20, 19, 18, 21, 18, 19, 19, 20]
28.898[18, 20, 18, 21, 20, 20, 17, 18]
28.92[18, 21, 19, 20, 18, 18, 18, 18]
28.952[18, 22, 20, 20, 19, 20, 18, 20]
28.957[20, 23, 19, 23, 19, 18, 17, 19]
28.98[20, 24, 19, 24, 21, 18, 18, 20]
28.996[19, 23, 22, 23, 20, 18, 21, 20]
29.017[18, 23, 22, 24, 20, 19, 20, 19]
29.04[18, 22, 22, 23, 20, 18, 20, 17]
29.056[17, 23, 22, 20, 19, 18, 19, 16]
29.078[15, 22, 23, 20, 20, 18, 21, 15]
29.1[18, 21, 19, 20, 21, 16, 17, 15]
29.116[19, 22, 20, 19, 21, 17, 17, 17]
29.137[20, 22, 19, 19, 22, 16, 18, 18]
29.16[21, 20, 19, 18, 23, 17, 18, 18]
29.176[22, 21, 19, 18, 21, 18, 18, 20]
29.197[21, 23, 20, 18, 20, 20, 18, 19]
29.22[20, 20, 20, 19, 19, 18, 20, 19]
29.236[19, 20, 21, 20, 18, 20, 20, 18]
29.257[18, 20, 21, 21, 17, 20, 20, 19]
29.28[16, 18, 21, 22, 17, 20, 19, 17]
29.302[14, 18, 20, 23, 17, 19, 20, 18]
29.319[17, 20, 19, 22, 19, 21, 21, 18]
29.34[19, 20, 20, 20, 21, 19, 21, 19]
29.362[19, 22, 20, 21, 23, 20, 23, 18]
29.377[19, 22, 21, 20, 22, 20, 23, 21]
29.4[21, 20, 19, 19, 23, 21, 23, 20]
29.422[19, 21, 20, 19, 22, 20, 21, 19]
29.437[20, 21, 19, 21, 20, 20, 21, 19]
29.46[20, 19, 21, 21, 19, 21, 20, 18]
29.482[21, 19, 21, 18, 20, 20, 20, 15]
29.506[20, 20, 23, 20, 20, 18, 18, 14]
29.52[20, 19, 23, 20, 21, 18, 20, 14]
29.542[19, 18, 22, 20, 21, 20, 19, 14]
29.565[21, 21, 19, 20, 21, 19, 20, 14]
29.58[20, 23, 20, 20, 22, 21, 19, 16]
29.602[19, 22, 20, 20, 21, 23, 21, 16]
29.618[20, 22, 21, 20, 21, 22, 19, 16]
29.64[20, 23, 23, 18, 21, 20, 18, 16]
29.662[17, 23, 23, 17, 19, 19, 19, 18]
29.678[18, 22, 21, 17, 21, 20, 19, 19]
29.707[20, 22, 22, 17, 21, 17, 17, 17]
29.731[19, 22, 19, 17, 20, 19, 19, 19]
29.738[19, 22, 18, 19, 20, 19, 19, 20]
29.762[21, 20, 18, 19, 22, 20, 15, 20]
29.783[21, 19, 18, 20, 21, 17, 16, 20]
29.797[18, 20, 19, 19, 20, 18, 17, 21]
29.821[19, 18, 19, 20, 22, 16, 15, 20]
29.843[20, 19, 20, 19, 23, 18, 16, 21]
29.858[19, 20, 19, 21, 22, 17, 18, 20]
29.88[18, 21, 21, 20, 22, 18, 16, 18]
29.903[19, 21, 20, 21, 20, 17, 17, 17]
29.918[18, 22, 21, 19, 19, 20, 17, 21]
29.94[18, 22, 20, 20, 18, 19, 16, 18]
29.963[17, 21, 22, 18, 22, 19, 16, 18]
29.978[18, 22, 21, 18, 22, 20, 18, 19]
30.0[19, 21, 21, 20, 22, 23, 18, 20]
30.039[20, 20, 20, 20, 24, 22, 20, 17]
30.04[19, 20, 22, 23, 42, 23, 29, 23]
30.06[20, 21, 21, 25, 43, 39, 32, 23]
30.083[20, 20, 21, 27, 44, 39, 32, 23]
30.105[22, 23, 24, 25, 63, 52, 93, 45]
30.12[24, 26, 26, 30, 92, 63, 98, 46]
30.143[25, 27, 27, 37, 156, 78, 154, 50]
30.157[27, 28, 28, 54, 202, 92, 165, 62]
30.18[33, 32, 42, 166, 275, 108, 201, 77]
30.203[47, 40, 54, 212, 338, 136, 231, 121]
30.219[49, 43, 57, 216, 369, 157, 290, 139]
30.24[52, 44, 62, 234, 403, 192, 314, 159]
30.262[85, 83, 127, 334, 617, 268, 354, 180]
30.278[92, 86, 130, 304, 615, 286, 378, 215]
30.3[88, 84, 129, 291, 617, 302, 419, 203]
30.323[92, 86, 133, 306, 651, 314, 448, 219]
30.345[95, 89, 137, 302, 682, 313, 465, 213]
30.362[75, 60, 89, 202, 570, 294, 462, 225]
30.382[73, 60, 81, 213, 579, 293, 452, 206]
30.405[73, 64, 85, 217, 617, 272, 430, 218]
30.42[69, 61, 83, 232, 630, 295, 445, 205]
30.443[69, 61, 83, 260, 621, 291, 438, 207]
30.465[69, 63, 79, 282, 568, 305, 447, 202]
30.48[68, 69, 91, 281, 567, 320, 469, 202]
30.503[69, 65, 85, 287, 562, 343, 465, 200]
30.525[73, 67, 86, 267, 511, 321, 431, 205]
30.54[86, 67, 82, 237, 489, 338, 478, 293]
30.563[86, 65, 84, 213, 503, 318, 516, 303]
30.585[93, 58, 79, 261, 532, 386, 523, 311]
30.6[101, 67, 88, 245, 472, 407, 641, 317]
30.63[103, 78, 103, 249, 498, 405, 706, 330]
30.645[99, 79, 104, 254, 490, 406, 675, 265]
30.66[104, 82, 102, 254, 477, 392, 640, 249]
30.682[95, 80, 95, 208, 453, 342, 628, 259]
30.705[89, 73, 87, 201, 487, 315, 492, 275]
30.72[92, 67, 77, 227, 521, 328, 427, 273]
30.742[83, 65, 72, 218, 496, 314, 441, 274]
30.765[77, 59, 68, 222, 524, 332, 475, 278]
30.78[81, 62, 71, 214, 495, 314, 487, 268]
30.811[89, 67, 74, 213, 456, 333, 490, 236]
30.825[85, 60, 66, 214, 396, 313, 483, 215]
30.84[87, 59, 73, 247, 435, 333, 460, 201]
30.871[85, 60, 75, 245, 446, 333, 436, 188]
30.885[76, 56, 72, 244, 441, 309, 433, 182]
30.9[60, 50, 70, 254, 490, 278, 456, 181]
30.923[55, 47, 65, 237, 464, 292, 413, 186]
30.945[50, 46, 60, 216, 450, 286, 410, 187]
30.96[67, 48, 61, 208, 395, 264, 415, 212]
30.982[73, 51, 67, 223, 396, 277, 373, 208]
31.005[82, 54, 70, 249, 343, 281, 357, 226]
31.02[83, 54, 72, 250, 344, 280, 345, 224]
31.043[82, 52, 74, 268, 377, 275, 339, 216]
31.065[77, 53, 78, 279, 358, 277, 346, 213]
31.08[81, 53, 74, 262, 369, 290, 400, 242]
31.102[72, 48, 69, 233, 355, 277, 392, 223]
31.125[68, 47, 65, 227, 357, 266, 416, 224]
31.141[71, 49, 61, 190, 361, 269, 425, 228]
31.162[65, 49, 58, 172, 365, 263, 394, 220]
31.193[61, 47, 56, 168, 357, 244, 356, 188]
31.2[61, 49, 56, 159, 358, 253, 356, 181]
31.222[61, 46, 57, 147, 365, 251, 358, 171]
31.245[60, 45, 54, 152, 299, 231, 324, 186]
31.268[69, 37, 44, 148, 379, 253, 343, 174]
31.282[66, 34, 46, 158, 402, 255, 355, 184]
31.305[70, 34, 47, 158, 404, 232, 338, 193]
31.328[75, 36, 44, 156, 442, 244, 345, 205]
31.342[73, 38, 48, 156, 447, 236, 359, 202]
31.365[64, 40, 51, 146, 424, 202, 367, 206]
31.388[81, 48, 56, 144, 419, 205, 355, 204]
31.402[78, 49, 59, 168, 437, 206, 374, 205]
31.425[73, 49, 62, 159, 406, 213, 414, 201]
31.448[80, 51, 65, 162, 396, 211, 419, 200]
31.462[84, 54, 73, 205, 351, 226, 425, 191]
31.485[79, 50, 70, 199, 313, 242, 433, 179]
31.508[84, 50, 67, 177, 323, 271, 421, 212]
31.523[87, 50, 65, 185, 333, 255, 383, 224]
31.545[78, 50, 65, 201, 350, 273, 396, 225]
31.568[77, 49, 55, 185, 397, 272, 375, 231]
31.582[65, 48, 54, 203, 430, 288, 392, 230]
31.605[66, 48, 57, 208, 418, 269, 407, 204]
31.628[66, 47, 58, 216, 408, 312, 461, 189]
31.642[72, 50, 65, 206, 421, 318, 471, 185]
31.666[69, 47, 64, 192, 407, 337, 484, 220]
31.688[77, 48, 63, 181, 367, 313, 482, 223]
31.703[78, 52, 67, 184, 352, 316, 484, 222]
31.725[87, 55, 71, 175, 364, 293, 446, 258]
31.748[90, 52, 61, 161, 320, 291, 465, 322]
31.762[96, 61, 68, 156, 268, 283, 449, 290]
31.785[95, 61, 69, 165, 286, 273, 418, 289]
31.808[92, 63, 74, 164, 290, 274, 408, 282]
31.822[83, 61, 70, 170, 260, 265, 378, 268]
31.846[100, 69, 79, 184, 282, 258, 405, 237]
31.868[91, 61, 73, 190, 294, 236, 397, 242]
31.882[86, 59, 71, 182, 318, 236, 407, 232]
31.905[84, 52, 60, 178, 309, 252, 402, 268]
31.928[83, 53, 61, 177, 323, 238, 407, 283]
31.942[55, 39, 49, 161, 303, 214, 349, 273]
31.965[61, 48, 57, 154, 294, 217, 389, 273]
31.988[68, 54, 66, 148, 258, 211, 374, 288]
32.003[71, 56, 66, 146, 322, 200, 411, 289]
32.025[76, 57, 67, 153, 303, 234, 465, 271]
32.048[79, 60, 74, 170, 342, 271, 445, 251]
32.062[87, 61, 71, 178, 347, 269, 424, 297]
32.085[97, 61, 71, 181, 359, 286, 460, 324]
32.108[100, 65, 74, 198, 299, 281, 459, 321]
32.122[103, 70, 80, 195, 338, 260, 373, 309]
32.153[108, 68, 75, 181, 317, 261, 403, 298]
32.168[101, 61, 71, 181, 338, 262, 392, 287]
32.182[92, 59, 67, 185, 360, 285, 461, 256]
32.205[93, 57, 66, 175, 366, 280, 438, 236]
32.228[87, 53, 64, 173, 328, 276, 467, 261]
32.25[84, 56, 66, 175, 314, 265, 457, 263]
32.266[88, 59, 71, 181, 308, 254, 461, 230]
32.288[85, 57, 71, 177, 261, 237, 414, 290]
32.31[81, 58, 68, 172, 274, 284, 424, 306]
32.325[81, 55, 60, 171, 271, 290, 418, 316]
32.348[76, 51, 63, 180, 291, 303, 411, 322]
32.37[73, 51, 63, 174, 277, 313, 428, 353]
32.385[78, 54, 63, 174, 287, 311, 423, 362]
32.408[79, 49, 61, 175, 293, 303, 422, 348]
32.431[77, 48, 63, 162, 285, 383, 484, 327]
32.445[83, 46, 57, 145, 262, 368, 508, 343]
32.468[84, 49, 56, 163, 259, 373, 510, 339]
32.49[85, 47, 63, 182, 252, 372, 493, 295]
32.506[91, 52, 65, 172, 260, 349, 486, 309]
32.528[108, 62, 73, 185, 265, 260, 442, 324]
32.558[110, 62, 74, 196, 291, 263, 401, 343]
32.566[115, 59, 71, 178, 293, 269, 381, 324]
32.588[117, 59, 65, 160, 322, 267, 370, 318]
32.61[113, 59, 68, 173, 305, 278, 355, 293]
32.626[100, 51, 60, 160, 328, 275, 409, 288]
32.648[108, 50, 59, 154, 308, 292, 421, 285]
32.671[114, 52, 62, 161, 311, 290, 419, 280]
32.686[114, 50, 58, 167, 289, 302, 432, 291]
32.708[112, 48, 56, 155, 283, 298, 467, 306]
32.73[113, 46, 54, 157, 267, 305, 401, 290]
32.745[97, 51, 61, 189, 273, 286, 412, 256]
32.768[82, 51, 61, 176, 293, 318, 454, 248]
32.79[85, 54, 66, 183, 281, 305, 438, 248]
32.804[90, 56, 68, 193, 274, 332, 416, 263]
32.828[88, 58, 67, 190, 273, 324, 391, 262]
32.85[98, 55, 64, 171, 259, 315, 380, 263]
32.865[100, 55, 65, 169, 251, 310, 337, 302]
32.888[99, 53, 66, 157, 294, 319, 327, 288]
32.91[96, 51, 64, 142, 306, 318, 373, 313]
32.925[98, 61, 75, 157, 313, 354, 394, 312]
32.948[92, 61, 76, 159, 313, 367, 370, 315]
32.97[90, 65, 80, 174, 288, 331, 346, 316]
32.985[82, 66, 83, 194, 263, 324, 384, 301]
33.008[89, 65, 81, 204, 318, 314, 320, 344]
33.031[91, 58, 76, 219, 334, 302, 322, 345]
33.045[91, 65, 86, 222, 353, 295, 331, 340]
33.068[93, 62, 82, 213, 357, 316, 330, 319]
33.09[95, 58, 76, 188, 343, 340, 286, 381]
33.113[90, 59, 76, 179, 345, 350, 333, 351]
33.128[93, 53, 69, 142, 318, 340, 323, 364]
33.151[106, 43, 52, 115, 307, 344, 315, 422]
33.173[105, 39, 54, 119, 317, 358, 335, 458]
33.188[107, 38, 54, 123, 321, 323, 348, 438]
33.21[105, 40, 56, 122, 250, 287, 300, 415]
33.233[100, 41, 56, 126, 263, 286, 292, 401]
33.248[86, 45, 57, 151, 272, 290, 296, 362]
33.271[94, 48, 54, 147, 261, 249, 279, 347]
33.293[88, 47, 51, 150, 282, 258, 289, 314]
33.309[95, 48, 48, 157, 281, 263, 324, 299]
33.331[95, 48, 48, 154, 258, 245, 310, 329]
33.353[93, 44, 43, 123, 237, 247, 320, 291]
33.368[77, 41, 40, 129, 246, 283, 384, 223]
33.391[91, 44, 45, 152, 228, 281, 374, 263]
33.413[85, 43, 46, 158, 223, 265, 357, 251]
33.428[85, 44, 47, 160, 218, 255, 389, 214]
33.45[95, 49, 57, 185, 257, 238, 390, 257]
33.473[96, 53, 63, 180, 253, 190, 329, 259]
33.489[86, 55, 65, 163, 229, 168, 304, 228]
33.511[98, 55, 76, 161, 229, 192, 340, 268]
33.532[100, 57, 78, 169, 275, 220, 314, 278]
33.549[93, 54, 72, 142, 237, 206, 302, 318]
33.57[98, 49, 67, 145, 237, 257, 314, 376]
33.592[100, 48, 64, 144, 266, 275, 356, 395]
33.609[96, 51, 53, 133, 267, 279, 329, 397]
33.63[91, 51, 53, 122, 248, 262, 328, 411]
33.669[90, 53, 56, 137, 266, 283, 340, 375]
33.67[89, 55, 57, 136, 277, 242, 329, 338]
33.691[87, 54, 57, 132, 257, 239, 307, 324]
33.712[76, 50, 55, 152, 258, 218, 328, 318]
33.729[78, 48, 54, 158, 257, 224, 340, 296]
33.75[77, 44, 52, 158, 241, 221, 357, 294]
33.772[72, 42, 48, 150, 213, 215, 353, 269]
33.789[74, 43, 50, 149, 233, 206, 341, 266]
33.817[95, 46, 56, 128, 222, 214, 310, 291]
33.832[101, 47, 54, 123, 205, 224, 322, 298]
33.849[101, 47, 55, 106, 217, 203, 303, 287]
33.871[100, 46, 55, 105, 210, 207, 301, 310]
33.892[98, 45, 58, 108, 196, 226, 324, 316]
33.909[72, 42, 52, 113, 200, 227, 328, 265]
33.93[65, 40, 50, 103, 202, 201, 302, 252]
33.952[68, 41, 54, 117, 195, 261, 298, 265]
33.969[75, 44, 57, 122, 195, 261, 325, 262]
33.991[72, 42, 51, 117, 234, 248, 295, 239]
34.014[71, 41, 50, 125, 230, 268, 292, 223]
34.029[68, 41, 53, 135, 222, 280, 325, 221]
34.05[64, 41, 50, 132, 230, 232, 321, 202]
34.072[63, 39, 49, 126, 244, 239, 280, 175]
34.089[69, 50, 62, 125, 207, 252, 320, 160]
34.11[73, 50, 63, 120, 253, 243, 303, 183]
34.132[72, 49, 60, 121, 253, 234, 274, 229]
34.155[80, 55, 66, 132, 256, 259, 336, 247]
34.17[74, 53, 65, 146, 253, 286, 336, 258]
34.194[66, 44, 53, 148, 248, 303, 329, 258]
34.216[70, 44, 51, 154, 227, 291, 330, 259]
34.23[85, 47, 53, 156, 240, 291, 349, 303]
34.252[83, 44, 49, 152, 234, 276, 290, 298]
34.275[87, 47, 51, 142, 249, 238, 309, 291]
34.29[87, 47, 51, 151, 279, 206, 306, 307]
34.312[85, 46, 51, 148, 267, 213, 326, 296]
34.335[79, 45, 49, 137, 248, 228, 365, 221]
34.35[69, 41, 42, 129, 241, 220, 397, 202]
34.372[72, 43, 47, 135, 254, 241, 405, 202]
34.394[83, 46, 51, 124, 285, 255, 422, 240]
34.41[81, 46, 52, 128, 314, 296, 427, 250]
34.432[81, 43, 51, 162, 346, 313, 410, 268]
34.455[85, 44, 54, 196, 356, 312, 442, 279]
34.47[82, 41, 48, 197, 342, 316, 455, 277]
34.492[82, 43, 49, 199, 302, 298, 453, 239]
34.515[94, 45, 49, 198, 305, 262, 458, 257]
34.531[94, 48, 53, 178, 283, 235, 485, 253]
34.552[96, 51, 55, 144, 294, 262, 458, 253]
34.575[117, 52, 57, 167, 324, 247, 455, 330]
34.59[110, 46, 57, 171, 339, 264, 444, 334]
34.614[102, 48, 60, 163, 326, 267, 467, 320]
34.635[100, 46, 59, 160, 321, 273, 440, 317]
34.65[98, 43, 54, 157, 298, 246, 407, 320]
34.672[77, 44, 55, 128, 258, 242, 404, 242]
34.695[83, 45, 51, 115, 215, 236, 383, 234]
34.711[81, 42, 46, 112, 194, 215, 338, 263]
34.732[80, 43, 45, 109, 182, 221, 308, 254]
34.755[79, 45, 47, 103, 193, 237, 348, 274]
34.769[80, 43, 43, 107, 202, 264, 364, 287]
34.792[73, 44, 45, 114, 247, 257, 378, 295]
34.815[72, 47, 48, 140, 277, 259, 388, 264]
34.83[75, 43, 51, 148, 281, 273, 376, 266]
34.852[69, 39, 54, 158, 270, 273, 356, 244]
34.875[70, 39, 58, 182, 289, 240, 316, 257]
34.891[79, 36, 60, 186, 267, 256, 339, 246]
34.912[91, 38, 59, 177, 259, 294, 334, 251]
34.935[99, 41, 56, 180, 264, 281, 361, 269]
34.95[108, 48, 63, 206, 278, 294, 341, 284]
34.972[108, 48, 60, 187, 269, 312, 343, 250]
34.995[108, 51, 58, 176, 269, 315, 318, 252]
35.01[106, 52, 60, 175, 245, 279, 299, 274]
35.032[93, 52, 61, 176, 257, 286, 353, 244]
35.056[90, 50, 55, 138, 246, 262, 371, 212]
35.077[96, 53, 61, 142, 223, 250, 360, 243]
35.1[94, 51, 60, 141, 208, 214, 337, 261]
35.115[87, 51, 61, 129, 208, 244, 402, 255]
35.138[103, 55, 72, 151, 197, 226, 330, 254]
35.152[102, 51, 67, 146, 213, 229, 300, 282]
35.175[93, 49, 67, 136, 211, 262, 356, 266]
35.197[90, 50, 64, 142, 219, 274, 368, 255]
35.212[89, 46, 64, 160, 208, 262, 292, 238]
35.235[80, 41, 55, 138, 213, 257, 307, 249]
35.257[82, 43, 56, 139, 179, 266, 397, 218]
35.272[81, 45, 55, 175, 211, 238, 363, 237]
35.295[88, 49, 57, 172, 226, 239, 364, 232]
35.317[100, 49, 52, 160, 244, 234, 390, 230]
35.332[100, 48, 51, 154, 254, 243, 383, 217]
35.355[97, 47, 49, 152, 272, 235, 320, 226]
35.377[103, 44, 46, 133, 322, 237, 323, 243]
35.392[102, 38, 53, 167, 365, 239, 326, 236]
35.414[93, 41, 61, 201, 440, 230, 318, 229]
35.437[91, 45, 65, 205, 440, 244, 324, 229]
35.452[91, 46, 67, 215, 446, 281, 374, 220]
35.475[89, 52, 68, 206, 409, 275, 363, 204]
35.497[96, 52, 65, 183, 371, 272, 380, 223]
35.513[95, 51, 60, 165, 285, 273, 370, 226]
35.535[96, 48, 58, 197, 320, 251, 357, 228]
35.557[95, 46, 56, 190, 311, 198, 292, 247]
35.572[101, 43, 64, 218, 296, 231, 368, 249]
35.595[97, 44, 63, 221, 297, 233, 375, 227]
35.617[96, 41, 61, 210, 283, 234, 382, 220]
35.632[93, 40, 60, 188, 247, 267, 413, 222]
35.655[91, 41, 61, 196, 269, 280, 413, 217]
35.677[76, 36, 48, 152, 262, 246, 344, 172]
35.692[81, 40, 48, 149, 268, 237, 318, 187]
35.715[90, 46, 50, 149, 290, 250, 323, 224]
35.737[90, 47, 49, 140, 270, 201, 267, 234]
35.752[93, 47, 50, 135, 262, 199, 276, 224]
35.775[102, 49, 51, 179, 298, 229, 381, 240]
35.797[90, 46, 51, 180, 295, 242, 426, 234]
35.814[85, 43, 53, 190, 287, 237, 409, 239]
35.835[94, 43, 52, 184, 294, 274, 451, 245]
35.857[92, 44, 51, 176, 269, 265, 461, 258]
35.872[85, 44, 50, 143, 255, 243, 390, 253]
35.895[87, 42, 49, 138, 269, 235, 343, 256]
35.917[84, 43, 45, 126, 281, 241, 358, 246]
35.932[73, 41, 45, 123, 282, 248, 319, 233]
35.955[69, 39, 44, 125, 298, 237, 294, 223]
35.977[64, 39, 47, 132, 286, 229, 267, 226]
36.0[65, 39, 45, 139, 256, 218, 254, 234]
36.015[68, 38, 47, 146, 251, 240, 234, 218]
36.037[62, 39, 48, 164, 231, 198, 212, 207]
36.06[77, 40, 47, 160, 216, 220, 237, 211]
36.075[87, 37, 46, 153, 220, 229, 245, 213]
36.097[92, 38, 48, 147, 226, 268, 244, 205]
36.121[93, 36, 46, 144, 180, 232, 235, 225]
36.135[103, 38, 47, 132, 191, 256, 295, 236]
36.157[99, 40, 48, 134, 225, 293, 299, 219]
36.18[99, 40, 46, 134, 217, 292, 310, 213]
36.195[98, 43, 52, 154, 226, 280, 317, 220]
36.217[95, 47, 55, 146, 233, 320, 338, 189]
36.24[93, 45, 54, 143, 250, 300, 306, 190]
36.255[87, 43, 55, 158, 250, 290, 280, 193]
36.277[82, 46, 57, 160, 257, 305, 297, 200]
36.3[78, 43, 53, 145, 242, 287, 303, 206]
36.315[92, 43, 53, 154, 265, 246, 297, 215]
36.337[96, 45, 56, 170, 260, 263, 291, 213]
36.36[111, 47, 56, 158, 237, 235, 292, 241]
36.375[120, 49, 54, 150, 222, 214, 280, 238]
36.398[125, 47, 50, 139, 218, 231, 276, 236]
36.42[114, 44, 44, 120, 209, 248, 299, 226]
36.435[105, 43, 41, 109, 195, 247, 290, 231]
36.465[100, 44, 42, 115, 195, 243, 289, 230]
36.48[96, 45, 45, 115, 272, 250, 289, 238]
36.495[86, 45, 46, 133, 288, 239, 293, 228]
36.517[88, 50, 60, 166, 288, 289, 262, 226]
36.541[91, 53, 66, 163, 300, 295, 284, 230]
36.554[82, 48, 63, 170, 305, 289, 268, 198]
36.577[69, 45, 64, 175, 245, 289, 246, 189]
36.6[92, 53, 76, 200, 261, 323, 268, 228]
36.614[90, 48, 68, 195, 294, 262, 263, 238]
36.637[88, 45, 65, 200, 292, 246, 255, 233]
36.66[105, 51, 69, 196, 276, 245, 280, 239]
36.675[107, 49, 67, 191, 269, 263, 310, 257]
36.697[89, 44, 54, 154, 240, 234, 298, 220]
36.72[95, 43, 52, 126, 178, 243, 340, 238]
36.743[95, 41, 45, 114, 158, 273, 336, 260]
36.757[79, 38, 45, 156, 202, 297, 321, 306]
36.782[82, 41, 45, 164, 225, 295, 296, 283]
36.795[91, 40, 46, 173, 245, 280, 271, 302]
36.817[84, 43, 54, 198, 243, 292, 237, 303]
36.841[93, 47, 55, 201, 276, 276, 230, 315]
36.855[98, 47, 50, 164, 267, 250, 272, 260]
36.877[101, 45, 52, 172, 254, 245, 275, 272]
36.9[98, 45, 53, 164, 261, 276, 282, 250]
36.915[98, 44, 47, 146, 277, 263, 286, 231]
36.945[108, 42, 47, 134, 248, 262, 288, 178]
36.961[107, 41, 46, 129, 233, 294, 250, 220]
36.983[107, 42, 43, 103, 232, 285, 278, 245]
36.997[102, 39, 37, 95, 191, 250, 281, 249]
37.02[99, 40, 36, 67, 168, 230, 279, 249]
37.043[105, 41, 39, 62, 154, 238, 311, 309]
37.058[105, 41, 41, 57, 145, 212, 312, 287]
37.08[102, 45, 44, 62, 143, 215, 283, 261]
37.103[114, 45, 52, 116, 190, 225, 272, 263]
37.117[133, 47, 54, 122, 224, 262, 278, 294]
37.141[118, 48, 53, 129, 230, 248, 254, 249]
37.163[122, 48, 55, 138, 241, 271, 291, 256]
37.177[127, 48, 55, 150, 248, 275, 360, 263]
37.2[122, 47, 50, 120, 244, 274, 365, 281]
37.223[110, 46, 54, 126, 216, 263, 356, 247]
37.238[122, 43, 53, 140, 242, 250, 353, 260]
37.261[113, 40, 51, 141, 251, 208, 340, 273]
37.283[113, 36, 47, 152, 246, 236, 317, 279]
37.298[107, 36, 49, 161, 237, 300, 383, 287]
37.321[107, 36, 44, 159, 243, 284, 397, 295]
37.343[90, 37, 48, 179, 247, 336, 393, 261]
37.358[97, 39, 48, 202, 244, 351, 387, 256]
37.38[93, 40, 50, 205, 255, 326, 352, 252]
37.403[95, 46, 54, 214, 243, 274, 281, 253]
37.418[97, 44, 52, 221, 235, 286, 253, 240]
37.44[100, 43, 50, 208, 227, 247, 254, 281]
37.463[96, 45, 51, 184, 227, 259, 269, 292]
37.477[101, 44, 52, 180, 217, 281, 281, 303]
37.5[100, 39, 49, 193, 228, 292, 292, 269]
37.531[93, 43, 54, 209, 260, 288, 304, 269]
37.537[113, 46, 52, 198, 252, 299, 335, 328]
37.56[119, 48, 51, 198, 238, 292, 354, 330]
37.583[118, 47, 51, 192, 261, 284, 353, 325]
37.597[120, 51, 54, 169, 248, 277, 352, 337]
37.62[130, 52, 51, 156, 222, 289, 362, 375]
37.643[114, 49, 52, 167, 254, 271, 370, 341]
37.657[114, 46, 52, 180, 261, 257, 347, 334]
37.68[155, 49, 50, 171, 229, 237, 335, 399]
37.703[156, 47, 47, 165, 234, 215, 308, 397]
37.717[150, 43, 45, 146, 220, 197, 289, 372]
37.74[151, 41, 42, 146, 195, 208, 258, 352]
37.763[148, 43, 47, 145, 194, 210, 244, 338]
37.777[96, 39, 50, 153, 203, 213, 250, 243]
37.808[104, 40, 50, 149, 233, 229, 259, 230]
37.831[109, 41, 52, 171, 238, 246, 272, 229]
37.837[106, 41, 53, 166, 215, 227, 256, 213]
37.86[103, 41, 51, 155, 210, 222, 251, 200]
37.883[108, 44, 48, 159, 209, 235, 244, 203]
37.906[111, 45, 52, 164, 190, 232, 238, 209]
37.92[104, 44, 49, 138, 189, 209, 216, 230]
37.943[110, 45, 47, 127, 196, 216, 212, 229]
37.965[110, 43, 43, 139, 225, 235, 251, 253]
37.98[106, 43, 48, 141, 240, 254, 322, 246]
38.003[94, 40, 45, 144, 233, 262, 333, 255]
38.025[107, 42, 44, 145, 236, 283, 325, 286]
38.04[93, 41, 49, 159, 223, 295, 343, 273]
38.063[90, 43, 53, 149, 239, 277, 309, 249]
38.085[88, 40, 50, 140, 222, 257, 240, 242]
38.1[84, 40, 49, 139, 216, 252, 230, 234]
38.123[71, 41, 55, 167, 246, 273, 285, 185]
38.145[74, 40, 53, 161, 271, 252, 275, 210]
38.16[78, 43, 55, 165, 233, 253, 277, 212]
38.183[92, 43, 55, 160, 233, 247, 281, 217]
38.205[93, 42, 56, 168, 268, 272, 301, 225]
38.22[90, 42, 50, 154, 243, 274, 252, 215]
38.243[92, 49, 55, 156, 237, 290, 238, 186]
38.266[101, 44, 50, 147, 231, 307, 260, 225]
38.28[92, 46, 49, 149, 231, 310, 252, 225]
38.31[94, 45, 46, 145, 197, 283, 232, 218]
38.326[90, 43, 45, 134, 224, 263, 273, 201]
38.34[88, 39, 44, 142, 203, 251, 308, 242]
38.363[74, 42, 56, 166, 205, 223, 287, 236]
38.386[67, 42, 62, 186, 216, 248, 304, 232]
38.408[73, 47, 65, 187, 211, 250, 321, 225]
38.431[75, 48, 68, 207, 177, 227, 311, 231]
38.446[89, 48, 65, 213, 196, 225, 309, 191]
38.459[95, 47, 56, 197, 198, 294, 323, 173]
38.483[106, 46, 50, 180, 196, 265, 305, 217]
38.504[105, 42, 50, 178, 212, 305, 342, 236]
38.527[103, 39, 48, 158, 213, 294, 315, 240]
38.543[92, 38, 50, 152, 194, 348, 333, 243]
38.564[83, 36, 55, 148, 215, 300, 328, 243]
38.587[77, 37, 60, 156, 212, 304, 333, 217]
38.603[75, 41, 62, 171, 221, 267, 290, 214]
38.624[80, 41, 62, 176, 212, 322, 294, 222]
38.647[80, 42, 62, 164, 215, 264, 239, 230]
38.663[80, 42, 62, 219, 261, 267, 235, 214]
38.686[76, 44, 73, 244, 254, 271, 228, 214]
38.708[72, 43, 71, 226, 226, 274, 197, 187]
38.724[73, 46, 75, 242, 290, 213, 239, 159]
38.745[65, 45, 73, 259, 309, 198, 256, 170]
38.767[64, 46, 77, 233, 247, 213, 292, 170]
38.783[62, 44, 64, 207, 256, 216, 298, 166]
38.804[59, 42, 62, 207, 265, 222, 330, 220]
38.827[54, 44, 61, 182, 214, 231, 316, 256]
38.843[61, 43, 59, 172, 194, 257, 341, 265]
38.865[70, 41, 48, 147, 200, 236, 307, 271]
38.887[67, 39, 47, 135, 187, 239, 369, 274]
38.903[70, 42, 54, 158, 200, 216, 347, 240]
38.925[67, 37, 45, 154, 179, 240, 361, 212]
38.947[68, 37, 48, 148, 171, 221, 338, 176]
38.963[59, 40, 50, 160, 173, 215, 369, 171]
38.985[60, 40, 52, 171, 173, 195, 301, 157]
39.007[62, 39, 49, 163, 163, 204, 307, 158]
39.023[62, 39, 52, 165, 160, 174, 308, 146]
39.045[55, 40, 53, 163, 161, 174, 343, 151]
39.067[61, 39, 56, 186, 153, 177, 309, 163]
39.083[65, 41, 55, 182, 175, 195, 317, 159]
39.104[60, 41, 53, 174, 160, 184, 304, 148]
39.127[65, 47, 59, 184, 180, 180, 307, 161]
39.142[71, 51, 62, 185, 184, 181, 268, 159]
39.165[72, 51, 57, 144, 192, 202, 285, 151]
39.188[70, 49, 53, 143, 186, 193, 293, 167]
39.202[76, 51, 56, 140, 194, 224, 306, 197]
39.224[71, 45, 50, 122, 182, 276, 295, 190]
39.247[70, 41, 49, 113, 185, 281, 282, 187]
39.262[68, 38, 47, 132, 195, 266, 273, 184]
39.285[73, 39, 53, 135, 184, 277, 271, 210]
39.307[64, 39, 54, 134, 187, 283, 263, 182]
39.322[62, 39, 53, 137, 178, 220, 225, 174]
39.345[65, 39, 53, 142, 166, 206, 217, 207]
39.367[60, 40, 57, 143, 179, 215, 237, 211]
39.382[65, 39, 53, 130, 198, 218, 253, 200]
39.405[68, 34, 47, 126, 185, 203, 256, 200]
39.427[73, 38, 49, 153, 198, 218, 259, 202]
39.447[73, 41, 50, 163, 225, 224, 275, 179]
39.465[75, 39, 48, 149, 198, 235, 264, 181]
39.488[77, 41, 48, 151, 178, 215, 232, 153]
39.502[78, 42, 58, 157, 177, 205, 299, 166]
39.525[75, 40, 55, 136, 174, 196, 316, 169]
39.547[72, 36, 52, 124, 163, 197, 311, 169]
39.562[69, 42, 59, 132, 162, 178, 309, 159]
39.584[57, 43, 63, 143, 155, 188, 307, 166]
39.607[62, 43, 54, 143, 168, 209, 271, 178]
39.622[61, 42, 57, 135, 172, 211, 250, 179]
39.644[58, 44, 58, 142, 156, 208, 250, 158]
39.667[67, 44, 55, 158, 153, 234, 309, 154]
39.682[63, 43, 54, 146, 173, 219, 305, 139]
39.704[61, 42, 53, 147, 170, 219, 282, 122]
39.727[62, 41, 50, 143, 162, 210, 281, 112]
39.751[61, 37, 44, 124, 166, 218, 271, 117]
39.772[50, 28, 37, 92, 163, 181, 176, 111]
39.795[48, 26, 30, 85, 138, 176, 167, 104]
39.81[36, 25, 29, 61, 118, 118, 132, 74]
39.824[29, 25, 31, 60, 100, 113, 104, 57]
39.847[27, 25, 30, 50, 58, 74, 81, 45]
39.87[25, 26, 29, 40, 52, 56, 51, 36]
39.884[28, 25, 29, 36, 42, 44, 49, 33]
39.907[25, 22, 26, 35, 37, 35, 38, 25]
39.93[26, 23, 22, 32, 35, 32, 33, 25]
39.944[24, 23, 24, 29, 30, 26, 29, 22]
39.967[23, 21, 24, 25, 24, 24, 24, 21]
39.99[21, 23, 26, 25, 26, 21, 23, 19]
40.005[20, 24, 28, 27, 28, 17, 21, 18]
40.027[19, 23, 29, 32, 28, 20, 18, 18]
40.05[18, 22, 27, 32, 28, 22, 17, 19]
40.064[19, 23, 27, 31, 28, 21, 16, 20]
40.087[20, 22, 23, 32, 27, 20, 15, 19]
40.109[19, 20, 21, 29, 24, 21, 16, 19]
40.124[19, 19, 20, 24, 25, 19, 21, 20]
40.147[19, 20, 18, 22, 23, 17, 20, 20]
40.169[17, 20, 19, 21, 21, 19, 20, 19]
40.184[16, 20, 19, 25, 21, 22, 21, 19]
40.207[16, 21, 21, 26, 21, 21, 21, 19]
40.23[17, 23, 22, 28, 22, 22, 17, 17]
40.245[17, 23, 21, 41, 24, 23, 19, 17]
40.276[20, 22, 22, 60, 30, 22, 22, 17]
40.289[21, 21, 23, 59, 32, 23, 25, 19]
40.306[21, 20, 23, 59, 31, 23, 24, 20]
40.327[23, 18, 24, 59, 30, 23, 24, 21]
40.349[24, 19, 24, 51, 28, 23, 24, 21]
40.366[23, 18, 23, 27, 21, 24, 23, 21]
40.387[22, 18, 22, 24, 18, 20, 19, 19]
40.41[22, 20, 20, 20, 19, 20, 20, 19]
40.424[19, 19, 19, 20, 21, 19, 19, 18]
40.447[20, 20, 19, 18, 21, 19, 18, 19]
40.469[18, 22, 19, 18, 21, 18, 18, 19]
40.484[20, 21, 17, 20, 21, 21, 18, 20]
40.507[19, 20, 18, 20, 21, 22, 18, 21]
40.53[19, 21, 20, 19, 18, 23, 20, 20]
40.545[18, 22, 20, 22, 20, 21, 19, 21]
40.567[19, 21, 21, 22, 20, 22, 20, 21]
40.59[19, 21, 21, 21, 19, 19, 18, 20]
40.605[21, 21, 20, 22, 19, 17, 19, 19]
40.628[20, 20, 20, 22, 21, 16, 17, 19]
40.65[20, 19, 20, 21, 20, 15, 19, 18]
40.666[19, 18, 21, 22, 21, 14, 18, 17]
40.687[19, 21, 21, 21, 21, 15, 18, 18]
40.71[18, 23, 21, 20, 21, 16, 17, 19]
40.732[19, 24, 21, 20, 20, 16, 17, 20]
40.747[20, 25, 22, 19, 19, 17, 16, 19]
40.77[20, 26, 20, 19, 18, 18, 17, 20]
40.792[20, 24, 21, 18, 19, 18, 17, 20]
40.808[21, 22, 19, 19, 22, 18, 19, 19]
40.829[21, 22, 20, 18, 22, 18, 18, 19]
40.852[22, 20, 19, 18, 23, 18, 19, 19]
40.867[21, 20, 18, 16, 24, 18, 18, 21]
40.89[21, 21, 19, 17, 24, 17, 18, 20]
40.913[23, 20, 19, 15, 21, 19, 19, 22]
40.927[22, 21, 20, 16, 21, 19, 20, 22]
40.949[20, 20, 20, 17, 21, 19, 19, 21]
40.973[21, 20, 21, 16, 20, 20, 23, 19]
40.987[20, 20, 19, 17, 20, 21, 23, 21]
41.01[18, 21, 20, 17, 21, 19, 22, 19]
41.033[18, 21, 18, 19, 21, 20, 21, 19]
41.047[19, 21, 18, 19, 20, 19, 22, 19]
41.07[17, 22, 17, 20, 19, 17, 21, 19]
41.093[17, 21, 19, 19, 18, 17, 19, 17]
41.107[16, 20, 18, 20, 17, 18, 19, 19]
41.13[16, 19, 19, 20, 17, 18, 19, 19]
41.153[17, 18, 19, 18, 18, 18, 19, 20]
41.176[17, 19, 23, 19, 19, 20, 17, 20]
41.19[18, 19, 22, 20, 20, 20, 17, 19]
41.213[18, 21, 23, 21, 20, 20, 18, 18]
41.227[18, 21, 22, 22, 21, 18, 17, 20]
41.249[18, 21, 21, 22, 21, 20, 18, 19]
41.273[22, 21, 19, 20, 20, 18, 19, 19]
41.287[21, 21, 19, 20, 20, 17, 20, 21]
41.309[22, 19, 19, 18, 20, 18, 19, 21]
41.333[21, 22, 20, 16, 19, 18, 21, 22]
41.347[21, 22, 19, 19, 17, 18, 20, 22]
41.369[22, 22, 21, 18, 17, 18, 19, 21]
41.393[21, 21, 21, 19, 16, 20, 18, 20]
41.407[21, 21, 20, 19, 16, 19, 19, 20]
41.429[22, 18, 20, 21, 17, 19, 17, 18]
41.453[21, 18, 21, 19, 17, 17, 19, 16]
41.475[18, 18, 19, 20, 17, 18, 20, 18]
41.489[18, 18, 18, 20, 19, 17, 19, 20]
41.513[18, 18, 20, 20, 21, 16, 18, 20]
41.527[18, 18, 21, 19, 22, 17, 18, 21]
41.55[18, 19, 21, 20, 24, 17, 17, 22]
41.573[16, 18, 22, 18, 25, 16, 17, 21]
41.587[17, 22, 22, 17, 23, 16, 17, 20]
41.609[19, 23, 23, 18, 22, 16, 18, 19]
41.633[17, 23, 23, 18, 20, 17, 19, 20]
41.647[18, 23, 23, 17, 20, 19, 18, 20]
41.671[19, 24, 24, 19, 20, 19, 17, 20]
41.693[20, 21, 24, 20, 20, 19, 17, 19]
41.715[18, 23, 23, 20, 20, 20, 16, 18]
41.729[21, 23, 22, 20, 21, 19, 15, 19]
41.753[20, 22, 22, 22, 19, 18, 17, 19]
41.775[21, 24, 22, 21, 20, 18, 17, 21]
41.79[21, 23, 23, 20, 19, 20, 18, 20]
41.813[21, 21, 23, 19, 21, 17, 19, 22]
41.835[19, 21, 23, 19, 19, 19, 19, 20]
41.85[20, 22, 22, 17, 20, 19, 20, 20]
41.873[19, 20, 23, 17, 20, 18, 20, 18]
41.895[18, 21, 22, 18, 21, 17, 20, 18]
41.909[19, 20, 22, 20, 22, 17, 20, 18]
41.933[18, 20, 20, 19, 22, 17, 23, 20]
41.955[18, 20, 21, 19, 22, 16, 22, 19]
41.97[20, 21, 20, 20, 20, 16, 21, 19]
41.993[20, 20, 22, 20, 20, 15, 22, 20]
42.015[18, 20, 23, 18, 17, 16, 23, 19]
42.039[19, 20, 24, 18, 17, 16, 20, 19]
42.053[20, 19, 24, 17, 16, 16, 20, 19]
42.075[16, 19, 24, 18, 17, 18, 21, 20]
42.09[21, 19, 22, 16, 18, 19, 19, 20]
42.113[21, 20, 20, 18, 18, 20, 19, 20]
42.135[19, 20, 19, 19, 18, 20, 21, 20]
42.15[19, 22, 19, 19, 20, 20, 21, 21]
42.172[20, 22, 18, 19, 22, 19, 21, 19]
42.195[16, 21, 19, 21, 23, 19, 21, 18]
42.218[17, 21, 18, 19, 23, 18, 20, 19]
42.233[19, 21, 20, 21, 23, 18, 18, 17]
42.271[19, 20, 20, 22, 24, 17, 18, 18]
42.272[19, 21, 21, 21, 22, 18, 18, 18]
42.293[19, 24, 20, 21, 22, 19, 19, 19]
42.315[26, 22, 22, 20, 20, 18, 19, 20]
42.33[26, 21, 22, 18, 22, 17, 19, 18]
42.352[25, 23, 21, 17, 21, 17, 17, 20]
42.375[25, 24, 23, 18, 20, 18, 18, 21]
42.389[24, 23, 23, 18, 20, 17, 19, 20]
42.413[16, 23, 22, 18, 20, 20, 18, 21]
42.435[15, 23, 20, 19, 20, 20, 20, 22]
42.45[16, 23, 20, 18, 19, 21, 20, 19]
42.473[18, 23, 19, 19, 19, 21, 20, 18]
42.495[18, 22, 18, 17, 18, 20, 18, 20]
42.509[17, 22, 20, 19, 20, 19, 19, 18]
42.533[17, 23, 19, 18, 20, 20, 18, 18]
42.555[19, 21, 20, 19, 21, 19, 18, 18]
42.57[19, 20, 19, 19, 24, 20, 18, 17]
42.593[20, 19, 21, 19, 24, 20, 19, 15]
42.615[20, 19, 19, 18, 23, 19, 17, 15]
42.638[20, 17, 19, 20, 23, 17, 17, 16]
42.653[17, 18, 20, 17, 23, 17, 16, 16]
42.675[18, 19, 19, 19, 21, 16, 18, 17]
42.698[17, 19, 18, 19, 21, 16, 17, 18]
42.713[17, 19, 17, 18, 22, 18, 18, 19]
42.735[19, 19, 19, 18, 21, 18, 19, 18]
42.758[20, 17, 18, 19, 22, 18, 20, 19]
42.773[19, 18, 21, 18, 20, 19, 22, 20]
42.795[20, 17, 22, 19, 19, 17, 21, 19]
42.818[21, 17, 24, 19, 20, 18, 22, 19]
42.833[20, 18, 23, 19, 19, 19, 22, 19]
42.855[20, 20, 24, 20, 18, 19, 22, 18]
42.878[22, 21, 22, 18, 18, 18, 21, 17]
42.893[22, 22, 23, 18, 18, 20, 21, 18]
42.915[22, 22, 22, 20, 18, 19, 21, 18]
42.938[20, 24, 22, 20, 18, 17, 21, 18]
42.953[21, 21, 20, 20, 19, 18, 19, 20]
42.975[18, 19, 21, 22, 20, 18, 18, 19]
42.997[17, 21, 19, 21, 19, 17, 18, 19]
43.013[18, 22, 20, 19, 18, 18, 18, 18]
43.035[18, 21, 20, 20, 20, 19, 19, 19]
43.058[19, 23, 19, 20, 19, 19, 18, 18]
43.073[19, 25, 18, 18, 18, 20, 20, 19]
43.095[20, 24, 18, 19, 19, 21, 21, 19]
43.118[19, 22, 16, 18, 20, 19, 22, 20]
43.132[19, 22, 17, 19, 19, 20, 21, 20]
43.155[18, 21, 17, 19, 19, 20, 22, 18]
43.185[18, 18, 18, 19, 20, 20, 20, 19]
43.192[17, 17, 16, 21, 21, 20, 18, 18]
43.215[17, 19, 18, 22, 19, 22, 16, 17]
43.238[17, 19, 17, 21, 23, 20, 17, 17]
43.252[18, 19, 18, 20, 22, 20, 20, 18]
43.275[18, 19, 18, 20, 21, 19, 20, 16]
43.298[19, 19, 19, 18, 21, 19, 22, 18]
43.312[19, 16, 18, 17, 21, 17, 23, 17]
43.335[19, 16, 20, 17, 17, 17, 22, 18]
43.358[19, 16, 19, 18, 17, 15, 22, 16]
43.38[18, 16, 19, 18, 19, 16, 23, 17]
43.395[20, 18, 19, 18, 19, 16, 22, 16]
43.418[19, 18, 20, 20, 19, 19, 21, 17]
43.433[20, 20, 19, 21, 19, 18, 22, 18]
43.455[20, 20, 19, 21, 21, 20, 19, 18]
43.478[20, 19, 18, 21, 21, 19, 18, 18]
43.499[20, 21, 20, 21, 20, 20, 18, 19]
43.516[22, 22, 18, 20, 19, 21, 18, 18]
43.537[20, 21, 17, 21, 19, 22, 19, 18]
43.56[20, 21, 17, 20, 17, 21, 20, 18]
43.576[21, 21, 19, 23, 15, 22, 20, 19]
43.597[19, 19, 18, 23, 17, 21, 21, 19]
43.62[19, 18, 19, 22, 17, 19, 20, 21]
43.636[19, 18, 20, 23, 19, 20, 19, 21]
43.66[18, 18, 20, 23, 19, 22, 19, 20]
43.679[18, 17, 18, 21, 19, 21, 19, 20]
43.696[18, 17, 18, 22, 18, 22, 18, 21]
43.719[17, 16, 17, 22, 19, 21, 20, 21]
43.739[17, 15, 17, 19, 18, 20, 20, 21]
43.756[18, 19, 17, 21, 19, 17, 20, 22]
43.777[20, 20, 19, 21, 19, 17, 20, 23]
43.8[21, 20, 21, 19, 18, 16, 20, 20]
43.816[20, 18, 21, 21, 18, 17, 20, 21]
43.837[20, 19, 22, 21, 19, 17, 19, 20]
43.859[21, 16, 22, 20, 19, 17, 20, 21]
43.876[17, 17, 22, 20, 20, 17, 21, 19]
43.897[18, 17, 21, 21, 22, 18, 21, 19]
43.919[18, 19, 21, 19, 23, 17, 22, 19]
43.936[17, 18, 21, 20, 24, 18, 22, 19]
43.957[20, 19, 20, 20, 24, 19, 21, 18]
43.98[20, 18, 20, 19, 23, 20, 20, 19]
43.996[19, 20, 21, 19, 21, 20, 19, 21]
44.017[19, 20, 21, 18, 20, 20, 19, 19]
44.039[20, 20, 20, 18, 18, 20, 20, 20]
44.056[18, 20, 22, 18, 20, 20, 23, 22]
44.077[18, 20, 21, 19, 20, 19, 23, 21]
44.099[20, 21, 20, 19, 19, 18, 24, 20]
44.116[20, 20, 19, 20, 20, 19, 23, 22]
44.137[20, 20, 21, 20, 20, 18, 21, 21]
44.16[22, 19, 20, 19, 17, 19, 18, 19]
44.176[23, 20, 19, 19, 19, 20, 18, 19]
44.198[22, 18, 20, 19, 21, 20, 17, 18]
44.219[21, 19, 22, 19, 21, 18, 18, 16]
44.236[20, 19, 21, 18, 22, 19, 19, 15]
44.257[18, 19, 21, 19, 22, 18, 19, 16]
44.279[18, 18, 23, 20, 20, 19, 18, 15]
44.296[17, 17, 22, 18, 18, 19, 18, 18]
44.317[20, 16, 20, 18, 19, 20, 18, 18]
44.339[20, 17, 20, 19, 19, 21, 19, 20]
44.356[20, 18, 19, 20, 18, 22, 21, 20]
44.377[20, 18, 19, 17, 19, 21, 22, 21]
44.399[19, 20, 19, 18, 20, 22, 23, 20]
44.416[17, 20, 19, 17, 19, 21, 24, 18]
44.437[20, 21, 21, 19, 19, 22, 22, 20]
44.459[20, 22, 21, 19, 19, 21, 20, 21]
44.492[21, 23, 20, 19, 19, 20, 19, 20]
44.505[22, 22, 20, 19, 21, 17, 19, 19]
44.519[21, 23, 21, 21, 21, 19, 16, 20]
44.542[19, 22, 20, 20, 21, 16, 18, 19]
