[16, 16, 27, 21, 17, 16, 18, 20]
0.599[16, 18, 28, 21, 17, 14, 20, 22]
0.623[15, 16, 26, 20, 17, 14, 20, 21]
0.644[15, 17, 27, 19, 16, 15, 22, 20]
0.659[15, 17, 18, 20, 15, 16, 22, 19]
0.682[16, 18, 20, 20, 17, 17, 23, 19]
0.704[16, 18, 21, 21, 17, 18, 21, 18]
0.722[17, 19, 22, 21, 20, 20, 25, 22]
0.741[21, 22, 25, 22, 25, 24, 26, 26]
0.764[23, 22, 27, 21, 29, 23, 27, 27]
0.779[23, 23, 27, 20, 29, 24, 28, 29]
0.801[23, 22, 26, 19, 30, 24, 28, 29]
0.824[22, 22, 27, 20, 28, 24, 24, 24]
0.84[19, 20, 22, 21, 24, 21, 24, 19]
0.862[17, 19, 20, 21, 19, 21, 22, 19]
0.884[17, 19, 17, 21, 18, 20, 21, 16]
0.899[16, 18, 18, 20, 17, 20, 20, 15]
0.923[18, 19, 19, 19, 18, 20, 19, 16]
0.944[17, 17, 19, 18, 18, 19, 16, 18]
0.959[18, 18, 19, 17, 18, 19, 18, 18]
0.982[17, 17, 20, 17, 19, 19, 18, 20]
1.004[17, 18, 19, 17, 20, 20, 18, 20]
1.019[18, 17, 18, 18, 20, 21, 19, 21]
1.042[17, 17, 19, 16, 20, 22, 18, 20]
1.064[16, 16, 18, 18, 21, 23, 19, 20]
1.086[18, 18, 19, 19, 21, 22, 20, 19]
1.101[20, 17, 20, 20, 20, 23, 21, 19]
1.125[19, 19, 19, 20, 19, 22, 21, 18]
1.146[19, 18, 18, 20, 19, 20, 21, 19]
1.162[19, 19, 19, 22, 18, 20, 19, 20]
1.184[17, 19, 17, 21, 18, 21, 18, 20]
1.206[16, 20, 18, 20, 18, 19, 17, 20]
1.222[17, 19, 18, 20, 18, 20, 17, 21]
1.244[17, 20, 18, 22, 19, 20, 18, 21]
1.266[18, 21, 19, 20, 18, 18, 17, 21]
1.283[17, 21, 19, 19, 18, 20, 18, 20]
1.313[17, 20, 19, 18, 19, 19, 17, 19]
1.326[17, 19, 20, 19, 17, 21, 20, 20]
1.342[16, 18, 22, 17, 18, 19, 19, 22]
1.364[16, 18, 21, 16, 18, 21, 20, 22]
1.386[16, 18, 21, 17, 17, 20, 22, 22]
1.403[16, 20, 22, 19, 18, 22, 25, 23]
1.424[15, 21, 20, 18, 20, 19, 25, 23]
1.446[16, 22, 18, 17, 18, 20, 25, 21]
1.462[15, 21, 18, 19, 18, 18, 26, 21]
1.484[17, 20, 20, 19, 19, 19, 25, 23]
1.506[18, 20, 18, 19, 17, 17, 22, 22]
1.53[18, 20, 18, 19, 19, 18, 21, 20]
1.544[18, 21, 20, 19, 21, 17, 21, 21]
1.566[20, 21, 19, 18, 21, 19, 21, 19]
1.59[20, 21, 18, 17, 20, 18, 19, 17]
1.612[21, 20, 20, 17, 20, 17, 18, 17]
1.626[21, 22, 20, 19, 16, 18, 18, 18]
1.65[22, 20, 19, 19, 15, 18, 20, 17]
1.673[22, 21, 21, 19, 16, 18, 20, 17]
1.687[22, 21, 22, 20, 17, 18, 20, 18]
1.71[20, 20, 21, 20, 17, 18, 21, 20]
1.732[22, 18, 21, 20, 19, 20, 20, 19]
1.746[20, 19, 21, 20, 19, 21, 18, 20]
1.77[18, 19, 19, 20, 17, 20, 17, 21]
1.793[17, 19, 19, 19, 16, 22, 18, 19]
1.807[17, 21, 21, 20, 17, 22, 19, 18]
1.83[15, 21, 22, 21, 18, 20, 19, 16]
1.852[15, 22, 21, 21, 19, 21, 20, 16]
1.866[15, 23, 22, 22, 21, 21, 20, 15]
1.89[16, 23, 20, 22, 21, 18, 21, 17]
1.912[16, 21, 18, 20, 22, 19, 21, 16]
1.927[19, 22, 17, 20, 22, 18, 21, 17]
1.95[19, 22, 19, 20, 21, 17, 20, 17]
1.972[20, 21, 18, 21, 20, 17, 21, 17]
1.986[21, 21, 18, 21, 20, 18, 20, 16]
2.01[22, 21, 18, 22, 20, 16, 20, 16]
2.032[18, 20, 18, 22, 19, 17, 18, 19]
2.046[19, 19, 15, 22, 20, 17, 19, 18]
2.07[19, 19, 16, 22, 22, 18, 19, 19]
2.092[18, 20, 18, 22, 22, 18, 20, 21]
2.106[17, 20, 19, 22, 21, 19, 21, 21]
2.13[18, 20, 19, 20, 21, 20, 23, 19]
2.152[20, 19, 21, 21, 20, 19, 22, 19]
2.166[19, 19, 22, 20, 19, 20, 22, 19]
2.19[21, 19, 20, 21, 19, 20, 21, 17]
2.212[22, 19, 20, 20, 18, 20, 19, 18]
2.227[22, 19, 21, 19, 21, 19, 17, 19]
2.25[19, 19, 19, 20, 20, 19, 17, 17]
2.273[20, 21, 19, 20, 20, 18, 16, 17]
2.287[18, 19, 19, 22, 19, 19, 16, 18]
2.31[18, 19, 19, 22, 20, 19, 19, 15]
2.333[18, 19, 20, 22, 17, 20, 19, 15]
2.346[19, 20, 20, 21, 18, 20, 19, 15]
2.37[18, 18, 23, 22, 19, 18, 19, 17]
2.392[18, 20, 22, 21, 19, 17, 18, 18]
2.406[19, 19, 23, 21, 18, 17, 18, 17]
2.43[19, 19, 22, 21, 18, 17, 19, 17]
2.453[21, 20, 22, 20, 19, 18, 19, 19]
2.466[20, 20, 20, 18, 19, 21, 19, 19]
2.49[21, 20, 20, 15, 21, 21, 18, 18]
2.512[18, 20, 20, 16, 21, 21, 16, 19]
2.535[20, 20, 22, 17, 21, 20, 15, 21]
2.55[17, 20, 21, 17, 21, 19, 15, 19]
2.572[19, 19, 21, 19, 19, 18, 15, 18]
2.595[21, 19, 22, 19, 19, 17, 14, 19]
2.61[22, 19, 20, 19, 19, 18, 13, 19]
2.633[20, 20, 20, 19, 20, 19, 16, 19]
2.655[21, 20, 21, 20, 21, 18, 17, 18]
2.67[20, 19, 21, 20, 20, 18, 17, 19]
2.692[17, 20, 20, 20, 20, 20, 18, 18]
2.715[16, 20, 21, 19, 19, 19, 20, 18]
2.73[17, 20, 20, 19, 18, 19, 18, 18]
2.752[16, 19, 20, 18, 17, 19, 18, 19]
2.774[15, 21, 20, 19, 17, 19, 18, 19]
2.79[17, 20, 20, 18, 16, 17, 18, 19]
2.812[19, 22, 20, 19, 18, 17, 16, 20]
2.835[17, 21, 20, 21, 18, 17, 16, 19]
2.85[19, 22, 19, 22, 18, 17, 16, 19]
2.872[19, 21, 19, 22, 18, 17, 18, 19]
2.895[18, 21, 17, 22, 21, 17, 19, 18]
2.91[18, 20, 19, 21, 19, 19, 19, 18]
2.94[19, 20, 19, 20, 19, 18, 19, 20]
2.955[18, 20, 20, 19, 20, 18, 18, 19]
2.978[20, 19, 22, 17, 20, 18, 18, 19]
2.993[21, 19, 23, 17, 18, 19, 16, 19]
3.015[21, 18, 21, 19, 19, 18, 16, 20]
3.029[20, 19, 21, 19, 20, 23, 16, 20]
3.06[20, 17, 21, 18, 19, 23, 17, 20]
3.075[19, 18, 19, 19, 19, 23, 17, 20]
3.089[19, 18, 19, 19, 17, 21, 18, 20]
3.112[18, 19, 20, 18, 17, 22, 18, 18]
3.135[18, 19, 19, 18, 17, 18, 19, 17]
3.149[20, 19, 20, 20, 17, 19, 19, 17]
3.172[20, 21, 20, 20, 20, 18, 19, 17]
3.195[20, 19, 21, 20, 23, 19, 21, 17]
3.224[20, 18, 19, 19, 23, 18, 21, 18]
3.233[20, 20, 20, 19, 24, 19, 21, 18]
3.254[19, 21, 19, 19, 23, 19, 20, 20]
3.277[19, 20, 19, 18, 21, 18, 20, 18]
3.293[18, 22, 19, 17, 19, 17, 19, 20]
3.314[18, 23, 20, 18, 19, 17, 19, 19]
3.338[19, 20, 19, 18, 19, 18, 19, 20]
3.353[18, 19, 18, 18, 18, 18, 19, 20]
3.374[20, 20, 18, 18, 19, 19, 20, 21]
3.397[21, 20, 17, 18, 19, 19, 19, 21]
3.413[22, 18, 18, 18, 19, 21, 19, 22]
3.434[22, 20, 20, 19, 19, 23, 20, 21]
3.457[21, 22, 22, 20, 21, 22, 19, 23]
3.474[20, 22, 23, 19, 20, 21, 20, 22]
3.494[19, 22, 23, 19, 20, 23, 20, 22]
3.516[18, 24, 23, 19, 23, 22, 20, 22]
3.533[15, 23, 21, 19, 25, 19, 17, 21]
3.554[17, 21, 19, 19, 23, 19, 19, 19]
3.577[17, 20, 18, 19, 26, 20, 20, 18]
3.593[16, 19, 19, 19, 25, 18, 20, 16]
3.614[16, 19, 18, 21, 23, 16, 21, 16]
3.637[18, 19, 18, 21, 21, 18, 22, 17]
3.653[17, 20, 19, 19, 22, 18, 22, 16]
3.674[16, 19, 19, 19, 20, 18, 20, 17]
3.697[18, 17, 21, 21, 20, 20, 19, 17]
3.713[18, 18, 21, 19, 19, 21, 19, 18]
3.734[18, 19, 21, 18, 19, 19, 19, 17]
3.757[19, 18, 22, 19, 18, 20, 19, 17]
3.773[21, 19, 23, 19, 17, 19, 19, 17]
3.794[21, 21, 21, 19, 18, 20, 18, 19]
3.817[23, 19, 22, 20, 18, 19, 19, 20]
3.833[22, 21, 24, 20, 18, 19, 19, 19]
3.854[22, 21, 24, 19, 19, 18, 17, 20]
3.877[22, 22, 23, 19, 19, 18, 17, 20]
3.893[22, 21, 23, 18, 19, 17, 18, 20]
3.914[20, 23, 22, 17, 18, 17, 18, 21]
3.937[22, 21, 22, 18, 19, 18, 18, 21]
3.951[21, 21, 20, 17, 18, 17, 18, 21]
3.974[22, 21, 21, 18, 19, 19, 19, 20]
3.996[21, 22, 20, 19, 20, 17, 20, 18]
4.012[22, 19, 21, 19, 20, 19, 20, 18]
4.034[20, 19, 21, 19, 19, 17, 20, 17]
4.056[23, 21, 20, 20, 18, 19, 20, 16]
4.071[22, 21, 19, 19, 20, 18, 20, 17]
4.094[23, 20, 18, 18, 21, 19, 19, 17]
4.117[21, 20, 17, 19, 21, 20, 20, 19]
4.131[21, 20, 18, 18, 20, 20, 20, 19]
4.155[18, 18, 19, 18, 20, 19, 19, 21]
4.177[17, 16, 19, 19, 19, 19, 19, 21]
4.191[18, 17, 22, 20, 17, 19, 19, 21]
4.214[17, 18, 22, 20, 17, 18, 17, 20]
4.237[18, 19, 21, 23, 17, 18, 19, 19]
4.259[17, 20, 22, 22, 20, 18, 19, 19]
4.274[19, 21, 22, 20, 19, 20, 20, 21]
4.297[18, 20, 19, 20, 19, 20, 20, 21]
4.312[19, 23, 20, 20, 20, 21, 19, 22]
4.334[18, 21, 22, 17, 20, 20, 18, 22]
4.357[21, 21, 20, 18, 20, 20, 18, 21]
4.372[18, 21, 20, 19, 21, 19, 17, 21]
4.394[18, 22, 20, 18, 21, 18, 16, 22]
4.417[17, 19, 21, 17, 21, 18, 17, 19]
4.44[18, 20, 19, 18, 20, 18, 16, 19]
4.454[18, 20, 20, 19, 22, 17, 16, 19]
4.477[18, 22, 22, 21, 20, 18, 16, 19]
4.499[18, 20, 22, 21, 21, 18, 17, 18]
4.514[20, 22, 21, 23, 20, 18, 16, 18]
4.537[19, 22, 22, 22, 22, 18, 18, 18]
4.559[18, 21, 21, 21, 18, 18, 17, 18]
4.574[20, 21, 20, 18, 19, 20, 18, 16]
4.596[20, 22, 22, 18, 18, 19, 19, 17]
4.619[21, 20, 22, 17, 18, 19, 20, 17]
4.641[23, 20, 21, 18, 19, 19, 21, 18]
4.658[24, 20, 22, 19, 20, 19, 21, 18]
4.679[23, 19, 23, 21, 21, 18, 21, 17]
4.694[24, 18, 21, 21, 20, 19, 21, 16]
4.717[22, 21, 22, 21, 22, 18, 21, 18]
4.739[22, 22, 22, 20, 22, 18, 18, 20]
4.762[21, 21, 22, 20, 23, 20, 18, 19]
4.776[21, 24, 23, 18, 22, 20, 17, 21]
4.799[20, 23, 23, 20, 22, 22, 17, 21]
4.816[20, 22, 22, 19, 21, 22, 17, 20]
4.837[19, 24, 20, 19, 18, 22, 17, 19]
4.859[19, 24, 22, 20, 16, 20, 17, 19]
4.874[18, 21, 19, 20, 18, 22, 18, 17]
4.896[18, 21, 19, 19, 20, 21, 17, 17]
4.919[16, 21, 19, 19, 21, 19, 17, 17]
4.934[17, 20, 19, 18, 23, 20, 18, 16]
4.965[19, 21, 17, 18, 24, 19, 18, 17]
4.979[17, 21, 19, 19, 22, 18, 19, 18]
4.994[19, 20, 20, 20, 20, 16, 20, 18]
5.017[19, 20, 20, 21, 20, 18, 19, 17]
5.039[19, 19, 21, 22, 20, 19, 19, 18]
5.054[18, 18, 22, 22, 19, 19, 19, 18]
5.076[19, 19, 23, 22, 19, 18, 19, 18]
5.099[18, 21, 23, 21, 19, 21, 19, 18]
5.114[19, 23, 22, 19, 19, 19, 18, 19]
5.137[18, 23, 22, 18, 18, 19, 18, 18]
5.159[19, 23, 20, 19, 18, 19, 19, 18]
5.174[19, 23, 22, 20, 17, 20, 18, 19]
5.198[21, 21, 20, 19, 16, 18, 18, 18]
5.219[21, 20, 22, 21, 17, 18, 20, 19]
5.234[23, 18, 22, 22, 16, 17, 18, 20]
5.257[23, 20, 24, 22, 17, 21, 19, 19]
5.279[23, 20, 21, 21, 17, 20, 20, 17]
5.294[23, 21, 23, 21, 19, 20, 20, 17]
5.317[22, 22, 21, 18, 20, 22, 19, 16]
5.339[20, 23, 22, 20, 21, 24, 19, 15]
5.362[20, 22, 21, 19, 21, 21, 19, 16]
5.377[19, 23, 22, 19, 22, 20, 17, 15]
5.399[17, 23, 21, 19, 22, 21, 18, 17]
5.421[18, 21, 21, 18, 22, 19, 19, 18]
5.436[18, 21, 20, 17, 21, 19, 19, 18]
5.459[18, 21, 18, 18, 22, 18, 20, 18]
5.482[18, 20, 18, 18, 22, 19, 21, 19]
5.497[19, 19, 18, 19, 21, 19, 20, 17]
5.519[19, 18, 18, 20, 21, 17, 19, 17]
5.541[19, 18, 17, 20, 19, 18, 20, 18]
5.557[19, 20, 20, 20, 18, 18, 18, 18]
5.588[18, 21, 20, 19, 18, 19, 20, 18]
5.602[18, 22, 20, 18, 19, 19, 21, 19]
5.617[18, 23, 20, 19, 19, 19, 21, 18]
5.64[17, 23, 21, 18, 20, 18, 21, 18]
5.662[16, 22, 19, 18, 20, 18, 21, 18]
5.677[18, 21, 21, 19, 21, 17, 19, 18]
5.699[18, 21, 20, 20, 19, 18, 18, 16]
5.722[19, 21, 20, 20, 20, 18, 18, 17]
5.737[20, 20, 21, 19, 19, 19, 17, 18]
5.759[22, 23, 22, 19, 19, 20, 18, 17]
5.781[22, 22, 21, 20, 20, 20, 19, 17]
5.796[21, 22, 22, 19, 20, 19, 19, 18]
5.827[19, 22, 22, 17, 20, 20, 17, 17]
5.842[20, 23, 21, 18, 20, 18, 19, 15]
5.857[18, 19, 21, 19, 20, 18, 19, 17]
5.879[17, 19, 21, 22, 19, 18, 18, 17]
5.902[17, 19, 21, 21, 18, 19, 19, 18]
5.917[18, 19, 20, 21, 17, 18, 22, 18]
5.939[18, 19, 20, 21, 19, 19, 21, 19]
5.963[18, 19, 19, 22, 20, 20, 20, 18]
5.977[18, 20, 19, 18, 20, 19, 20, 19]
5.999[19, 20, 19, 17, 23, 19, 19, 18]
6.03[18, 20, 21, 17, 24, 19, 19, 19]
6.037[17, 21, 21, 18, 23, 19, 20, 19]
6.059[18, 20, 21, 16, 22, 18, 21, 20]
6.09[17, 19, 21, 15, 20, 18, 21, 21]
6.113[18, 19, 21, 16, 18, 17, 21, 23]
6.119[18, 19, 20, 17, 17, 21, 19, 21]
6.142[19, 19, 22, 17, 18, 20, 18, 21]
6.157[18, 18, 23, 17, 19, 20, 17, 21]
6.179[18, 20, 23, 17, 20, 22, 17, 20]
6.202[18, 21, 22, 17, 20, 22, 16, 20]
6.217[18, 21, 22, 18, 20, 18, 17, 21]
6.239[17, 22, 20, 20, 19, 20, 17, 22]
6.262[17, 23, 19, 21, 17, 21, 17, 20]
6.277[16, 24, 18, 21, 18, 18, 17, 19]
6.299[17, 22, 20, 21, 17, 19, 18, 16]
6.322[16, 24, 20, 21, 19, 20, 17, 16]
6.345[16, 23, 24, 20, 21, 21, 17, 15]
6.359[17, 24, 24, 18, 22, 21, 17, 18]
6.382[19, 23, 25, 19, 21, 23, 17, 17]
6.405[19, 23, 24, 18, 21, 23, 15, 19]
6.419[20, 19, 24, 19, 20, 22, 15, 18]
6.442[22, 19, 21, 18, 19, 19, 14, 18]
6.465[21, 17, 20, 19, 19, 18, 16, 17]
6.479[20, 17, 20, 18, 19, 18, 16, 18]
6.502[19, 18, 21, 19, 22, 17, 17, 17]
6.525[18, 20, 22, 18, 21, 18, 18, 19]
6.539[16, 20, 21, 17, 21, 20, 18, 18]
6.562[18, 19, 21, 18, 21, 20, 17, 19]
6.585[18, 18, 21, 18, 20, 18, 17, 20]
6.599[18, 20, 21, 19, 18, 18, 17, 20]
6.622[20, 19, 20, 18, 19, 18, 18, 18]
6.645[19, 20, 20, 18, 20, 18, 18, 19]
6.659[18, 21, 20, 19, 21, 19, 18, 18]
6.682[18, 22, 21, 20, 21, 18, 18, 18]
6.705[18, 21, 20, 20, 21, 19, 18, 16]
6.719[16, 22, 21, 20, 22, 18, 17, 18]
6.742[19, 21, 20, 21, 21, 17, 18, 18]
6.765[20, 21, 22, 20, 21, 16, 18, 19]
6.779[20, 22, 22, 18, 21, 17, 19, 16]
6.81[21, 22, 21, 19, 22, 16, 20, 18]
6.825[22, 21, 21, 18, 21, 19, 19, 17]
6.839[22, 20, 21, 18, 22, 19, 18, 18]
6.862[20, 19, 21, 19, 22, 19, 18, 17]
6.885[21, 18, 21, 18, 22, 20, 20, 17]
6.899[21, 17, 23, 18, 21, 22, 20, 17]
6.922[20, 20, 24, 20, 20, 20, 21, 17]
6.945[18, 21, 23, 20, 19, 21, 23, 16]
6.959[19, 22, 22, 19, 16, 19, 22, 17]
6.982[18, 23, 21, 20, 18, 18, 20, 18]
7.004[17, 25, 18, 19, 18, 16, 20, 18]
7.019[18, 23, 17, 18, 19, 18, 23, 18]
7.042[20, 23, 18, 19, 18, 18, 21, 19]
7.065[19, 23, 19, 20, 18, 18, 21, 18]
7.079[20, 21, 20, 21, 17, 19, 20, 17]
7.102[20, 20, 20, 21, 18, 20, 21, 18]
7.125[20, 19, 21, 21, 17, 17, 19, 17]
7.139[18, 19, 21, 20, 18, 17, 18, 16]
7.163[19, 19, 21, 20, 20, 18, 18, 16]
7.185[18, 20, 20, 19, 22, 19, 18, 17]
7.199[16, 19, 20, 18, 21, 18, 16, 16]
7.222[17, 20, 18, 21, 21, 19, 16, 16]
7.245[18, 19, 18, 21, 21, 19, 17, 18]
7.267[18, 18, 18, 20, 20, 20, 17, 16]
7.282[19, 18, 18, 19, 17, 20, 16, 17]
7.305[19, 18, 19, 21, 16, 21, 17, 17]
7.327[18, 18, 19, 19, 16, 20, 17, 17]
7.343[19, 19, 22, 20, 16, 20, 16, 16]
7.365[19, 20, 21, 20, 15, 20, 18, 18]
7.388[20, 19, 23, 22, 16, 19, 20, 17]
7.402[20, 19, 22, 20, 17, 19, 19, 17]
7.425[21, 20, 24, 19, 18, 18, 20, 18]
7.447[19, 19, 22, 17, 21, 19, 20, 19]
7.463[18, 18, 24, 17, 21, 19, 18, 19]
7.485[17, 18, 23, 16, 23, 18, 20, 19]
7.507[17, 18, 23, 18, 23, 17, 20, 20]
7.522[17, 18, 21, 18, 22, 17, 19, 19]
7.545[17, 18, 22, 19, 19, 16, 22, 19]
7.568[17, 18, 20, 19, 20, 15, 22, 19]
7.582[18, 18, 19, 19, 18, 17, 20, 19]
7.605[19, 19, 20, 18, 19, 18, 21, 18]
7.628[18, 18, 21, 18, 19, 18, 21, 19]
7.642[17, 19, 21, 18, 19, 18, 18, 19]
7.665[17, 22, 21, 20, 19, 19, 18, 17]
7.695[18, 22, 20, 18, 21, 19, 19, 19]
7.702[17, 22, 19, 17, 19, 19, 19, 19]
7.725[18, 23, 19, 17, 19, 19, 19, 17]
7.747[17, 23, 17, 18, 19, 20, 19, 18]
7.762[18, 22, 18, 15, 18, 21, 17, 18]
7.785[19, 22, 18, 18, 19, 21, 17, 17]
7.807[20, 21, 18, 19, 20, 20, 16, 20]
7.822[20, 22, 18, 20, 22, 20, 17, 19]
7.852[21, 20, 19, 19, 23, 20, 18, 19]
7.868[21, 22, 19, 22, 22, 19, 20, 20]
7.882[21, 20, 19, 23, 22, 19, 20, 22]
7.905[20, 21, 20, 22, 22, 20, 21, 21]
7.935[21, 21, 21, 23, 21, 22, 19, 21]
7.943[20, 21, 23, 23, 21, 21, 18, 21]
7.965[20, 18, 23, 22, 21, 20, 18, 21]
7.987[20, 20, 23, 21, 19, 20, 18, 20]
8.002[19, 20, 22, 20, 18, 20, 17, 19]
8.025[20, 20, 21, 19, 19, 18, 19, 19]
8.055[21, 20, 20, 17, 19, 18, 19, 19]
8.062[20, 22, 18, 17, 19, 21, 18, 17]
8.085[19, 21, 17, 15, 20, 21, 19, 17]
8.107[18, 22, 20, 16, 22, 20, 20, 17]
8.122[20, 22, 20, 19, 23, 21, 20, 17]
8.145[20, 21, 21, 21, 23, 21, 21, 18]
8.167[20, 22, 23, 19, 22, 20, 24, 18]
8.19[20, 21, 25, 20, 21, 21, 23, 18]
8.205[21, 20, 25, 21, 20, 21, 22, 19]
8.227[21, 20, 25, 18, 18, 20, 23, 18]
8.249[20, 21, 26, 18, 19, 20, 22, 18]
8.266[20, 19, 25, 19, 21, 20, 20, 18]
8.287[20, 20, 22, 21, 21, 18, 21, 17]
8.309[19, 20, 21, 22, 21, 19, 21, 16]
8.326[15, 21, 21, 22, 21, 20, 20, 18]
8.354[17, 22, 21, 22, 21, 19, 20, 19]
8.369[16, 22, 20, 22, 21, 19, 20, 18]
8.386[17, 22, 21, 21, 20, 20, 21, 19]
8.407[18, 21, 20, 19, 22, 19, 21, 20]
8.43[19, 18, 20, 19, 22, 20, 20, 18]
8.446[18, 18, 21, 19, 20, 22, 19, 19]
8.467[17, 18, 21, 18, 19, 22, 20, 19]
8.489[17, 20, 22, 18, 20, 21, 19, 19]
8.506[18, 20, 21, 20, 18, 22, 17, 19]
8.528[18, 21, 20, 18, 18, 21, 19, 19]
8.549[19, 20, 18, 17, 19, 20, 19, 18]
8.566[19, 20, 20, 17, 20, 21, 20, 18]
8.587[18, 18, 21, 17, 18, 20, 20, 18]
8.61[18, 21, 21, 15, 17, 20, 21, 17]
8.626[17, 21, 22, 18, 17, 20, 19, 16]
8.647[18, 23, 22, 20, 19, 21, 20, 17]
8.669[18, 23, 22, 19, 18, 20, 17, 16]
8.686[19, 22, 21, 19, 18, 19, 16, 16]
8.707[18, 20, 21, 20, 19, 19, 18, 17]
8.729[18, 20, 21, 17, 22, 19, 19, 18]
8.746[18, 19, 20, 18, 20, 19, 19, 19]
8.767[17, 19, 21, 18, 21, 19, 21, 19]
8.789[17, 19, 20, 20, 22, 20, 22, 20]
8.806[18, 20, 21, 19, 23, 19, 21, 20]
8.827[18, 20, 22, 19, 21, 19, 20, 19]
8.857[17, 21, 21, 17, 22, 18, 20, 19]
8.866[18, 22, 21, 19, 21, 18, 18, 20]
8.887[18, 21, 22, 17, 21, 18, 19, 20]
8.909[17, 22, 23, 17, 20, 20, 19, 19]
8.926[17, 21, 21, 19, 19, 18, 20, 20]
8.947[18, 20, 23, 20, 18, 20, 19, 18]
8.969[18, 19, 21, 20, 18, 20, 20, 18]
8.986[18, 19, 20, 21, 18, 21, 17, 18]
9.008[19, 17, 19, 20, 18, 19, 17, 18]
9.029[18, 19, 21, 19, 19, 21, 17, 18]
9.046[18, 22, 21, 20, 21, 20, 16, 19]
9.068[18, 21, 21, 21, 19, 19, 16, 18]
9.09[18, 23, 21, 20, 19, 20, 17, 19]
9.106[17, 23, 23, 21, 19, 20, 16, 18]
9.127[19, 21, 23, 22, 19, 19, 17, 18]
9.149[19, 18, 23, 22, 17, 18, 17, 17]
9.172[18, 19, 22, 20, 20, 18, 17, 18]
9.188[19, 18, 22, 20, 20, 17, 17, 18]
9.209[19, 18, 21, 20, 22, 15, 19, 18]
9.232[20, 18, 21, 18, 22, 15, 17, 19]
9.247[21, 17, 20, 20, 23, 17, 17, 19]
9.277[22, 19, 21, 20, 22, 18, 16, 20]
9.292[20, 19, 21, 18, 24, 17, 17, 20]
9.307[21, 19, 20, 21, 21, 20, 15, 21]
9.329[20, 20, 19, 20, 20, 20, 16, 20]
9.36[20, 20, 20, 20, 19, 19, 18, 21]
9.367[18, 20, 18, 21, 19, 20, 18, 20]
9.389[19, 19, 18, 22, 19, 20, 18, 22]
9.412[18, 18, 20, 21, 20, 18, 19, 22]
9.427[19, 20, 20, 22, 20, 17, 19, 22]
9.449[19, 21, 20, 20, 20, 18, 17, 21]
9.472[21, 19, 20, 19, 20, 17, 19, 20]
9.487[20, 20, 20, 19, 20, 19, 20, 17]
9.509[20, 21, 20, 18, 19, 18, 19, 16]
9.532[18, 20, 20, 18, 18, 18, 20, 16]
9.546[19, 20, 21, 19, 19, 19, 20, 15]
9.569[16, 21, 22, 20, 19, 18, 17, 16]
9.592[17, 21, 23, 21, 19, 19, 19, 19]
9.607[18, 20, 23, 23, 20, 20, 19, 19]
9.629[19, 21, 24, 22, 20, 21, 18, 18]
9.652[19, 22, 24, 23, 19, 21, 19, 18]
9.667[21, 21, 23, 23, 20, 23, 20, 18]
9.69[20, 22, 23, 22, 20, 22, 18, 16]
9.712[19, 22, 21, 22, 19, 21, 19, 16]
9.728[19, 21, 20, 23, 19, 23, 18, 16]
9.749[20, 21, 20, 22, 19, 22, 19, 19]
9.78[20, 22, 20, 21, 16, 21, 20, 19]
9.787[20, 20, 18, 21, 17, 20, 18, 22]
9.809[21, 21, 21, 19, 17, 20, 18, 22]
9.832[20, 19, 22, 18, 19, 17, 21, 23]
9.846[20, 18, 23, 21, 18, 16, 21, 22]
9.869[20, 19, 23, 21, 18, 16, 20, 22]
9.9[19, 19, 26, 20, 18, 17, 21, 19]
9.914[17, 19, 24, 21, 17, 19, 21, 17]
9.929[18, 20, 23, 21, 16, 19, 19, 17]
9.952[17, 21, 23, 18, 16, 19, 18, 16]
9.967[16, 20, 23, 20, 17, 20, 18, 17]
9.989[17, 20, 22, 21, 17, 20, 18, 17]
10.012[19, 21, 21, 21, 17, 20, 20, 16]
10.026[21, 22, 21, 21, 18, 20, 20, 14]
10.049[20, 19, 23, 22, 18, 21, 19, 15]
10.072[21, 20, 23, 20, 18, 21, 21, 13]
10.094[20, 21, 22, 21, 17, 20, 20, 15]
10.109[18, 22, 66, 24, 21, 21, 20, 15]
10.132[17, 24, 110, 26, 21, 19, 21, 16]
10.154[19, 28, 185, 49, 22, 27, 28, 17]
10.171[20, 44, 235, 72, 28, 40, 33, 38]
10.191[30, 105, 382, 147, 59, 50, 40, 40]
10.214[33, 117, 450, 190, 66, 54, 42, 44]
10.229[43, 151, 476, 226, 79, 66, 62, 46]
10.252[53, 185, 481, 258, 118, 74, 62, 49]
10.274[64, 219, 491, 332, 128, 85, 64, 41]
10.291[77, 258, 534, 500, 143, 88, 66, 43]
10.312[84, 280, 557, 545, 160, 108, 80, 43]
10.334[86, 298, 574, 640, 239, 150, 78, 42]
10.349[84, 286, 570, 660, 257, 159, 83, 43]
10.372[82, 270, 572, 640, 257, 153, 84, 42]
10.394[68, 225, 470, 523, 247, 159, 90, 38]
10.409[62, 218, 453, 483, 245, 149, 81, 35]
10.432[55, 179, 415, 389, 179, 104, 73, 35]
10.454[52, 176, 414, 356, 142, 106, 76, 33]
10.469[49, 172, 408, 356, 143, 117, 84, 33]
10.492[48, 170, 496, 387, 153, 108, 75, 36]
10.514[45, 145, 450, 375, 166, 116, 77, 36]
10.529[43, 139, 469, 327, 164, 131, 84, 37]
10.552[42, 133, 460, 308, 160, 130, 84, 34]
10.574[38, 136, 486, 318, 160, 118, 77, 31]
10.589[44, 147, 441, 279, 163, 117, 80, 31]
10.612[44, 149, 434, 274, 138, 109, 78, 29]
10.634[46, 159, 433, 289, 138, 89, 66, 28]
10.649[50, 168, 431, 289, 141, 66, 56, 30]
10.672[49, 167, 392, 271, 135, 67, 50, 31]
10.702[44, 149, 318, 269, 135, 69, 50, 29]
10.709[42, 138, 310, 268, 138, 64, 46, 29]
10.732[39, 121, 269, 236, 127, 62, 46, 29]
10.754[35, 108, 276, 269, 113, 54, 43, 27]
10.77[35, 97, 290, 288, 114, 53, 44, 23]
10.792[38, 112, 300, 294, 101, 46, 38, 24]
10.822[38, 113, 303, 298, 96, 51, 40, 28]
10.83[40, 119, 334, 318, 98, 52, 41, 29]
10.852[42, 121, 327, 308, 104, 54, 42, 30]
10.874[41, 116, 298, 280, 100, 58, 39, 31]
10.889[37, 106, 281, 273, 103, 60, 37, 31]
10.912[39, 107, 277, 271, 105, 53, 37, 31]
10.934[38, 101, 274, 255, 106, 55, 38, 28]
10.949[38, 98, 280, 231, 105, 55, 37, 28]
10.972[38, 108, 289, 234, 103, 50, 36, 29]
10.994[39, 101, 317, 237, 96, 48, 36, 28]
11.009[39, 110, 325, 231, 111, 53, 31, 27]
11.031[37, 105, 314, 242, 100, 49, 27, 26]
11.054[36, 104, 306, 247, 94, 48, 28, 27]
11.077[35, 92, 304, 239, 95, 49, 31, 28]
11.092[37, 88, 287, 230, 92, 48, 29, 28]
11.114[35, 75, 305, 246, 62, 39, 30, 27]
11.137[35, 83, 274, 228, 67, 38, 30, 26]
11.152[36, 90, 267, 232, 67, 37, 30, 26]
11.174[34, 90, 251, 255, 70, 35, 28, 21]
11.198[30, 90, 235, 229, 72, 40, 29, 23]
11.212[30, 90, 202, 232, 74, 43, 28, 23]
11.235[31, 87, 238, 249, 76, 43, 28, 23]
11.258[31, 77, 236, 254, 79, 44, 26, 23]
11.272[36, 102, 245, 282, 97, 48, 29, 26]
11.294[34, 101, 239, 286, 97, 47, 29, 25]
11.318[36, 100, 219, 285, 99, 45, 30, 25]
11.331[35, 96, 195, 268, 97, 47, 30, 24]
11.354[39, 120, 198, 297, 104, 45, 31, 24]
11.377[37, 102, 180, 244, 83, 39, 29, 21]
11.392[39, 104, 175, 277, 81, 37, 28, 21]
11.415[38, 107, 273, 286, 79, 36, 26, 20]
11.437[40, 109, 297, 286, 78, 33, 26, 23]
11.452[36, 85, 308, 279, 66, 33, 27, 23]
11.474[32, 78, 316, 283, 70, 36, 25, 23]
11.497[32, 76, 321, 246, 78, 43, 28, 24]
11.52[33, 67, 279, 229, 78, 44, 30, 25]
11.535[32, 78, 276, 234, 82, 48, 32, 22]
11.558[36, 85, 257, 210, 88, 49, 30, 23]
11.572[37, 88, 260, 203, 88, 46, 30, 22]
11.595[35, 84, 257, 226, 87, 44, 28, 20]
11.617[34, 86, 306, 226, 88, 43, 26, 20]
11.632[33, 80, 296, 266, 94, 47, 26, 23]
11.655[28, 68, 303, 254, 93, 48, 26, 23]
11.678[29, 73, 296, 263, 95, 49, 29, 24]
11.692[31, 77, 333, 246, 91, 49, 31, 26]
11.715[32, 77, 286, 239, 91, 49, 32, 26]
11.737[33, 82, 307, 252, 84, 43, 30, 28]
11.752[32, 82, 302, 248, 72, 40, 31, 27]
11.775[33, 78, 302, 257, 71, 39, 30, 26]
11.797[33, 86, 261, 268, 70, 41, 31, 26]
11.812[34, 88, 238, 252, 64, 42, 30, 26]
11.835[33, 85, 251, 278, 66, 42, 30, 23]
11.858[36, 93, 344, 309, 78, 47, 32, 25]
11.872[37, 95, 347, 294, 76, 47, 30, 25]
11.895[38, 94, 363, 290, 75, 43, 27, 24]
11.917[39, 108, 364, 298, 79, 42, 27, 24]
11.94[38, 102, 339, 220, 81, 44, 31, 24]
11.955[35, 93, 248, 225, 77, 43, 27, 23]
11.977[32, 93, 255, 226, 75, 42, 26, 23]
12.0[28, 86, 254, 234, 73, 41, 26, 24]
12.015[27, 73, 234, 233, 70, 40, 27, 25]
12.038[28, 73, 211, 264, 66, 39, 25, 24]
12.06[31, 88, 228, 235, 65, 37, 26, 25]
12.075[32, 82, 234, 239, 67, 38, 29, 27]
12.098[35, 86, 212, 230, 72, 39, 29, 25]
12.12[32, 81, 238, 231, 75, 40, 29, 24]
12.135[32, 85, 249, 259, 72, 37, 28, 25]
12.158[31, 76, 236, 259, 74, 40, 30, 26]
12.18[30, 78, 243, 263, 72, 41, 28, 24]
12.195[27, 72, 259, 272, 73, 42, 26, 25]
12.217[32, 76, 253, 301, 71, 44, 28, 27]
12.24[35, 80, 258, 248, 79, 48, 28, 28]
12.255[35, 85, 271, 240, 79, 51, 27, 28]
12.277[36, 86, 258, 240, 86, 52, 27, 29]
12.3[39, 89, 238, 218, 81, 51, 29, 31]
12.315[37, 83, 234, 195, 82, 52, 30, 28]
12.337[34, 73, 210, 275, 102, 55, 29, 27]
12.36[34, 72, 265, 320, 104, 54, 32, 26]
12.375[36, 78, 258, 317, 105, 56, 33, 25]
12.398[33, 78, 280, 342, 115, 57, 33, 23]
12.42[32, 80, 303, 345, 115, 57, 31, 27]
12.435[32, 83, 322, 288, 91, 52, 34, 28]
12.458[30, 80, 271, 289, 93, 50, 34, 27]
12.48[28, 70, 264, 295, 89, 46, 32, 28]
12.494[29, 69, 250, 269, 75, 47, 31, 28]
12.518[29, 78, 251, 245, 72, 50, 33, 26]
12.54[32, 90, 324, 296, 89, 54, 32, 26]
12.554[30, 92, 361, 289, 92, 57, 32, 28]
12.578[32, 104, 368, 300, 99, 60, 35, 28]
12.6[34, 110, 376, 329, 111, 65, 35, 31]
12.614[35, 103, 374, 368, 113, 62, 33, 30]
12.645[32, 92, 309, 328, 105, 58, 30, 29]
12.66[34, 92, 268, 314, 121, 62, 31, 29]
12.674[32, 83, 268, 312, 123, 67, 32, 31]
12.697[28, 76, 298, 285, 113, 61, 35, 27]
12.72[26, 74, 292, 257, 115, 60, 36, 27]
12.734[28, 74, 284, 265, 119, 63, 40, 28]
12.758[28, 81, 279, 275, 97, 55, 37, 26]
12.78[30, 77, 278, 291, 104, 53, 34, 28]
12.794[32, 82, 251, 294, 106, 59, 34, 29]
12.818[33, 88, 246, 297, 104, 58, 33, 27]
12.84[32, 94, 312, 306, 119, 59, 32, 26]
12.855[33, 92, 312, 334, 125, 61, 32, 26]
12.877[32, 98, 325, 315, 115, 57, 32, 23]
12.9[33, 95, 344, 333, 124, 55, 30, 22]
12.914[32, 97, 363, 362, 133, 55, 29, 24]
12.937[34, 98, 310, 361, 121, 56, 29, 24]
12.96[35, 96, 318, 330, 116, 60, 33, 25]
12.982[37, 100, 383, 347, 117, 62, 33, 24]
12.998[39, 103, 366, 345, 113, 64, 36, 26]
13.02[41, 109, 419, 400, 141, 67, 42, 28]
13.05[41, 109, 427, 393, 143, 62, 40, 28]
13.058[43, 127, 455, 383, 141, 57, 38, 28]
13.08[41, 121, 408, 370, 145, 59, 38, 30]
13.102[37, 118, 408, 367, 140, 53, 35, 29]
13.117[35, 114, 326, 303, 115, 48, 29, 27]
13.14[42, 126, 317, 315, 136, 66, 36, 31]
13.162[42, 108, 276, 347, 145, 76, 43, 35]
13.178[43, 111, 299, 474, 171, 77, 44, 34]
13.2[45, 112, 296, 475, 187, 80, 44, 35]
13.222[47, 115, 297, 455, 186, 83, 46, 35]
13.239[45, 109, 328, 456, 169, 71, 44, 34]
13.259[44, 118, 360, 429, 171, 63, 38, 31]
13.282[43, 119, 321, 391, 168, 60, 37, 31]
13.298[43, 116, 306, 431, 177, 68, 41, 33]
13.327[42, 116, 310, 451, 180, 66, 40, 35]
13.342[38, 110, 284, 498, 198, 68, 37, 33]
13.358[37, 103, 286, 507, 191, 67, 36, 31]
13.379[37, 101, 289, 588, 220, 77, 38, 31]
13.402[42, 119, 313, 582, 212, 69, 33, 28]
13.418[44, 129, 306, 570, 206, 71, 35, 29]
13.439[45, 124, 294, 525, 187, 68, 37, 29]
13.462[42, 114, 230, 524, 199, 70, 40, 32]
13.485[44, 118, 254, 388, 148, 60, 41, 31]
13.499[39, 113, 295, 345, 138, 60, 43, 30]
13.522[33, 94, 298, 351, 135, 58, 42, 26]
13.538[33, 94, 301, 347, 137, 58, 41, 27]
13.559[36, 97, 322, 415, 124, 58, 40, 24]
13.582[34, 96, 343, 399, 120, 56, 39, 23]
13.598[37, 93, 291, 413, 121, 55, 38, 27]
13.62[44, 122, 282, 413, 138, 66, 41, 29]
13.642[44, 128, 322, 483, 153, 73, 41, 29]
13.658[43, 131, 314, 431, 151, 73, 40, 29]
13.679[47, 134, 282, 428, 150, 72, 37, 28]
13.702[44, 141, 311, 459, 147, 70, 38, 27]
13.718[37, 116, 334, 560, 151, 64, 34, 25]
13.739[35, 110, 301, 539, 158, 56, 31, 24]
13.762[35, 112, 297, 565, 162, 57, 31, 25]
13.778[32, 104, 297, 548, 161, 62, 38, 29]
13.799[31, 87, 259, 543, 176, 65, 76, 27]
13.822[38, 105, 283, 477, 174, 72, 321, 80]
13.838[43, 113, 271, 476, 171, 80, 347, 90]
13.859[42, 113, 284, 467, 170, 79, 349, 92]
13.882[42, 127, 304, 474, 165, 76, 354, 91]
13.913[46, 137, 365, 486, 147, 73, 354, 92]
13.919[45, 141, 343, 472, 146, 69, 214, 66]
13.942[40, 132, 349, 432, 124, 63, 190, 55]
13.964[43, 135, 344, 451, 121, 67, 191, 55]
13.98[46, 129, 354, 477, 133, 68, 189, 57]
14.002[43, 118, 323, 491, 145, 68, 180, 58]
14.024[39, 99, 332, 476, 137, 71, 135, 44]
14.039[43, 114, 373, 523, 154, 73, 105, 40]
14.062[43, 123, 373, 484, 150, 65, 118, 44]
14.084[41, 113, 339, 464, 146, 65, 108, 40]
14.101[40, 111, 323, 441, 163, 75, 106, 37]
14.122[40, 117, 394, 498, 174, 70, 89, 38]
14.144[39, 112, 374, 469, 172, 66, 97, 38]
14.161[35, 110, 371, 500, 181, 67, 68, 31]
14.182[34, 109, 386, 496, 179, 67, 64, 32]
14.204[34, 108, 405, 458, 149, 53, 65, 32]
14.219[37, 114, 358, 488, 149, 54, 67, 31]
14.242[35, 110, 379, 476, 135, 51, 65, 30]
14.264[35, 93, 381, 429, 124, 49, 64, 29]
14.287[36, 100, 404, 442, 129, 47, 66, 27]
14.302[38, 102, 424, 453, 133, 52, 72, 28]
14.324[35, 86, 381, 355, 126, 54, 70, 29]
14.347[38, 113, 356, 373, 143, 62, 63, 29]
14.362[39, 118, 417, 400, 145, 65, 63, 29]
14.385[38, 116, 387, 388, 144, 66, 67, 29]
14.399[41, 118, 356, 441, 159, 74, 68, 34]
14.422[41, 118, 357, 436, 147, 69, 67, 33]
14.444[38, 94, 341, 417, 132, 65, 70, 36]
14.459[35, 87, 263, 465, 145, 64, 73, 35]
14.482[38, 96, 295, 476, 151, 72, 66, 35]
14.504[34, 91, 271, 450, 134, 64, 57, 33]
14.519[38, 96, 307, 453, 151, 70, 71, 33]
14.542[37, 93, 337, 545, 173, 75, 68, 29]
14.564[38, 95, 366, 530, 179, 80, 65, 29]
14.579[37, 94, 395, 521, 172, 78, 65, 31]
14.602[37, 95, 415, 487, 172, 78, 64, 29]
14.625[37, 116, 411, 482, 159, 77, 64, 32]
14.639[39, 124, 392, 361, 137, 76, 65, 37]
14.662[42, 126, 355, 308, 109, 72, 64, 36]
14.692[44, 134, 305, 303, 105, 71, 67, 35]
14.699[44, 136, 334, 333, 112, 73, 68, 33]
14.722[42, 123, 317, 343, 105, 67, 56, 31]
14.744[42, 115, 323, 351, 103, 64, 57, 28]
14.759[43, 113, 335, 342, 108, 68, 59, 29]
14.782[42, 98, 349, 340, 128, 68, 57, 28]
14.804[44, 102, 299, 341, 126, 62, 69, 32]
14.827[43, 97, 291, 341, 137, 62, 67, 32]
14.842[41, 93, 292, 329, 134, 59, 62, 30]
14.864[38, 94, 288, 364, 142, 67, 60, 30]
14.887[37, 96, 236, 350, 123, 62, 60, 32]
14.909[37, 98, 264, 311, 119, 66, 44, 29]
14.924[36, 93, 279, 325, 106, 67, 39, 28]
14.947[39, 103, 291, 366, 108, 69, 39, 29]
14.962[38, 103, 284, 349, 115, 57, 33, 26]
14.984[58, 104, 307, 335, 134, 63, 34, 25]
15.007[61, 103, 348, 342, 137, 66, 45, 29]
15.022[62, 104, 374, 407, 145, 65, 45, 30]
15.044[60, 98, 354, 408, 149, 60, 43, 28]
15.067[63, 105, 353, 403, 159, 74, 53, 33]
15.082[47, 101, 333, 414, 144, 70, 53, 32]
15.104[63, 88, 286, 443, 142, 65, 45, 33]
15.127[65, 89, 224, 384, 159, 73, 45, 32]
15.142[67, 84, 211, 350, 151, 74, 45, 33]
15.164[68, 92, 239, 382, 137, 63, 39, 32]
15.187[66, 94, 261, 381, 134, 60, 38, 34]
15.21[47, 106, 255, 381, 140, 63, 37, 30]
15.225[57, 105, 259, 352, 120, 53, 36, 31]
15.247[60, 108, 271, 358, 124, 55, 36, 33]
15.262[57, 92, 279, 322, 111, 55, 31, 31]
15.284[59, 100, 283, 338, 118, 56, 35, 31]
15.307[58, 88, 277, 320, 108, 52, 36, 31]
15.322[47, 97, 298, 329, 100, 52, 38, 30]
15.344[43, 101, 294, 355, 99, 51, 38, 27]
15.367[66, 108, 270, 363, 110, 52, 41, 30]
15.382[67, 114, 270, 357, 105, 53, 35, 29]
15.405[67, 115, 244, 357, 104, 53, 34, 29]
15.427[66, 110, 226, 348, 108, 54, 33, 28]
15.442[68, 110, 214, 328, 112, 59, 38, 32]
15.465[47, 107, 230, 293, 100, 55, 35, 31]
15.487[67, 89, 252, 275, 95, 52, 35, 33]
15.502[68, 86, 260, 241, 104, 55, 35, 32]
15.533[69, 83, 258, 216, 102, 59, 37, 32]
15.555[69, 81, 260, 182, 95, 55, 33, 29]
15.562[67, 69, 237, 249, 108, 57, 35, 28]
15.584[43, 72, 209, 260, 113, 55, 35, 24]
15.607[62, 70, 295, 282, 106, 55, 36, 29]
15.622[62, 87, 301, 279, 104, 49, 34, 28]
15.644[62, 92, 319, 298, 106, 46, 33, 29]
15.667[62, 105, 360, 267, 98, 41, 33, 31]
15.682[61, 100, 374, 252, 89, 43, 34, 31]
15.705[43, 112, 381, 286, 95, 43, 31, 28]
15.727[70, 118, 412, 414, 137, 53, 32, 34]
15.743[72, 130, 404, 410, 139, 54, 33, 34]
15.764[73, 121, 366, 410, 145, 54, 32, 31]
15.787[73, 123, 369, 420, 152, 56, 31, 31]
15.81[85, 113, 301, 439, 148, 52, 31, 36]
15.825[66, 110, 254, 366, 120, 44, 32, 32]
15.847[62, 84, 248, 387, 121, 44, 31, 33]
15.87[61, 79, 263, 390, 114, 46, 30, 32]
15.884[60, 83, 243, 403, 133, 50, 31, 33]
15.907[38, 94, 237, 406, 139, 52, 31, 27]
15.93[34, 90, 256, 363, 127, 51, 30, 29]
15.945[58, 91, 290, 339, 123, 51, 28, 30]
15.967[59, 94, 294, 354, 121, 52, 30, 30]
15.99[59, 93, 287, 373, 119, 52, 31, 28]
16.004[64, 88, 299, 369, 135, 57, 31, 29]
16.027[79, 102, 336, 397, 137, 58, 33, 32]
16.05[65, 114, 363, 412, 137, 56, 33, 30]
16.064[67, 115, 365, 393, 137, 56, 33, 32]
16.087[67, 114, 379, 376, 116, 48, 30, 32]
16.11[84, 115, 369, 319, 86, 45, 30, 37]
16.124[71, 91, 345, 280, 88, 48, 27, 34]
16.147[72, 88, 283, 268, 105, 53, 28, 34]
16.17[72, 90, 308, 312, 112, 55, 28, 34]
16.193[72, 92, 281, 289, 112, 55, 31, 34]
16.207[43, 89, 277, 327, 125, 58, 31, 29]
16.23[42, 91, 259, 351, 132, 55, 31, 25]
16.245[56, 83, 265, 374, 134, 56, 33, 31]
16.267[56, 84, 237, 376, 140, 60, 34, 34]
16.29[57, 88, 230, 377, 142, 64, 33, 34]
16.305[58, 85, 288, 369, 133, 59, 32, 34]
16.335[58, 89, 310, 348, 128, 61, 32, 33]
16.35[47, 90, 321, 344, 130, 63, 33, 30]
16.365[65, 95, 317, 299, 118, 58, 32, 33]
16.387[64, 95, 319, 309, 113, 56, 33, 34]
16.41[64, 94, 287, 297, 109, 55, 34, 32]
16.424[63, 88, 277, 302, 102, 51, 33, 33]
16.447[59, 88, 277, 275, 89, 48, 31, 31]
16.47[50, 73, 300, 270, 95, 49, 29, 27]
16.484[57, 67, 300, 266, 107, 48, 29, 27]
16.507[61, 71, 295, 278, 117, 47, 27, 27]
16.53[65, 91, 274, 376, 147, 57, 31, 30]
16.545[67, 109, 281, 372, 138, 53, 30, 31]
16.567[57, 112, 283, 378, 132, 49, 31, 29]
16.59[48, 110, 296, 381, 132, 51, 31, 30]
16.604[46, 123, 309, 393, 137, 58, 32, 29]
16.627[40, 109, 298, 304, 117, 49, 30, 26]
16.65[38, 100, 357, 339, 132, 58, 35, 29]
16.664[37, 99, 331, 341, 133, 56, 33, 27]
16.687[58, 98, 328, 360, 135, 57, 33, 29]
16.718[57, 81, 323, 388, 142, 54, 33, 28]
16.733[60, 86, 381, 456, 152, 61, 35, 30]
16.747[59, 69, 319, 421, 145, 54, 30, 26]
16.77[62, 79, 322, 470, 154, 60, 36, 26]
16.793[44, 89, 319, 444, 146, 57, 36, 24]
16.807[44, 96, 323, 390, 131, 55, 36, 26]
16.83[42, 102, 343, 328, 114, 49, 35, 25]
16.852[61, 105, 344, 325, 115, 50, 37, 28]
16.867[62, 100, 350, 222, 110, 54, 35, 29]
16.89[65, 108, 345, 224, 114, 56, 37, 30]
16.913[64, 99, 332, 225, 125, 60, 39, 29]
16.927[62, 90, 274, 237, 133, 65, 40, 29]
16.95[41, 88, 264, 241, 129, 65, 39, 26]
16.972[59, 91, 241, 260, 124, 64, 39, 34]
16.988[57, 73, 265, 302, 121, 62, 38, 33]
17.01[59, 85, 255, 292, 115, 67, 36, 35]
17.033[61, 82, 281, 283, 111, 63, 33, 35]
17.047[60, 81, 278, 299, 115, 62, 31, 34]
17.07[40, 77, 308, 317, 118, 59, 29, 27]
17.093[38, 75, 289, 302, 117, 59, 29, 27]
17.108[39, 75, 288, 365, 117, 51, 30, 25]
17.13[36, 77, 226, 370, 122, 50, 30, 24]
17.16[60, 79, 335, 413, 133, 52, 30, 29]
17.167[61, 79, 312, 391, 130, 52, 30, 28]
17.19[62, 80, 307, 413, 142, 55, 30, 30]
17.213[59, 66, 306, 361, 137, 55, 29, 29]
17.227[60, 64, 311, 352, 124, 53, 28, 31]
17.25[39, 66, 200, 282, 105, 52, 29, 27]
17.273[35, 65, 349, 337, 119, 53, 27, 27]
17.287[34, 79, 361, 341, 125, 55, 27, 26]
17.31[33, 85, 360, 335, 127, 53, 26, 24]
17.333[33, 92, 364, 384, 132, 53, 28, 23]
17.347[32, 93, 354, 403, 144, 52, 27, 23]
17.37[30, 89, 245, 420, 134, 47, 28, 21]
17.393[34, 89, 266, 384, 115, 43, 28, 24]
17.407[34, 87, 327, 406, 125, 47, 28, 24]
17.43[32, 82, 331, 340, 118, 48, 27, 23]
17.453[30, 81, 333, 321, 115, 53, 28, 22]
17.467[32, 85, 396, 247, 104, 52, 27, 23]
17.49[25, 71, 386, 280, 106, 51, 27, 21]
17.513[26, 73, 352, 265, 93, 47, 28, 21]
17.527[26, 65, 345, 337, 110, 52, 29, 24]
17.55[28, 61, 357, 352, 104, 49, 30, 24]
17.58[26, 56, 277, 338, 108, 51, 31, 24]
17.587[27, 58, 259, 308, 107, 53, 32, 25]
17.61[29, 67, 242, 328, 108, 51, 33, 24]
17.632[32, 91, 283, 262, 120, 50, 31, 24]
17.647[29, 90, 280, 259, 116, 46, 30, 23]
17.67[30, 92, 261, 260, 113, 43, 29, 23]
17.693[36, 96, 298, 267, 115, 45, 29, 25]
17.715[33, 89, 320, 270, 127, 55, 31, 27]
17.73[32, 72, 318, 280, 115, 54, 34, 25]
17.753[34, 76, 329, 318, 119, 56, 35, 26]
17.775[35, 78, 324, 341, 125, 58, 37, 26]
17.79[33, 81, 283, 334, 123, 57, 35, 25]
17.813[34, 79, 256, 299, 107, 51, 34, 25]
17.835[33, 80, 197, 318, 96, 51, 32, 25]
17.85[33, 82, 228, 374, 105, 53, 32, 25]
17.873[35, 82, 252, 379, 103, 52, 31, 26]
17.895[30, 77, 310, 377, 106, 52, 32, 24]
17.91[30, 74, 312, 373, 102, 53, 33, 22]
17.932[31, 71, 333, 347, 103, 49, 32, 22]
17.955[28, 68, 310, 228, 92, 49, 34, 20]
17.972[25, 65, 291, 196, 94, 56, 33, 21]
17.993[26, 63, 232, 201, 88, 52, 34, 22]
18.015[31, 69, 239, 216, 88, 54, 34, 25]
18.031[29, 64, 257, 219, 81, 55, 37, 26]
18.053[29, 62, 269, 226, 83, 53, 35, 28]
18.075[30, 63, 269, 215, 84, 48, 35, 26]
18.09[29, 58, 277, 205, 86, 48, 33, 26]
18.113[25, 53, 271, 217, 92, 46, 31, 23]
18.135[27, 51, 228, 234, 92, 43, 30, 24]
18.149[32, 57, 252, 235, 96, 45, 30, 24]
18.173[32, 63, 297, 278, 90, 44, 31, 24]
18.195[35, 71, 359, 314, 97, 48, 33, 28]
18.21[34, 73, 364, 331, 104, 51, 34, 28]
18.232[34, 79, 395, 318, 107, 52, 33, 27]
18.255[33, 88, 477, 323, 105, 51, 34, 27]
18.277[31, 83, 455, 308, 102, 49, 34, 28]
18.293[30, 82, 409, 339, 137, 56, 32, 25]
18.314[34, 80, 405, 344, 136, 54, 32, 24]
18.337[32, 76, 382, 343, 133, 53, 32, 28]
18.353[31, 61, 270, 355, 134, 55, 31, 28]
18.374[33, 65, 270, 365, 157, 57, 31, 28]
18.397[33, 58, 266, 354, 137, 51, 31, 30]
18.413[32, 61, 309, 317, 129, 48, 29, 31]
18.434[34, 74, 303, 313, 137, 49, 33, 28]
18.457[32, 72, 262, 295, 134, 46, 35, 28]
18.473[32, 73, 264, 274, 118, 47, 36, 29]
18.494[32, 77, 254, 254, 119, 48, 38, 30]
18.517[29, 77, 198, 283, 119, 47, 37, 28]
18.533[28, 63, 288, 288, 113, 46, 33, 30]
18.554[29, 64, 295, 301, 114, 45, 29, 29]
18.571[28, 59, 286, 292, 104, 44, 28, 29]
18.593[25, 53, 321, 254, 94, 44, 26, 27]
18.615[26, 53, 341, 289, 98, 52, 28, 30]
18.637[26, 54, 299, 330, 116, 57, 31, 28]
18.653[25, 54, 277, 312, 119, 61, 33, 28]
18.675[27, 62, 312, 316, 121, 59, 32, 27]
18.697[25, 64, 290, 342, 116, 63, 32, 27]
18.713[26, 64, 319, 293, 112, 61, 33, 27]
18.735[25, 61, 325, 274, 94, 57, 30, 27]
18.757[26, 61, 330, 267, 100, 59, 28, 25]
18.774[26, 51, 295, 269, 100, 60, 31, 27]
18.796[27, 49, 304, 227, 99, 51, 31, 26]
18.817[28, 50, 272, 226, 101, 48, 29, 25]
18.832[30, 52, 231, 222, 104, 51, 31, 24]
18.854[30, 60, 228, 233, 91, 43, 32, 25]
18.877[27, 60, 279, 252, 94, 44, 31, 22]
18.892[29, 62, 251, 273, 104, 47, 32, 21]
18.914[26, 61, 235, 290, 105, 47, 32, 23]
18.937[30, 64, 286, 285, 99, 47, 30, 24]
18.952[30, 53, 285, 282, 108, 50, 28, 25]
18.974[30, 52, 256, 271, 103, 47, 27, 25]
18.997[30, 51, 281, 251, 93, 44, 26, 25]
19.012[30, 51, 281, 221, 86, 41, 25, 23]
19.034[25, 47, 235, 211, 89, 36, 25, 19]
19.057[25, 49, 273, 276, 86, 33, 27, 21]
19.073[24, 49, 274, 361, 117, 37, 29, 22]
19.094[23, 47, 251, 371, 123, 36, 28, 24]
19.117[23, 48, 249, 390, 125, 38, 29, 24]
19.132[25, 52, 261, 402, 127, 42, 29, 26]
19.154[27, 71, 300, 384, 129, 45, 29, 25]
19.177[30, 74, 298, 296, 104, 44, 27, 27]
19.199[33, 80, 305, 305, 99, 42, 28, 26]
19.214[33, 80, 321, 311, 102, 45, 28, 27]
19.237[32, 83, 374, 348, 99, 45, 28, 26]
19.252[34, 76, 316, 343, 93, 46, 29, 26]
19.274[32, 71, 302, 362, 100, 50, 30, 23]
19.305[30, 66, 320, 350, 97, 50, 29, 24]
19.312[36, 82, 340, 341, 90, 47, 28, 24]
19.334[36, 77, 276, 325, 102, 45, 27, 25]
19.357[33, 73, 332, 294, 97, 40, 25, 26]
19.372[33, 77, 338, 285, 93, 37, 25, 26]
19.394[32, 77, 314, 293, 93, 40, 27, 26]
19.417[27, 58, 290, 281, 97, 40, 27, 26]
19.439[26, 59, 298, 243, 95, 44, 29, 25]
19.454[30, 54, 257, 250, 106, 55, 32, 28]
19.477[28, 47, 256, 232, 101, 55, 33, 27]
19.492[30, 45, 251, 221, 103, 58, 32, 29]
19.514[30, 46, 223, 220, 98, 57, 31, 29]
19.537[32, 56, 193, 209, 89, 55, 31, 29]
19.559[29, 60, 177, 201, 74, 46, 29, 28]
19.575[29, 63, 178, 205, 83, 44, 26, 28]
19.597[28, 63, 175, 209, 86, 38, 25, 24]
19.619[28, 64, 175, 218, 89, 39, 25, 24]
19.634[25, 52, 163, 193, 83, 35, 23, 23]
19.657[24, 43, 116, 186, 79, 31, 20, 21]
19.679[25, 37, 90, 166, 64, 27, 20, 21]
19.702[22, 34, 80, 134, 50, 26, 20, 19]
19.717[21, 23, 44, 78, 36, 23, 18, 20]
19.739[21, 22, 39, 67, 35, 23, 20, 19]
19.754[21, 22, 29, 51, 31, 21, 19, 18]
19.777[21, 22, 24, 38, 25, 19, 19, 19]
19.799[22, 23, 23, 33, 19, 21, 19, 19]
19.815[22, 23, 22, 29, 17, 20, 19, 16]
19.837[21, 23, 21, 28, 19, 21, 18, 18]
19.86[21, 23, 21, 25, 20, 22, 20, 18]
19.874[20, 23, 20, 24, 20, 20, 19, 19]
19.897[19, 24, 20, 22, 22, 18, 19, 19]
19.919[19, 22, 18, 20, 23, 19, 18, 19]
19.934[20, 25, 17, 19, 22, 17, 19, 18]
19.958[19, 23, 17, 20, 22, 16, 20, 18]
19.979[20, 23, 17, 20, 24, 18, 19, 17]
19.994[20, 20, 19, 22, 23, 18, 19, 18]
20.017[18, 22, 20, 21, 22, 17, 20, 18]
20.04[17, 20, 21, 21, 23, 19, 20, 19]
20.054[19, 22, 21, 21, 21, 19, 19, 20]
20.077[18, 23, 22, 20, 18, 19, 18, 19]
20.1[18, 23, 20, 18, 17, 19, 18, 20]
20.114[18, 22, 20, 18, 20, 21, 17, 20]
20.137[18, 22, 20, 18, 19, 20, 16, 19]
20.159[15, 21, 21, 16, 19, 21, 16, 17]
20.174[16, 20, 21, 18, 19, 21, 16, 19]
20.197[16, 22, 21, 18, 20, 22, 18, 18]
20.219[18, 21, 21, 21, 18, 20, 18, 20]
20.242[19, 21, 19, 20, 19, 21, 18, 20]
20.257[18, 20, 19, 20, 20, 19, 19, 20]
20.279[19, 20, 20, 20, 20, 20, 19, 18]
20.294[19, 20, 22, 20, 22, 22, 19, 20]
20.325[19, 21, 20, 18, 21, 22, 19, 20]
20.339[18, 20, 20, 19, 22, 21, 18, 22]
20.354[19, 22, 21, 19, 22, 22, 20, 23]
20.377[21, 23, 20, 17, 22, 22, 20, 23]
20.4[20, 20, 18, 19, 21, 20, 19, 22]
20.414[20, 21, 19, 21, 21, 21, 21, 20]
20.437[21, 21, 19, 20, 21, 20, 21, 20]
20.46[20, 21, 19, 21, 19, 20, 18, 20]
20.474[19, 21, 18, 22, 19, 20, 18, 19]
20.497[18, 22, 19, 21, 18, 20, 19, 19]
20.519[18, 21, 20, 20, 18, 19, 17, 17]
20.55[17, 21, 19, 20, 19, 19, 17, 17]
20.557[17, 19, 18, 20, 19, 20, 17, 16]
20.579[17, 19, 19, 20, 20, 19, 18, 18]
20.602[17, 20, 19, 19, 21, 18, 16, 17]
20.617[16, 20, 19, 18, 21, 19, 17, 18]
20.639[19, 22, 21, 19, 21, 19, 17, 17]
20.662[19, 22, 23, 19, 20, 20, 17, 18]
20.677[19, 22, 24, 19, 19, 19, 18, 16]
20.7[20, 20, 24, 19, 19, 20, 19, 18]
20.723[21, 21, 24, 18, 19, 20, 19, 19]
20.738[18, 19, 22, 20, 20, 19, 19, 20]
20.759[19, 20, 21, 20, 21, 19, 19, 20]
20.783[19, 19, 19, 20, 22, 20, 19, 21]
20.797[20, 19, 18, 18, 21, 18, 20, 20]
20.819[19, 19, 24, 18, 22, 20, 21, 19]
20.843[20, 19, 30, 17, 22, 21, 20, 19]
20.857[22, 19, 33, 18, 21, 20, 20, 19]
20.88[20, 19, 33, 20, 19, 20, 19, 21]
20.903[21, 18, 33, 20, 23, 21, 18, 20]
20.917[21, 18, 29, 22, 22, 20, 16, 20]
20.94[21, 18, 22, 22, 22, 20, 17, 19]
20.963[21, 17, 17, 22, 22, 19, 17, 21]
20.977[22, 18, 17, 21, 22, 19, 16, 20]
20.999[20, 17, 19, 22, 20, 18, 17, 19]
21.023[21, 18, 20, 21, 21, 17, 17, 18]
21.037[20, 17, 22, 20, 19, 17, 18, 20]
21.059[18, 18, 22, 22, 20, 20, 18, 18]
21.083[19, 17, 23, 21, 20, 21, 20, 17]
21.097[19, 18, 22, 19, 21, 22, 20, 20]
21.119[17, 17, 21, 21, 20, 22, 19, 19]
21.142[20, 19, 19, 21, 21, 23, 18, 18]
21.157[20, 18, 20, 22, 22, 21, 19, 17]
21.179[22, 19, 20, 21, 22, 19, 19, 17]
21.203[21, 21, 23, 21, 21, 18, 20, 15]
21.217[21, 21, 24, 22, 20, 19, 21, 18]
21.24[19, 22, 23, 22, 20, 19, 22, 18]
21.263[21, 22, 24, 20, 18, 19, 22, 20]
21.277[19, 22, 23, 21, 18, 20, 21, 20]
21.3[19, 20, 23, 22, 18, 22, 19, 20]
21.323[19, 20, 30, 19, 18, 22, 20, 21]
21.337[20, 19, 32, 21, 18, 22, 20, 21]
21.359[18, 19, 33, 21, 19, 21, 18, 21]
21.383[17, 19, 32, 21, 19, 23, 18, 20]
21.397[17, 19, 30, 19, 19, 20, 20, 22]
21.42[18, 22, 24, 20, 21, 19, 19, 19]
21.443[18, 21, 20, 16, 21, 18, 17, 19]
21.473[17, 21, 19, 16, 20, 19, 17, 19]
21.48[18, 21, 20, 17, 19, 18, 19, 19]
21.503[18, 22, 19, 19, 19, 20, 17, 17]
21.525[20, 20, 20, 18, 20, 19, 17, 18]
21.539[19, 22, 22, 20, 20, 21, 17, 20]
21.562[19, 23, 22, 20, 21, 20, 18, 18]
21.585[19, 24, 22, 20, 23, 20, 19, 20]
21.599[18, 22, 25, 19, 23, 20, 20, 20]
21.623[18, 22, 23, 19, 23, 20, 20, 20]
21.645[18, 21, 24, 18, 22, 20, 19, 17]
21.659[20, 20, 23, 18, 21, 20, 20, 18]
21.683[20, 21, 23, 17, 19, 20, 19, 17]
21.705[20, 22, 26, 17, 19, 20, 18, 16]
21.719[18, 21, 30, 20, 20, 21, 18, 15]
21.743[19, 21, 32, 20, 22, 21, 18, 15]
21.765[17, 21, 34, 22, 22, 21, 17, 15]
21.779[15, 19, 34, 21, 23, 21, 18, 14]
21.803[18, 18, 31, 22, 22, 20, 17, 15]
21.825[18, 20, 28, 19, 22, 19, 19, 15]
21.84[20, 20, 24, 19, 21, 18, 19, 16]
21.863[20, 20, 23, 18, 23, 19, 19, 16]
21.885[21, 20, 24, 18, 22, 18, 19, 16]
21.9[19, 21, 23, 18, 23, 18, 19, 16]
21.923[21, 20, 22, 18, 21, 18, 18, 16]
21.945[19, 19, 21, 18, 22, 18, 18, 16]
21.959[19, 19, 20, 19, 20, 17, 18, 16]
21.983[20, 21, 19, 20, 22, 17, 18, 18]
22.005[21, 22, 17, 19, 22, 18, 19, 19]
22.019[20, 22, 18, 19, 23, 17, 20, 19]
22.043[20, 21, 18, 20, 21, 17, 20, 20]
22.073[20, 22, 19, 18, 21, 18, 20, 20]
22.079[20, 19, 18, 17, 18, 17, 21, 18]
22.103[19, 18, 19, 18, 17, 18, 20, 21]
22.125[20, 19, 20, 18, 15, 17, 20, 20]
22.139[19, 20, 22, 17, 16, 17, 19, 18]
22.163[18, 20, 22, 18, 15, 17, 19, 18]
22.185[17, 21, 22, 19, 16, 18, 17, 21]
22.199[18, 21, 22, 18, 18, 19, 17, 17]
22.223[17, 23, 21, 19, 18, 20, 16, 17]
22.245[17, 22, 20, 20, 17, 21, 16, 17]
22.268[18, 21, 18, 20, 20, 22, 15, 18]
22.282[19, 19, 19, 21, 20, 21, 15, 17]
22.305[18, 22, 20, 22, 20, 21, 16, 17]
22.319[19, 19, 21, 21, 20, 19, 16, 17]
22.343[19, 19, 21, 21, 22, 19, 17, 19]
22.365[19, 21, 21, 20, 21, 20, 18, 19]
22.388[19, 21, 21, 19, 22, 21, 20, 17]
22.403[19, 19, 21, 20, 21, 22, 19, 18]
22.425[18, 20, 19, 20, 21, 22, 20, 17]
22.448[19, 21, 19, 20, 21, 21, 20, 16]
22.463[19, 20, 19, 19, 21, 20, 19, 15]
22.485[18, 20, 21, 20, 19, 20, 19, 16]
22.508[18, 19, 21, 18, 18, 21, 19, 16]
22.523[20, 20, 20, 20, 17, 22, 19, 15]
22.545[19, 18, 21, 20, 17, 22, 19, 17]
22.567[18, 19, 20, 20, 16, 22, 19, 18]
22.583[19, 18, 19, 19, 16, 21, 17, 17]
22.605[19, 20, 20, 21, 17, 18, 16, 17]
22.628[18, 20, 19, 21, 20, 17, 18, 19]
22.643[20, 20, 19, 20, 20, 18, 17, 17]
22.665[22, 20, 20, 20, 19, 19, 18, 17]
22.688[21, 21, 20, 21, 22, 19, 19, 18]
22.703[23, 20, 19, 20, 22, 20, 19, 18]
22.725[23, 21, 18, 17, 19, 20, 18, 18]
22.748[21, 21, 21, 19, 19, 20, 20, 19]
22.763[19, 21, 21, 18, 20, 19, 20, 21]
22.785[20, 20, 21, 19, 17, 19, 19, 19]
22.808[18, 20, 21, 19, 16, 18, 21, 21]
22.823[18, 17, 24, 20, 16, 18, 19, 20]
22.845[18, 18, 23, 20, 16, 18, 18, 20]
22.867[20, 18, 23, 21, 17, 19, 19, 19]
22.882[20, 17, 23, 21, 17, 19, 19, 18]
22.905[21, 18, 24, 22, 18, 19, 16, 17]
22.928[20, 20, 22, 21, 19, 18, 18, 17]
22.942[20, 20, 21, 22, 19, 19, 19, 16]
22.965[18, 20, 22, 21, 18, 18, 18, 16]
22.988[17, 20, 23, 21, 18, 19, 20, 18]
23.002[16, 20, 22, 20, 17, 20, 19, 19]
23.025[17, 19, 22, 21, 18, 21, 20, 18]
23.048[16, 19, 21, 19, 17, 23, 17, 19]
23.062[17, 21, 19, 20, 18, 22, 18, 19]
23.085[18, 22, 19, 19, 18, 20, 18, 18]
23.108[19, 22, 20, 19, 18, 20, 18, 17]
23.122[19, 22, 20, 20, 16, 18, 16, 18]
23.145[21, 21, 20, 21, 18, 17, 19, 17]
23.168[21, 20, 20, 22, 18, 19, 18, 17]
23.182[21, 20, 20, 21, 16, 20, 16, 18]
23.206[19, 19, 18, 22, 15, 20, 15, 18]
23.235[19, 19, 19, 22, 18, 21, 16, 18]
23.242[18, 19, 19, 22, 17, 20, 16, 17]
23.265[18, 19, 18, 23, 18, 20, 18, 18]
23.295[18, 19, 18, 22, 19, 19, 20, 18]
23.309[19, 19, 20, 22, 20, 19, 21, 17]
23.326[19, 18, 20, 20, 18, 18, 22, 17]
23.347[18, 19, 19, 20, 17, 20, 22, 18]
23.369[20, 18, 19, 17, 17, 19, 22, 19]
23.386[19, 18, 20, 19, 16, 19, 21, 20]
23.407[19, 19, 18, 17, 15, 18, 22, 21]
23.43[20, 18, 17, 18, 18, 18, 21, 21]
23.446[21, 19, 18, 20, 19, 17, 19, 22]
23.467[20, 19, 19, 21, 18, 19, 19, 19]
23.49[20, 21, 19, 21, 19, 19, 19, 18]
23.506[20, 20, 21, 22, 19, 20, 19, 18]
23.527[19, 22, 22, 22, 16, 20, 19, 18]
23.55[19, 20, 22, 22, 17, 21, 20, 17]
23.566[18, 22, 21, 20, 19, 20, 19, 18]
23.587[18, 19, 21, 22, 17, 21, 19, 18]
23.61[18, 19, 20, 20, 19, 20, 19, 17]
23.626[17, 18, 19, 20, 20, 20, 17, 18]
23.647[15, 18, 18, 20, 21, 20, 18, 18]
23.67[17, 17, 19, 20, 20, 19, 17, 17]
23.686[16, 18, 17, 19, 21, 19, 17, 17]
23.707[17, 18, 18, 20, 20, 18, 17, 18]
23.73[17, 19, 18, 19, 21, 18, 18, 17]
23.746[17, 20, 18, 18, 19, 18, 18, 16]
23.767[18, 22, 16, 18, 21, 17, 18, 16]
23.79[18, 22, 17, 18, 21, 17, 17, 14]
23.812[19, 22, 16, 17, 22, 18, 17, 15]
23.828[18, 20, 16, 18, 21, 19, 16, 15]
23.85[18, 19, 17, 18, 22, 17, 18, 16]
23.866[17, 18, 18, 20, 20, 18, 19, 16]
23.887[17, 17, 18, 18, 19, 17, 19, 17]
23.91[16, 18, 19, 18, 19, 16, 20, 17]
23.927[16, 20, 18, 20, 19, 17, 22, 19]
23.947[16, 20, 19, 19, 20, 19, 21, 18]
23.97[16, 19, 19, 18, 21, 18, 21, 18]
23.986[17, 19, 19, 21, 22, 20, 22, 19]
24.007[16, 19, 18, 22, 22, 21, 21, 18]
24.03[16, 19, 21, 21, 22, 20, 20, 15]
24.046[18, 20, 20, 21, 20, 21, 21, 15]
24.068[20, 22, 20, 22, 19, 21, 21, 15]
24.089[19, 22, 21, 20, 19, 19, 20, 16]
24.106[21, 22, 22, 22, 17, 19, 20, 19]
24.127[22, 22, 21, 21, 17, 18, 20, 19]
24.15[22, 21, 22, 21, 18, 16, 19, 21]
24.166[21, 21, 23, 20, 17, 18, 19, 22]
24.187[22, 21, 22, 22, 18, 18, 18, 20]
24.21[22, 21, 21, 20, 19, 17, 18, 21]
24.226[21, 20, 22, 20, 18, 18, 18, 22]
24.247[21, 19, 20, 20, 18, 18, 19, 22]
24.27[20, 18, 21, 21, 18, 17, 18, 21]
24.286[19, 18, 22, 18, 17, 17, 20, 23]
24.307[18, 18, 23, 19, 16, 19, 19, 20]
24.33[19, 20, 22, 19, 18, 19, 20, 20]
24.352[19, 19, 23, 19, 20, 18, 18, 19]
24.367[19, 20, 23, 20, 20, 17, 18, 19]
24.39[19, 22, 22, 19, 21, 18, 16, 18]
24.412[19, 21, 22, 20, 22, 17, 19, 19]
24.429[19, 19, 23, 20, 22, 18, 19, 19]
24.45[20, 19, 21, 19, 21, 18, 19, 19]
24.472[20, 20, 24, 19, 22, 20, 21, 19]
24.487[21, 19, 23, 20, 22, 19, 20, 18]
24.51[22, 21, 21, 18, 21, 18, 18, 16]
24.532[19, 20, 21, 19, 21, 18, 17, 19]
24.547[19, 21, 21, 20, 21, 20, 16, 18]
24.57[19, 21, 18, 20, 20, 18, 15, 19]
24.592[19, 20, 20, 19, 19, 19, 17, 19]
24.607[17, 19, 21, 18, 19, 19, 16, 20]
24.63[18, 20, 19, 18, 18, 17, 16, 17]
24.652[19, 19, 22, 18, 17, 15, 18, 18]
24.667[18, 20, 22, 17, 18, 17, 17, 19]
24.69[18, 22, 21, 18, 17, 17, 15, 18]
24.712[18, 21, 22, 17, 18, 17, 18, 18]
24.727[18, 22, 23, 17, 20, 18, 19, 18]
24.75[17, 22, 24, 18, 20, 18, 19, 18]
24.772[17, 22, 27, 17, 19, 17, 20, 18]
24.787[18, 20, 25, 17, 22, 17, 20, 19]
24.81[20, 21, 25, 18, 22, 17, 20, 21]
24.833[20, 19, 24, 20, 20, 17, 19, 21]
24.847[20, 20, 22, 21, 20, 17, 20, 20]
24.87[21, 19, 20, 23, 21, 17, 19, 19]
24.892[21, 19, 21, 23, 18, 17, 19, 17]
24.907[19, 19, 21, 23, 20, 18, 18, 15]
24.93[19, 20, 22, 22, 21, 18, 19, 16]
24.96[20, 20, 22, 20, 21, 19, 18, 15]
24.968[19, 19, 20, 20, 20, 19, 19, 18]
24.99[20, 18, 19, 21, 21, 20, 19, 20]
25.012[20, 21, 20, 23, 19, 20, 18, 20]
25.027[20, 19, 21, 29, 18, 18, 18, 21]
25.05[18, 18, 21, 30, 19, 18, 19, 21]
25.083[19, 19, 22, 29, 20, 19, 18, 20]
25.09[18, 20, 22, 28, 20, 17, 18, 19]
25.111[21, 19, 21, 28, 20, 18, 19, 19]
25.132[20, 20, 19, 20, 19, 21, 19, 19]
25.148[21, 21, 19, 21, 19, 21, 19, 19]
25.169[22, 22, 18, 20, 17, 22, 18, 19]
25.192[22, 23, 19, 18, 17, 23, 20, 20]
25.207[18, 22, 19, 16, 16, 22, 19, 19]
25.229[20, 24, 20, 16, 18, 20, 19, 18]
25.252[20, 25, 21, 15, 18, 22, 18, 17]
25.274[18, 23, 24, 19, 19, 22, 20, 18]
25.289[21, 21, 29, 26, 20, 21, 19, 18]
25.312[23, 21, 31, 34, 23, 21, 18, 17]
25.335[23, 20, 30, 35, 22, 21, 20, 21]
25.358[23, 17, 29, 36, 22, 20, 20, 21]
25.373[23, 18, 28, 34, 23, 19, 19, 19]
25.403[20, 19, 25, 36, 22, 18, 19, 20]
25.41[20, 21, 25, 30, 21, 18, 19, 22]
25.432[18, 21, 26, 28, 21, 16, 17, 27]
25.454[21, 22, 26, 28, 20, 15, 17, 43]
25.47[21, 21, 25, 28, 21, 18, 16, 51]
25.492[21, 20, 22, 20, 32, 18, 17, 51]
25.514[19, 18, 19, 18, 37, 22, 17, 51]
25.538[19, 17, 21, 19, 38, 22, 18, 47]
25.552[20, 16, 20, 20, 38, 22, 18, 32]
25.575[19, 18, 27, 20, 37, 23, 17, 18]
25.59[22, 18, 27, 21, 30, 23, 17, 17]
25.612[22, 19, 27, 24, 21, 21, 29, 17]
25.634[22, 20, 26, 24, 20, 21, 40, 16]
25.651[19, 22, 28, 23, 21, 21, 49, 17]
25.672[19, 23, 22, 24, 21, 18, 52, 18]
25.694[17, 22, 23, 25, 20, 18, 52, 18]
25.71[19, 22, 23, 23, 20, 17, 48, 18]
25.732[20, 24, 22, 24, 23, 17, 39, 18]
25.755[20, 23, 21, 24, 24, 18, 28, 19]
25.77[22, 21, 20, 23, 24, 18, 22, 17]
25.792[20, 21, 21, 22, 24, 20, 21, 18]
25.815[21, 20, 21, 21, 24, 20, 17, 18]
25.83[21, 20, 22, 20, 20, 20, 16, 20]
25.852[21, 20, 24, 19, 19, 19, 16, 19]
25.874[20, 19, 23, 18, 18, 21, 17, 21]
25.889[20, 22, 22, 18, 19, 21, 19, 21]
25.912[22, 22, 23, 19, 19, 20, 19, 21]
25.935[22, 20, 21, 19, 20, 22, 20, 20]
25.958[21, 21, 23, 18, 20, 21, 19, 21]
25.972[21, 24, 24, 20, 21, 19, 20, 20]
25.996[22, 22, 25, 20, 20, 19, 20, 21]
26.01[19, 22, 24, 17, 20, 20, 21, 21]
26.032[19, 23, 26, 17, 19, 18, 20, 20]
26.063[19, 22, 22, 17, 21, 18, 20, 18]
26.069[19, 21, 21, 17, 20, 19, 17, 19]
26.092[18, 23, 20, 17, 20, 18, 16, 19]
26.115[17, 22, 20, 18, 21, 20, 16, 20]
26.129[16, 21, 17, 18, 23, 20, 16, 22]
26.152[20, 28, 20, 18, 20, 21, 18, 23]
26.183[21, 27, 21, 20, 22, 21, 18, 20]
26.198[22, 25, 22, 22, 22, 21, 18, 20]
26.212[22, 24, 23, 22, 22, 21, 21, 19]
26.235[23, 24, 23, 21, 19, 21, 22, 19]
26.265[19, 17, 22, 22, 19, 21, 20, 19]
26.272[18, 22, 20, 20, 20, 21, 22, 19]
26.296[20, 22, 19, 17, 19, 20, 23, 19]
26.318[18, 23, 18, 18, 20, 18, 20, 19]
26.332[18, 23, 20, 19, 22, 20, 20, 18]
26.356[19, 20, 20, 19, 21, 19, 22, 16]
26.378[20, 17, 21, 21, 20, 20, 20, 17]
26.392[19, 17, 20, 21, 22, 21, 21, 16]
26.415[19, 17, 21, 21, 22, 22, 21, 16]
26.438[19, 18, 20, 20, 20, 21, 19, 17]
26.453[21, 18, 21, 21, 22, 20, 18, 18]
26.475[20, 18, 20, 19, 23, 18, 18, 17]
26.498[23, 21, 21, 19, 21, 17, 16, 19]
26.512[22, 22, 21, 21, 20, 15, 17, 20]
26.536[23, 21, 22, 21, 21, 14, 18, 19]
26.573[22, 22, 23, 19, 19, 15, 19, 21]
26.575[22, 23, 24, 20, 19, 15, 19, 21]
26.595[18, 22, 22, 21, 20, 18, 19, 21]
26.618[20, 21, 22, 18, 22, 19, 19, 20]
26.632[18, 21, 21, 18, 20, 20, 20, 21]
26.655[17, 20, 19, 19, 20, 20, 18, 19]
26.678[18, 18, 19, 16, 19, 20, 19, 21]
26.692[17, 17, 20, 14, 18, 18, 20, 20]
26.715[21, 19, 19, 15, 16, 18, 18, 20]
26.738[23, 18, 20, 16, 17, 18, 18, 22]
26.752[23, 18, 19, 17, 18, 19, 19, 23]
26.775[23, 20, 19, 18, 17, 20, 19, 21]
26.798[23, 21, 22, 19, 20, 20, 19, 21]
26.812[20, 19, 21, 19, 21, 21, 21, 21]
26.835[18, 18, 24, 18, 22, 21, 20, 17]
26.858[18, 18, 25, 18, 22, 19, 19, 14]
26.872[17, 19, 25, 18, 23, 18, 19, 14]
26.895[17, 18, 23, 19, 22, 18, 19, 16]
26.926[18, 20, 24, 18, 22, 17, 18, 15]
26.932[20, 20, 22, 19, 21, 20, 18, 17]
26.955[20, 21, 21, 18, 21, 20, 18, 19]
26.978[20, 20, 20, 18, 21, 21, 18, 19]
26.992[20, 22, 20, 20, 22, 20, 18, 19]
27.015[20, 21, 21, 20, 21, 19, 17, 20]
27.038[21, 22, 21, 20, 21, 16, 18, 21]
27.052[20, 22, 21, 22, 21, 16, 17, 21]
27.075[20, 22, 22, 21, 20, 15, 17, 20]
27.098[21, 22, 21, 19, 19, 17, 17, 21]
27.112[19, 21, 20, 19, 19, 19, 16, 19]
27.135[18, 21, 20, 19, 19, 19, 19, 18]
27.158[19, 20, 21, 17, 19, 20, 20, 18]
27.18[19, 21, 26, 18, 18, 19, 19, 18]
27.196[17, 19, 29, 18, 18, 19, 19, 18]
27.218[19, 20, 38, 19, 18, 18, 20, 19]
27.24[18, 20, 51, 21, 17, 18, 18, 20]
27.255[18, 20, 57, 23, 17, 17, 20, 19]
27.278[19, 18, 55, 22, 16, 16, 20, 20]
27.3[19, 21, 58, 23, 19, 16, 20, 18]
27.315[19, 22, 55, 23, 19, 17, 21, 21]
27.338[18, 21, 42, 21, 20, 16, 21, 19]
27.36[19, 20, 35, 22, 21, 19, 20, 20]
27.375[18, 20, 35, 23, 20, 20, 21, 22]
27.398[18, 17, 27, 21, 20, 21, 20, 22]
27.421[19, 17, 25, 21, 21, 21, 18, 19]
27.435[20, 17, 32, 21, 20, 23, 18, 19]
27.458[18, 18, 33, 21, 18, 21, 19, 19]
27.481[19, 20, 33, 20, 22, 21, 17, 17]
27.495[20, 20, 47, 23, 21, 22, 20, 16]
27.518[19, 20, 52, 25, 22, 23, 20, 17]
27.54[19, 23, 49, 25, 23, 21, 20, 17]
27.555[20, 22, 48, 23, 26, 20, 20, 16]
27.578[20, 20, 48, 24, 23, 22, 21, 17]
27.601[19, 21, 34, 22, 23, 20, 19, 17]
27.615[19, 21, 28, 20, 20, 18, 20, 15]
27.638[21, 20, 46, 21, 19, 21, 21, 16]
27.66[20, 19, 53, 21, 17, 22, 21, 16]
27.675[19, 21, 57, 22, 17, 20, 23, 15]
27.698[18, 20, 59, 22, 17, 19, 22, 16]
27.721[17, 20, 57, 21, 22, 19, 22, 18]
27.734[15, 19, 45, 21, 22, 17, 20, 18]
27.758[16, 19, 38, 21, 21, 17, 21, 18]
27.78[18, 18, 31, 19, 22, 18, 19, 19]
27.794[20, 19, 38, 20, 24, 19, 20, 18]
27.818[21, 18, 38, 19, 20, 18, 20, 18]
27.84[20, 19, 36, 18, 20, 20, 19, 18]
27.854[21, 20, 36, 19, 20, 21, 19, 19]
27.878[20, 20, 36, 19, 21, 20, 20, 19]
27.901[20, 20, 31, 17, 21, 20, 19, 20]
27.915[20, 19, 32, 20, 20, 21, 19, 19]
27.938[20, 19, 33, 21, 20, 19, 19, 18]
27.96[20, 21, 32, 20, 20, 18, 18, 17]
27.975[20, 20, 31, 21, 19, 19, 17, 17]
27.998[19, 20, 28, 22, 18, 18, 18, 16]
28.021[19, 23, 29, 22, 19, 17, 17, 17]
28.035[19, 23, 29, 22, 20, 18, 18, 18]
28.058[18, 22, 29, 22, 20, 19, 20, 18]
28.08[18, 22, 31, 20, 22, 19, 19, 18]
28.103[19, 23, 25, 21, 21, 19, 19, 18]
28.118[18, 21, 25, 20, 22, 20, 19, 17]
28.141[19, 22, 30, 20, 22, 21, 19, 18]
28.163[20, 21, 32, 20, 21, 21, 18, 18]
28.178[20, 21, 30, 20, 21, 20, 19, 18]
28.208[21, 21, 30, 20, 22, 21, 20, 20]
28.23[22, 21, 29, 19, 22, 20, 19, 20]
28.238[22, 20, 23, 20, 22, 19, 20, 19]
28.26[21, 19, 22, 20, 21, 17, 20, 19]
28.283[20, 18, 31, 21, 21, 19, 19, 19]
28.299[19, 17, 33, 20, 19, 19, 19, 16]
28.319[18, 18, 32, 21, 20, 20, 19, 17]
28.342[19, 17, 32, 21, 21, 19, 21, 18]
28.358[18, 18, 31, 19, 21, 21, 20, 17]
28.38[18, 18, 26, 19, 21, 20, 20, 19]
28.403[18, 17, 28, 22, 20, 19, 20, 19]
28.418[19, 16, 30, 19, 19, 21, 19, 19]
28.44[17, 17, 30, 20, 17, 20, 18, 18]
28.462[18, 17, 30, 20, 17, 20, 19, 20]
28.479[18, 18, 26, 20, 17, 20, 19, 19]
28.499[18, 19, 23, 19, 16, 20, 20, 20]
28.522[18, 18, 21, 20, 16, 18, 20, 19]
28.539[18, 17, 23, 19, 17, 18, 22, 20]
28.56[17, 17, 21, 20, 18, 20, 22, 21]
28.59[18, 19, 22, 20, 18, 19, 21, 20]
28.599[18, 18, 21, 21, 19, 19, 21, 20]
28.62[18, 19, 23, 21, 20, 18, 21, 18]
28.642[18, 20, 20, 19, 20, 19, 19, 19]
28.659[18, 20, 22, 19, 21, 17, 19, 17]
28.68[16, 22, 23, 18, 20, 18, 19, 21]
28.702[15, 22, 22, 16, 19, 18, 18, 21]
28.719[17, 23, 21, 16, 18, 18, 18, 22]
28.74[17, 23, 23, 17, 17, 21, 19, 22]
28.762[20, 23, 23, 18, 16, 20, 18, 23]
28.779[20, 20, 22, 19, 16, 20, 20, 21]
28.799[19, 23, 22, 20, 17, 20, 20, 23]
28.822[19, 21, 22, 20, 17, 20, 20, 23]
28.839[20, 19, 21, 20, 21, 18, 20, 23]
28.86[20, 18, 21, 21, 21, 18, 19, 22]
28.882[20, 18, 20, 24, 21, 18, 18, 21]
28.899[22, 16, 20, 22, 21, 18, 18, 18]
28.92[21, 19, 18, 23, 21, 18, 18, 18]
28.942[22, 20, 16, 23, 20, 18, 19, 17]
28.959[23, 21, 16, 23, 21, 18, 21, 15]
28.98[22, 20, 19, 21, 21, 17, 20, 17]
29.002[21, 19, 20, 21, 20, 17, 20, 16]
29.025[22, 18, 20, 20, 21, 18, 20, 18]
29.04[19, 18, 21, 19, 20, 18, 18, 18]
29.062[17, 20, 21, 19, 20, 19, 20, 20]
29.085[19, 22, 19, 18, 19, 21, 19, 18]
29.099[19, 22, 18, 18, 19, 20, 20, 19]
29.122[17, 21, 17, 20, 19, 20, 19, 17]
29.145[18, 21, 17, 20, 21, 19, 21, 19]
29.168[19, 20, 17, 19, 21, 18, 19, 17]
29.182[18, 19, 18, 19, 22, 17, 22, 17]
29.205[18, 20, 19, 19, 22, 17, 20, 17]
29.22[18, 21, 19, 19, 21, 18, 20, 17]
29.242[19, 20, 20, 19, 20, 17, 18, 17]
29.265[18, 19, 20, 20, 20, 19, 20, 18]
29.279[18, 21, 21, 20, 21, 18, 18, 19]
29.302[19, 20, 21, 21, 23, 18, 18, 19]
29.325[21, 20, 22, 21, 22, 19, 19, 19]
29.341[20, 20, 22, 22, 21, 20, 19, 18]
29.362[21, 22, 24, 20, 20, 19, 17, 18]
29.385[21, 20, 25, 20, 19, 19, 19, 18]
29.4[21, 22, 25, 19, 17, 20, 19, 19]
29.422[20, 22, 25, 19, 17, 18, 18, 19]
29.445[20, 22, 26, 18, 16, 17, 20, 20]
29.459[20, 20, 25, 20, 18, 17, 22, 19]
29.482[21, 21, 21, 19, 19, 18, 19, 19]
29.505[20, 19, 21, 22, 20, 18, 21, 20]
29.52[20, 18, 21, 21, 19, 18, 21, 20]
29.543[20, 19, 20, 23, 20, 20, 20, 18]
29.565[19, 18, 19, 22, 19, 20, 18, 21]
29.58[19, 18, 21, 21, 18, 19, 18, 20]
29.602[21, 18, 20, 21, 18, 19, 19, 19]
29.625[19, 17, 20, 20, 18, 19, 21, 18]
29.64[19, 18, 21, 18, 18, 17, 19, 19]
29.662[21, 19, 21, 19, 19, 17, 21, 17]
29.685[20, 19, 20, 20, 19, 18, 21, 17]
29.7[17, 18, 21, 18, 22, 18, 21, 17]
29.722[18, 19, 21, 18, 23, 18, 20, 18]
29.745[19, 19, 19, 19, 23, 19, 21, 18]
29.76[18, 18, 22, 19, 21, 19, 21, 17]
29.782[20, 19, 22, 19, 21, 19, 21, 18]
29.805[22, 20, 22, 21, 19, 18, 19, 19]
29.82[21, 21, 23, 21, 22, 18, 19, 20]
29.842[20, 23, 23, 21, 22, 19, 21, 20]
29.865[20, 24, 21, 20, 21, 20, 18, 20]
29.88[19, 24, 21, 21, 21, 19, 18, 18]
29.902[17, 24, 21, 19, 22, 20, 20, 17]
29.925[17, 25, 19, 17, 18, 20, 20, 15]
29.94[18, 24, 19, 17, 18, 19, 18, 14]
29.962[17, 22, 19, 18, 20, 20, 18, 17]
29.985[18, 22, 21, 17, 20, 19, 18, 19]
30.007[18, 22, 22, 18, 19, 19, 19, 21]
30.022[20, 19, 24, 20, 20, 20, 19, 21]
30.045[19, 19, 23, 20, 22, 20, 18, 22]
30.068[20, 18, 23, 19, 20, 20, 19, 22]
30.082[20, 18, 22, 19, 20, 20, 19, 21]
30.105[20, 18, 21, 20, 19, 21, 18, 19]
30.127[18, 20, 20, 18, 19, 19, 19, 20]
30.142[16, 20, 20, 19, 17, 19, 19, 20]
30.165[18, 22, 19, 20, 19, 19, 21, 19]
30.187[18, 35, 32, 31, 22, 20, 21, 19]
30.202[24, 59, 85, 62, 38, 22, 21, 21]
30.225[32, 111, 242, 89, 48, 30, 25, 24]
30.247[47, 175, 383, 289, 187, 63, 35, 33]
30.262[62, 225, 448, 322, 194, 73, 41, 38]
30.285[73, 242, 472, 341, 198, 76, 44, 40]
30.307[73, 245, 502, 368, 200, 80, 46, 40]
30.323[76, 260, 557, 391, 220, 90, 49, 43]
30.345[72, 235, 505, 294, 130, 73, 46, 39]
30.367[74, 248, 479, 302, 149, 89, 56, 38]
30.382[70, 260, 565, 325, 197, 107, 62, 42]
30.405[83, 297, 570, 333, 209, 114, 70, 46]
30.427[80, 275, 488, 315, 188, 105, 69, 42]
30.444[81, 278, 469, 325, 191, 109, 75, 41]
30.465[72, 234, 448, 305, 177, 94, 78, 40]
30.487[75, 239, 337, 315, 142, 75, 76, 37]
30.502[60, 195, 309, 308, 135, 66, 69, 33]
30.533[63, 205, 307, 342, 140, 88, 78, 35]
30.547[59, 193, 295, 342, 145, 120, 118, 33]
30.562[61, 214, 316, 379, 148, 127, 115, 36]
30.585[51, 178, 289, 350, 128, 125, 115, 33]
30.607[52, 171, 259, 329, 117, 124, 168, 42]
30.622[44, 159, 244, 305, 118, 113, 164, 42]
30.646[48, 175, 270, 315, 126, 80, 141, 43]
30.667[42, 145, 326, 264, 119, 64, 140, 38]
30.682[44, 153, 351, 269, 129, 64, 142, 40]
30.705[49, 171, 382, 293, 128, 73, 86, 38]
30.727[50, 172, 396, 303, 126, 70, 93, 38]
30.742[48, 151, 397, 295, 107, 65, 87, 39]
30.765[47, 162, 348, 301, 107, 66, 83, 39]
30.787[45, 158, 328, 298, 98, 70, 86, 39]
30.802[42, 140, 288, 275, 97, 64, 73, 34]
30.825[48, 147, 260, 260, 122, 74, 65, 35]
30.847[50, 161, 236, 251, 124, 73, 62, 34]
30.862[50, 148, 213, 252, 138, 76, 70, 34]
30.885[50, 141, 204, 245, 134, 70, 62, 32]
30.907[49, 145, 215, 235, 130, 68, 65, 32]
30.93[45, 137, 211, 216, 107, 57, 65, 27]
30.945[42, 125, 192, 204, 101, 53, 63, 26]
30.967[41, 122, 190, 191, 85, 48, 60, 27]
30.99[43, 145, 192, 181, 80, 51, 64, 28]
31.005[43, 141, 186, 187, 78, 52, 78, 25]
31.027[44, 147, 188, 217, 94, 55, 75, 29]
31.05[47, 154, 215, 234, 102, 56, 77, 30]
31.065[47, 155, 238, 232, 100, 57, 86, 31]
31.089[47, 142, 262, 234, 102, 53, 85, 29]
31.11[43, 139, 261, 245, 112, 51, 73, 31]
31.125[40, 127, 259, 254, 107, 47, 74, 30]
31.147[41, 137, 267, 249, 98, 47, 90, 31]
31.178[39, 133, 243, 247, 93, 48, 80, 32]
31.185[35, 117, 195, 257, 92, 47, 75, 31]
31.207[36, 117, 201, 265, 80, 43, 69, 30]
31.23[34, 113, 199, 234, 59, 38, 68, 29]
31.245[31, 87, 180, 223, 53, 36, 41, 27]
31.267[33, 95, 194, 236, 56, 33, 37, 25]
31.29[37, 115, 239, 235, 57, 37, 35, 28]
31.305[39, 113, 242, 224, 70, 40, 35, 27]
31.327[40, 131, 273, 244, 81, 43, 50, 29]
31.35[41, 133, 266, 248, 93, 47, 52, 31]
31.365[44, 145, 269, 243, 102, 50, 51, 34]
31.387[45, 142, 262, 228, 113, 53, 52, 34]
31.41[43, 142, 261, 222, 106, 52, 52, 34]
31.425[43, 126, 224, 199, 99, 50, 61, 35]
31.447[43, 120, 222, 225, 95, 49, 60, 36]
31.47[40, 106, 212, 222, 90, 44, 61, 33]
31.485[36, 94, 215, 236, 75, 39, 60, 33]
31.507[36, 102, 220, 229, 85, 42, 60, 33]
31.53[37, 110, 241, 229, 86, 42, 40, 29]
31.545[34, 107, 246, 195, 83, 41, 37, 27]
31.567[36, 120, 320, 215, 80, 44, 56, 29]
31.59[38, 120, 298, 196, 87, 48, 58, 27]
31.605[43, 124, 285, 193, 79, 49, 60, 30]
31.627[43, 116, 262, 192, 78, 50, 67, 34]
31.651[46, 127, 266, 201, 78, 49, 80, 34]
31.665[42, 112, 200, 183, 77, 47, 69, 32]
31.687[42, 113, 200, 192, 78, 42, 69, 31]
31.71[34, 95, 212, 197, 86, 41, 68, 29]
31.725[57, 104, 231, 198, 87, 41, 60, 30]
31.747[58, 91, 217, 193, 85, 43, 52, 31]
31.77[60, 99, 229, 211, 86, 45, 56, 35]
31.785[59, 99, 245, 200, 81, 49, 59, 36]
31.815[60, 106, 295, 205, 81, 49, 62, 37]
31.832[40, 93, 285, 200, 79, 48, 74, 34]
31.845[38, 96, 293, 190, 77, 48, 67, 34]
31.868[35, 82, 254, 147, 70, 46, 65, 29]
31.89[41, 104, 267, 170, 80, 43, 62, 29]
31.913[38, 102, 227, 233, 73, 40, 67, 28]
31.928[37, 110, 244, 247, 74, 39, 58, 27]
31.95[33, 105, 242, 249, 73, 38, 58, 26]
31.973[35, 110, 239, 249, 79, 39, 54, 27]
31.988[29, 92, 204, 247, 68, 37, 54, 25]
32.01[31, 89, 168, 206, 78, 43, 42, 27]
32.033[31, 84, 131, 193, 79, 42, 34, 27]
32.048[31, 86, 99, 197, 83, 43, 31, 26]
32.071[34, 89, 121, 236, 84, 42, 30, 25]
32.093[35, 81, 116, 221, 90, 50, 39, 27]
32.109[35, 80, 136, 195, 76, 47, 41, 27]
32.131[36, 94, 162, 223, 78, 47, 41, 26]
32.153[37, 96, 188, 219, 74, 46, 41, 28]
32.168[31, 87, 203, 187, 70, 45, 43, 27]
32.19[32, 95, 216, 189, 55, 36, 34, 27]
32.213[34, 102, 207, 204, 65, 37, 33, 26]
32.228[32, 88, 207, 197, 62, 37, 35, 26]
32.25[32, 88, 205, 206, 63, 38, 35, 24]
32.273[34, 96, 184, 199, 62, 37, 32, 24]
32.288[34, 100, 178, 205, 69, 38, 31, 23]
32.311[36, 101, 188, 183, 64, 37, 29, 22]
32.333[36, 101, 221, 176, 64, 36, 30, 22]
32.348[37, 98, 238, 174, 71, 41, 33, 24]
32.37[39, 93, 247, 170, 74, 47, 36, 25]
32.394[36, 87, 248, 167, 71, 45, 36, 26]
32.407[35, 85, 259, 182, 71, 44, 36, 27]
32.43[34, 88, 230, 179, 74, 45, 35, 26]
32.453[35, 89, 258, 168, 75, 44, 35, 25]
32.467[32, 84, 265, 193, 71, 39, 32, 24]
32.49[34, 84, 271, 198, 80, 41, 32, 25]
32.513[29, 75, 258, 191, 80, 43, 34, 25]
32.528[31, 68, 246, 175, 80, 45, 38, 27]
32.551[30, 67, 177, 184, 73, 43, 40, 27]
32.573[31, 73, 151, 167, 75, 62, 55, 28]
32.587[29, 70, 165, 173, 76, 63, 57, 27]
32.61[31, 72, 181, 175, 75, 63, 56, 28]
32.634[30, 75, 197, 171, 72, 61, 55, 28]
32.647[32, 85, 216, 186, 80, 61, 53, 27]
32.67[32, 81, 225, 200, 87, 46, 42, 28]
32.693[35, 90, 245, 212, 84, 46, 45, 28]
32.707[35, 91, 231, 210, 86, 46, 48, 26]
32.73[36, 89, 237, 219, 87, 51, 47, 25]
32.753[34, 80, 228, 195, 86, 53, 46, 25]
32.767[36, 87, 218, 180, 81, 51, 43, 26]
32.79[31, 77, 202, 169, 74, 48, 35, 26]
32.813[36, 86, 204, 181, 79, 55, 45, 28]
32.835[33, 82, 197, 170, 78, 51, 44, 28]
32.85[33, 81, 214, 179, 73, 52, 44, 27]
32.873[32, 85, 247, 197, 74, 54, 45, 28]
32.895[32, 82, 223, 192, 78, 57, 45, 28]
32.91[28, 76, 220, 190, 74, 50, 30, 26]
32.933[30, 86, 215, 197, 79, 50, 29, 26]
32.956[30, 84, 213, 197, 78, 47, 30, 28]
32.97[30, 82, 187, 206, 73, 43, 27, 25]
32.993[32, 85, 184, 201, 76, 42, 30, 26]
33.016[33, 94, 209, 194, 72, 43, 38, 26]
33.03[36, 91, 204, 216, 79, 42, 39, 26]
33.053[37, 103, 188, 231, 82, 39, 37, 24]
33.076[36, 100, 184, 209, 85, 42, 40, 25]
33.09[36, 100, 180, 217, 79, 36, 38, 25]
33.113[58, 85, 156, 232, 84, 32, 30, 28]
33.135[58, 87, 240, 227, 75, 36, 28, 30]
33.15[59, 78, 244, 228, 77, 45, 34, 32]
33.173[68, 81, 237, 223, 74, 45, 34, 34]
33.195[71, 87, 246, 226, 79, 45, 33, 32]
33.21[54, 95, 266, 213, 74, 47, 33, 30]
33.233[53, 92, 186, 182, 68, 44, 33, 27]
33.256[55, 93, 180, 158, 69, 38, 29, 28]
33.27[61, 90, 178, 161, 73, 38, 26, 28]
33.293[58, 82, 167, 133, 72, 39, 26, 29]
33.316[60, 91, 209, 176, 78, 41, 28, 31]
33.337[61, 90, 210, 196, 88, 44, 29, 31]
33.354[67, 90, 235, 210, 86, 41, 27, 33]
33.375[64, 89, 233, 209, 82, 38, 27, 31]
33.391[64, 86, 232, 218, 78, 38, 27, 32]
33.414[95, 70, 173, 192, 83, 34, 27, 41]
33.435[100, 84, 189, 183, 75, 32, 29, 43]
33.451[107, 88, 183, 160, 70, 34, 38, 47]
33.474[109, 89, 196, 162, 72, 35, 37, 46]
33.502[119, 90, 209, 154, 75, 40, 39, 50]
33.511[98, 88, 209, 134, 65, 41, 39, 43]
33.534[92, 76, 207, 134, 69, 43, 38, 41]
33.556[89, 72, 181, 147, 76, 46, 29, 37]
33.571[83, 67, 169, 159, 73, 44, 30, 38]
33.594[68, 71, 183, 158, 69, 42, 30, 32]
33.615[64, 77, 175, 163, 78, 47, 30, 31]
33.631[79, 71, 159, 177, 80, 44, 27, 37]
33.654[65, 63, 154, 190, 76, 40, 28, 34]
33.675[60, 77, 160, 188, 77, 40, 29, 33]
33.691[61, 75, 139, 193, 78, 37, 28, 32]
33.713[59, 83, 177, 264, 68, 30, 29, 30]
33.735[70, 87, 180, 248, 63, 36, 35, 31]
33.752[71, 91, 186, 236, 64, 38, 37, 32]
33.772[71, 87, 189, 239, 77, 40, 37, 32]
33.795[81, 92, 189, 240, 77, 42, 38, 34]
33.817[96, 86, 152, 154, 84, 45, 37, 39]
33.84[78, 93, 161, 170, 83, 41, 32, 34]
33.855[79, 91, 156, 179, 89, 41, 31, 35]
33.877[91, 86, 164, 162, 79, 39, 30, 39]
33.892[83, 80, 153, 170, 81, 37, 28, 37]
33.915[63, 78, 152, 178, 69, 31, 25, 32]
33.937[67, 95, 157, 220, 82, 34, 28, 32]
33.952[79, 96, 153, 211, 72, 32, 26, 32]
33.975[65, 107, 137, 215, 75, 39, 43, 29]
33.997[64, 105, 135, 199, 69, 41, 45, 28]
34.012[67, 133, 162, 255, 84, 44, 47, 29]
34.035[74, 117, 194, 217, 74, 43, 45, 31]
34.057[59, 115, 206, 223, 77, 45, 45, 31]
34.072[60, 108, 224, 213, 82, 44, 36, 33]
34.095[70, 112, 230, 228, 86, 51, 38, 37]
34.117[70, 83, 234, 197, 75, 49, 36, 37]
34.132[59, 88, 214, 193, 77, 50, 36, 35]
34.155[59, 89, 217, 183, 75, 50, 36, 32]
34.179[72, 85, 197, 221, 71, 46, 32, 35]
34.192[64, 85, 207, 217, 77, 38, 27, 31]
34.215[63, 75, 186, 180, 80, 38, 29, 30]
34.237[61, 64, 171, 183, 77, 36, 30, 30]
34.252[72, 64, 165, 200, 80, 34, 28, 32]
34.275[59, 73, 200, 191, 90, 37, 35, 26]
34.299[60, 87, 200, 192, 88, 34, 36, 26]
34.312[58, 88, 218, 189, 89, 36, 37, 29]
34.335[76, 96, 223, 176, 87, 36, 39, 34]
34.357[65, 97, 218, 168, 82, 36, 40, 32]
34.38[64, 95, 191, 177, 71, 32, 35, 34]
34.396[62, 84, 188, 173, 68, 38, 35, 34]
34.417[83, 92, 181, 199, 70, 38, 33, 39]
34.432[66, 85, 169, 208, 73, 38, 32, 35]
34.455[64, 80, 174, 206, 72, 37, 29, 34]
34.477[64, 89, 187, 178, 72, 39, 30, 32]
34.492[80, 92, 172, 166, 68, 34, 27, 36]
34.515[60, 87, 147, 134, 80, 37, 26, 28]
34.537[63, 89, 147, 125, 77, 36, 27, 28]
34.552[65, 98, 155, 152, 79, 39, 27, 29]
34.575[75, 93, 140, 140, 77, 35, 25, 32]
34.597[60, 88, 153, 158, 82, 37, 25, 28]
34.613[59, 91, 168, 169, 69, 32, 24, 29]
34.635[77, 93, 197, 198, 73, 31, 24, 32]
34.657[78, 87, 204, 183, 74, 28, 22, 31]
34.672[70, 86, 201, 183, 74, 35, 24, 29]
34.695[69, 90, 207, 179, 71, 34, 24, 30]
34.718[87, 84, 209, 169, 65, 34, 26, 36]
34.74[69, 83, 205, 163, 63, 36, 25, 32]
34.755[67, 80, 192, 150, 69, 39, 27, 33]
34.778[65, 81, 208, 216, 77, 37, 27, 33]
34.8[82, 78, 218, 213, 77, 36, 27, 39]
34.815[62, 79, 215, 226, 84, 37, 27, 32]
34.837[64, 75, 194, 209, 83, 34, 28, 33]
34.86[67, 77, 207, 216, 81, 34, 30, 33]
34.875[85, 69, 185, 176, 70, 32, 29, 37]
34.898[69, 64, 161, 174, 71, 32, 30, 30]
34.92[70, 66, 156, 205, 72, 35, 29, 30]
34.935[72, 71, 176, 200, 69, 36, 29, 29]
34.958[83, 68, 158, 195, 65, 33, 25, 34]
34.98[63, 65, 179, 206, 68, 34, 26, 28]
34.995[61, 68, 168, 212, 66, 35, 24, 28]
35.017[61, 68, 166, 172, 70, 38, 24, 31]
35.04[61, 72, 166, 175, 69, 38, 26, 33]
35.055[60, 75, 164, 210, 69, 38, 28, 31]
35.078[61, 79, 142, 181, 67, 39, 30, 32]
35.1[63, 93, 168, 175, 70, 41, 30, 34]
35.115[62, 91, 164, 181, 58, 35, 31, 33]
35.137[73, 86, 211, 270, 85, 43, 30, 36]
35.168[60, 87, 214, 243, 90, 45, 31, 33]
35.175[60, 87, 213, 239, 88, 44, 28, 33]
35.197[58, 65, 227, 250, 85, 41, 26, 31]
35.22[75, 63, 233, 268, 95, 49, 31, 35]
35.235[66, 60, 179, 218, 77, 41, 30, 34]
35.257[65, 66, 176, 231, 76, 41, 26, 33]
35.28[65, 64, 203, 238, 78, 41, 31, 32]
35.295[81, 79, 178, 237, 79, 42, 33, 37]
35.317[66, 83, 171, 210, 66, 33, 29, 30]
35.34[62, 80, 174, 174, 64, 34, 30, 26]
35.355[61, 78, 180, 158, 58, 32, 30, 28]
35.386[79, 79, 180, 242, 72, 33, 28, 32]
35.4[63, 67, 193, 259, 70, 32, 28, 26]
35.415[64, 78, 195, 268, 80, 34, 27, 28]
35.437[66, 79, 187, 263, 80, 35, 27, 28]
35.46[64, 73, 181, 266, 85, 36, 27, 27]
35.482[59, 70, 167, 220, 78, 37, 26, 26]
35.498[59, 72, 147, 191, 79, 38, 26, 25]
35.52[62, 65, 170, 182, 88, 45, 27, 26]
35.535[60, 65, 178, 179, 89, 46, 26, 27]
35.558[61, 66, 174, 209, 88, 48, 28, 26]
35.58[56, 71, 155, 182, 82, 48, 28, 26]
35.595[57, 70, 171, 178, 83, 49, 29, 27]
35.618[56, 75, 157, 182, 69, 47, 31, 30]
35.64[76, 81, 187, 212, 72, 44, 32, 31]
35.663[78, 86, 189, 218, 75, 42, 32, 32]
35.677[68, 85, 224, 214, 74, 41, 32, 31]
35.7[67, 82, 227, 222, 77, 40, 30, 32]
35.723[79, 75, 229, 211, 76, 35, 26, 31]
35.737[64, 78, 245, 207, 71, 36, 27, 30]
35.76[62, 75, 250, 168, 62, 37, 28, 30]
35.783[64, 79, 237, 174, 66, 38, 29, 29]
35.806[63, 83, 232, 195, 75, 44, 29, 29]
35.821[64, 89, 229, 202, 67, 44, 30, 29]
35.843[61, 81, 195, 190, 74, 43, 32, 28]
35.858[61, 80, 195, 194, 78, 40, 55, 30]
35.88[62, 87, 188, 189, 77, 38, 59, 31]
35.903[62, 89, 192, 164, 62, 32, 63, 32]
35.917[64, 86, 188, 161, 66, 34, 65, 38]
35.94[65, 87, 180, 142, 61, 36, 66, 39]
35.963[65, 93, 168, 161, 63, 36, 49, 37]
35.977[63, 79, 170, 172, 63, 35, 42, 36]
36.0[74, 78, 163, 168, 73, 37, 39, 38]
36.023[54, 78, 169, 193, 79, 38, 37, 29]
36.038[54, 80, 175, 224, 78, 37, 33, 27]
36.06[53, 74, 192, 229, 78, 36, 30, 27]
36.083[53, 80, 184, 225, 76, 39, 32, 28]
36.097[60, 87, 186, 227, 72, 41, 29, 27]
36.12[60, 87, 220, 215, 69, 38, 27, 27]
36.143[58, 84, 220, 187, 87, 47, 28, 27]
36.158[60, 94, 215, 160, 85, 49, 31, 28]
36.18[60, 93, 250, 176, 87, 49, 28, 26]
36.203[37, 89, 270, 199, 90, 48, 31, 23]
36.217[38, 93, 238, 209, 90, 47, 32, 25]
36.24[37, 93, 278, 241, 74, 37, 35, 25]
36.263[30, 85, 276, 247, 76, 38, 33, 25]
36.277[33, 87, 240, 231, 77, 38, 35, 25]
36.3[32, 81, 218, 208, 70, 38, 32, 24]
36.323[33, 72, 214, 227, 75, 42, 34, 25]
36.337[35, 78, 180, 207, 76, 44, 31, 27]
36.36[36, 72, 189, 199, 72, 40, 30, 25]
36.383[32, 65, 189, 221, 75, 40, 29, 23]
36.397[31, 69, 192, 220, 90, 39, 29, 24]
36.42[28, 68, 196, 191, 82, 35, 26, 24]
36.443[31, 85, 196, 172, 85, 35, 29, 23]
36.457[31, 95, 211, 183, 91, 36, 30, 26]
36.48[33, 97, 222, 153, 87, 40, 29, 27]
36.503[35, 123, 228, 190, 82, 38, 29, 26]
36.517[39, 137, 263, 299, 94, 44, 30, 26]
36.54[36, 132, 286, 341, 97, 45, 31, 25]
36.563[37, 125, 280, 349, 96, 50, 31, 24]
36.586[39, 128, 283, 381, 104, 50, 35, 25]
36.6[41, 122, 270, 369, 101, 53, 38, 28]
36.623[39, 108, 258, 304, 98, 50, 38, 26]
36.646[43, 113, 214, 296, 107, 55, 37, 29]
36.66[43, 113, 201, 296, 105, 53, 35, 27]
36.683[45, 114, 201, 271, 102, 52, 34, 29]
36.706[41, 106, 211, 274, 105, 50, 31, 27]
36.72[43, 114, 183, 257, 109, 53, 33, 29]
36.743[40, 99, 204, 228, 97, 52, 33, 27]
36.766[39, 97, 207, 221, 94, 50, 33, 30]
36.78[37, 96, 185, 200, 87, 50, 32, 28]
36.811[36, 81, 181, 207, 79, 48, 31, 28]
36.826[39, 94, 219, 255, 71, 48, 29, 27]
36.84[37, 96, 220, 255, 78, 41, 28, 26]
36.863[36, 96, 220, 278, 79, 41, 27, 25]
36.886[37, 103, 234, 283, 84, 41, 29, 25]
36.9[37, 100, 245, 283, 94, 41, 30, 24]
36.923[35, 91, 206, 238, 98, 44, 31, 26]
36.945[36, 95, 186, 228, 89, 47, 32, 26]
36.96[37, 95, 191, 179, 93, 51, 33, 24]
36.983[36, 91, 200, 198, 91, 49, 33, 25]
37.006[39, 97, 182, 201, 82, 47, 31, 27]
37.02[36, 90, 210, 207, 73, 44, 31, 26]
37.043[36, 83, 206, 204, 73, 40, 33, 27]
37.066[35, 86, 218, 226, 72, 37, 31, 29]
37.08[33, 80, 205, 232, 72, 38, 30, 27]
37.103[29, 72, 201, 215, 69, 37, 32, 26]
37.125[27, 74, 172, 218, 74, 37, 30, 26]
37.14[24, 73, 181, 217, 76, 37, 28, 25]
37.163[25, 69, 168, 209, 76, 37, 30, 25]
37.185[27, 74, 168, 210, 78, 39, 30, 26]
37.2[26, 73, 167, 202, 80, 41, 30, 27]
37.223[32, 75, 168, 189, 81, 41, 34, 31]
37.253[31, 77, 156, 193, 82, 41, 34, 30]
37.26[32, 78, 134, 176, 76, 39, 32, 29]
37.283[32, 76, 147, 154, 72, 36, 32, 28]
37.306[32, 77, 201, 180, 79, 37, 34, 28]
37.32[27, 66, 197, 173, 69, 32, 29, 20]
37.343[32, 80, 194, 193, 73, 35, 32, 23]
37.366[59, 85, 203, 220, 72, 36, 32, 27]
37.38[59, 83, 191, 203, 74, 39, 32, 27]
37.403[60, 102, 154, 238, 79, 39, 31, 29]
37.426[62, 106, 159, 242, 82, 42, 32, 30]
37.44[76, 104, 188, 229, 81, 45, 29, 35]
37.463[62, 99, 175, 218, 85, 46, 29, 32]
37.486[62, 102, 169, 246, 90, 44, 31, 32]
37.5[60, 83, 179, 208, 83, 43, 31, 30]
37.523[60, 82, 207, 228, 88, 40, 31, 31]
37.546[41, 78, 193, 219, 82, 34, 29, 24]
37.568[57, 81, 195, 222, 79, 32, 29, 30]
37.583[60, 83, 205, 194, 71, 34, 30, 30]
37.606[61, 86, 184, 175, 68, 36, 29, 30]
37.628[60, 82, 174, 139, 55, 37, 25, 28]
37.643[60, 83, 186, 139, 61, 41, 26, 28]
37.666[72, 89, 195, 120, 62, 45, 28, 29]
37.688[70, 84, 183, 139, 68, 46, 27, 29]
37.703[73, 86, 183, 145, 80, 47, 29, 30]
37.726[73, 86, 200, 184, 84, 48, 30, 30]
37.748[72, 87, 212, 230, 95, 47, 30, 32]
37.763[44, 85, 220, 247, 99, 48, 30, 26]
37.786[69, 81, 221, 236, 97, 47, 30, 31]
37.808[67, 73, 235, 252, 86, 45, 28, 31]
37.823[68, 73, 208, 230, 84, 45, 28, 32]
37.846[69, 68, 182, 213, 69, 44, 30, 32]
37.868[66, 65, 173, 209, 67, 44, 30, 31]
37.883[42, 64, 181, 208, 66, 46, 29, 26]
37.906[54, 76, 173, 227, 68, 47, 32, 30]
37.928[60, 96, 174, 246, 72, 45, 34, 29]
37.943[62, 94, 176, 225, 77, 46, 36, 30]
37.965[62, 93, 173, 219, 83, 44, 34, 30]
37.988[79, 97, 189, 241, 88, 43, 34, 36]
38.003[70, 90, 192, 204, 89, 39, 31, 32]
38.026[66, 73, 186, 211, 108, 43, 35, 33]
38.049[63, 76, 170, 215, 105, 42, 32, 31]
38.062[65, 90, 164, 203, 101, 42, 31, 34]
38.086[63, 96, 137, 219, 98, 40, 32, 31]
38.108[65, 108, 126, 229, 101, 42, 36, 32]
38.123[63, 105, 124, 198, 77, 37, 31, 30]
38.146[64, 101, 126, 191, 80, 39, 32, 31]
38.168[62, 91, 136, 199, 77, 37, 32, 30]
38.182[40, 83, 145, 157, 80, 37, 32, 26]
38.206[57, 73, 157, 146, 80, 36, 30, 29]
38.228[55, 72, 155, 195, 100, 42, 31, 29]
38.242[63, 104, 206, 250, 103, 43, 33, 31]
38.266[63, 105, 205, 267, 104, 43, 35, 30]
38.288[62, 102, 205, 266, 99, 42, 34, 32]
38.303[47, 112, 190, 263, 101, 46, 34, 30]
38.326[47, 116, 218, 264, 96, 43, 32, 31]
38.347[35, 91, 188, 212, 87, 39, 28, 28]
38.37[68, 91, 184, 192, 87, 39, 29, 35]
38.386[69, 90, 181, 190, 87, 40, 33, 33]
38.407[69, 70, 202, 187, 77, 37, 31, 33]
38.43[70, 77, 169, 161, 63, 34, 32, 32]
38.446[71, 82, 156, 178, 77, 40, 34, 32]
38.467[65, 84, 183, 172, 80, 43, 32, 31]
38.497[64, 84, 184, 180, 79, 42, 28, 30]
38.506[66, 89, 172, 208, 93, 46, 31, 31]
38.527[66, 84, 189, 201, 88, 48, 29, 30]
38.55[65, 82, 197, 234, 89, 49, 29, 32]
38.566[42, 76, 177, 246, 87, 45, 28, 28]
38.587[44, 86, 181, 246, 87, 45, 31, 30]
38.61[59, 82, 183, 242, 75, 40, 28, 31]
38.626[61, 82, 176, 241, 78, 36, 28, 31]
38.647[62, 80, 169, 203, 65, 28, 27, 32]
38.671[62, 81, 161, 192, 67, 30, 28, 32]
38.692[78, 75, 164, 200, 66, 32, 26, 33]
38.707[67, 79, 190, 179, 65, 31, 27, 30]
38.73[64, 80, 190, 179, 60, 33, 27, 31]
38.746[63, 78, 199, 191, 63, 32, 26, 29]
38.767[63, 82, 202, 219, 61, 30, 25, 28]
38.79[61, 82, 202, 202, 56, 31, 24, 29]
38.806[60, 83, 167, 218, 54, 31, 23, 28]
38.827[63, 89, 165, 240, 79, 41, 24, 28]
38.85[64, 95, 147, 239, 81, 42, 25, 29]
38.866[80, 88, 142, 213, 83, 44, 25, 36]
38.887[67, 105, 135, 254, 90, 43, 28, 33]
38.911[65, 103, 140, 243, 96, 45, 28, 33]
38.926[64, 99, 172, 224, 84, 39, 30, 35]
38.948[78, 97, 173, 209, 89, 42, 31, 37]
38.97[66, 112, 177, 213, 89, 42, 33, 30]
38.986[65, 95, 225, 201, 92, 42, 30, 29]
39.007[66, 104, 242, 210, 88, 42, 31, 31]
39.03[84, 104, 218, 219, 90, 40, 34, 35]
39.054[70, 106, 222, 228, 81, 36, 34, 31]
39.068[69, 97, 228, 240, 78, 36, 32, 34]
39.09[68, 102, 206, 233, 74, 37, 34, 32]
39.106[66, 94, 190, 219, 75, 36, 33, 30]
39.127[59, 92, 198, 214, 68, 33, 27, 27]
39.15[60, 91, 220, 211, 67, 37, 27, 30]
39.166[58, 95, 232, 196, 67, 39, 29, 30]
39.187[57, 96, 229, 194, 73, 38, 28, 30]
39.21[77, 94, 250, 242, 73, 40, 30, 35]
39.226[63, 88, 252, 245, 75, 41, 30, 29]
39.248[63, 94, 232, 254, 78, 41, 29, 27]
39.27[62, 84, 218, 275, 77, 36, 26, 24]
39.285[63, 81, 193, 256, 79, 47, 29, 25]
39.307[40, 84, 156, 239, 84, 49, 29, 22]
39.331[41, 91, 147, 232, 86, 51, 28, 24]
39.345[56, 79, 143, 220, 89, 53, 30, 29]
39.367[55, 85, 140, 222, 92, 54, 31, 29]
39.39[60, 87, 175, 241, 86, 44, 31, 32]
39.405[60, 89, 190, 223, 78, 40, 32, 31]
39.427[79, 87, 206, 213, 71, 37, 35, 34]
39.45[67, 96, 250, 223, 71, 37, 33, 31]
39.472[70, 92, 283, 228, 74, 38, 36, 31]
39.487[66, 88, 265, 215, 70, 37, 31, 27]
39.51[66, 93, 267, 234, 83, 40, 30, 27]
39.532[41, 91, 248, 244, 105, 45, 32, 22]
39.547[61, 86, 208, 238, 104, 43, 34, 26]
39.57[60, 86, 158, 206, 97, 42, 31, 27]
39.592[63, 90, 165, 217, 99, 43, 32, 29]
39.607[63, 78, 145, 194, 86, 41, 32, 30]
39.63[61, 69, 144, 174, 57, 34, 27, 29]
39.653[63, 62, 129, 154, 47, 32, 23, 31]
39.667[63, 55, 111, 134, 44, 28, 22, 29]
39.691[60, 33, 76, 90, 31, 25, 20, 30]
39.712[59, 31, 46, 42, 25, 22, 20, 30]
39.727[72, 29, 36, 34, 22, 27, 29, 46]
39.75[54, 28, 30, 33, 22, 27, 31, 44]
39.781[55, 26, 26, 27, 22, 27, 31, 46]
39.787[54, 27, 23, 23, 22, 26, 31, 45]
39.81[52, 27, 20, 21, 22, 24, 30, 44]
39.832[34, 26, 20, 22, 24, 18, 20, 28]
39.847[31, 24, 19, 22, 23, 18, 18, 28]
39.87[27, 24, 19, 22, 22, 17, 19, 24]
39.893[26, 22, 22, 22, 23, 18, 20, 26]
39.907[24, 22, 23, 22, 23, 18, 20, 25]
39.93[23, 23, 21, 22, 22, 18, 21, 25]
39.952[21, 22, 21, 20, 20, 16, 19, 22]
39.975[19, 21, 21, 18, 20, 18, 18, 23]
39.99[17, 21, 22, 20, 20, 17, 19, 18]
40.012[17, 19, 22, 19, 18, 18, 19, 19]
40.027[19, 20, 23, 19, 19, 19, 20, 18]
40.058[19, 20, 23, 19, 20, 20, 23, 19]
40.072[19, 21, 22, 19, 20, 19, 23, 19]
40.088[22, 22, 19, 16, 20, 18, 21, 20]
40.11[22, 22, 19, 16, 20, 18, 21, 19]
40.132[20, 21, 19, 17, 21, 18, 20, 18]
40.147[21, 22, 20, 16, 21, 17, 17, 17]
40.17[21, 23, 20, 18, 20, 17, 18, 17]
40.192[20, 23, 19, 18, 21, 17, 17, 17]
40.207[19, 23, 20, 20, 22, 18, 17, 18]
40.23[20, 23, 21, 18, 20, 18, 18, 22]
40.253[19, 22, 21, 19, 20, 19, 18, 25]
40.267[18, 21, 21, 18, 20, 20, 17, 24]
40.29[19, 20, 21, 20, 20, 21, 18, 24]
40.313[20, 22, 20, 18, 19, 20, 18, 24]
40.327[20, 20, 20, 18, 19, 19, 17, 21]
40.35[21, 22, 20, 18, 19, 18, 17, 18]
40.373[20, 22, 19, 18, 18, 16, 16, 19]
40.387[19, 24, 20, 16, 18, 15, 16, 19]
40.41[17, 22, 19, 17, 21, 16, 16, 18]
40.433[17, 24, 21, 18, 20, 17, 17, 17]
40.455[16, 23, 20, 19, 21, 17, 16, 19]
40.47[18, 22, 21, 20, 21, 17, 19, 17]
40.501[17, 20, 21, 23, 21, 17, 19, 16]
40.515[17, 20, 20, 24, 19, 18, 18, 15]
40.53[19, 20, 19, 24, 20, 18, 18, 18]
40.553[19, 20, 19, 23, 20, 18, 19, 18]
40.575[18, 20, 19, 24, 21, 19, 17, 18]
40.59[19, 21, 20, 22, 21, 20, 17, 19]
40.612[19, 22, 23, 20, 21, 19, 17, 20]
40.635[17, 22, 22, 19, 20, 20, 16, 19]
40.65[16, 23, 23, 18, 21, 20, 17, 20]
40.673[18, 24, 22, 19, 20, 18, 18, 22]
40.695[19, 24, 22, 17, 20, 19, 18, 21]
40.718[20, 21, 21, 17, 20, 20, 19, 22]
40.732[20, 20, 21, 16, 22, 20, 19, 21]
40.755[21, 19, 21, 18, 20, 20, 17, 19]
40.77[21, 18, 22, 19, 23, 20, 16, 18]
40.792[20, 20, 22, 18, 22, 19, 15, 18]
40.815[24, 19, 20, 19, 23, 19, 18, 18]
40.83[24, 20, 20, 20, 19, 17, 17, 18]
40.852[23, 20, 19, 19, 21, 16, 17, 18]
40.875[22, 20, 18, 17, 18, 17, 18, 20]
40.89[23, 21, 18, 18, 19, 18, 19, 21]
40.913[18, 22, 20, 19, 20, 17, 17, 21]
40.935[18, 20, 20, 17, 20, 17, 19, 21]
40.95[20, 21, 21, 17, 19, 19, 19, 22]
40.973[18, 21, 22, 18, 20, 18, 19, 20]
40.995[19, 22, 21, 18, 19, 16, 19, 21]
41.01[19, 22, 20, 18, 20, 17, 18, 19]
41.032[20, 22, 20, 20, 20, 16, 17, 19]
41.055[18, 21, 20, 19, 19, 14, 15, 18]
41.07[21, 23, 18, 21, 22, 14, 18, 19]
41.092[20, 21, 18, 19, 23, 14, 18, 18]
41.115[19, 22, 18, 19, 22, 14, 20, 19]
41.13[18, 22, 17, 19, 24, 15, 22, 18]
41.153[18, 21, 16, 18, 23, 16, 23, 19]
41.176[18, 19, 17, 17, 22, 16, 21, 17]
41.19[19, 21, 17, 19, 21, 17, 21, 19]
41.212[19, 19, 19, 21, 21, 18, 20, 19]
41.235[19, 20, 19, 21, 21, 18, 20, 18]
41.258[20, 22, 20, 21, 23, 18, 21, 17]
41.273[19, 22, 20, 20, 22, 19, 20, 19]
41.296[19, 23, 20, 19, 22, 19, 21, 17]
41.31[19, 23, 18, 18, 21, 19, 20, 17]
41.332[20, 22, 21, 17, 20, 19, 17, 18]
41.355[19, 22, 21, 18, 19, 18, 15, 19]
41.378[20, 22, 21, 19, 18, 17, 17, 18]
41.393[22, 20, 20, 18, 19, 17, 17, 22]
41.416[21, 21, 20, 17, 19, 17, 19, 21]
41.438[21, 22, 19, 17, 19, 17, 20, 22]
41.452[20, 21, 17, 16, 18, 19, 21, 21]
41.476[18, 20, 18, 17, 18, 19, 21, 22]
41.498[16, 20, 19, 19, 18, 19, 19, 21]
41.512[18, 21, 20, 19, 18, 18, 21, 21]
41.535[17, 20, 20, 19, 19, 19, 20, 21]
41.558[17, 19, 22, 20, 19, 17, 19, 21]
41.573[18, 20, 22, 19, 20, 17, 19, 20]
41.597[19, 22, 23, 20, 21, 17, 20, 18]
41.618[17, 21, 23, 19, 22, 18, 17, 17]
41.636[18, 21, 22, 18, 21, 19, 18, 17]
41.657[20, 21, 21, 16, 21, 19, 18, 16]
41.678[19, 20, 21, 18, 22, 19, 18, 18]
41.693[19, 18, 20, 16, 20, 19, 19, 19]
41.716[21, 20, 21, 19, 20, 20, 18, 19]
41.738[21, 19, 21, 21, 21, 20, 18, 19]
41.752[20, 18, 21, 22, 21, 20, 19, 22]
41.776[20, 20, 20, 21, 22, 22, 18, 19]
41.798[20, 19, 20, 22, 22, 22, 17, 19]
41.813[18, 19, 20, 20, 19, 21, 18, 19]
41.836[18, 19, 21, 21, 19, 20, 18, 19]
41.858[19, 20, 21, 21, 18, 20, 19, 17]
41.872[21, 20, 21, 19, 16, 18, 19, 17]
41.896[22, 20, 22, 19, 17, 19, 19, 16]
41.918[22, 20, 21, 20, 18, 18, 18, 16]
41.933[22, 19, 21, 19, 17, 19, 18, 17]
41.955[21, 20, 22, 17, 18, 19, 18, 18]
41.978[20, 19, 24, 19, 18, 20, 17, 19]
41.992[19, 17, 23, 19, 19, 18, 17, 19]
42.016[18, 18, 24, 17, 19, 19, 18, 20]
42.038[18, 19, 24, 18, 18, 18, 20, 21]
42.052[18, 18, 23, 19, 17, 19, 19, 20]
42.076[18, 19, 20, 20, 17, 19, 20, 19]
42.099[19, 20, 21, 20, 17, 19, 20, 20]
42.112[19, 23, 19, 21, 18, 18, 20, 20]
42.136[20, 22, 17, 20, 20, 19, 20, 18]
42.158[20, 23, 19, 19, 21, 18, 21, 18]
42.172[19, 23, 19, 20, 20, 18, 20, 19]
42.195[19, 22, 18, 20, 21, 19, 21, 18]
42.218[19, 19, 21, 20, 20, 21, 20, 16]
42.232[19, 19, 21, 20, 22, 20, 18, 16]
42.255[19, 20, 20, 21, 21, 20, 17, 15]
42.278[18, 19, 20, 22, 21, 21, 18, 16]
42.301[19, 20, 19, 22, 20, 20, 17, 17]
42.316[19, 20, 17, 22, 20, 18, 18, 18]
42.338[22, 20, 17, 23, 17, 18, 19, 19]
42.361[23, 20, 18, 22, 16, 18, 20, 20]
42.375[23, 20, 20, 20, 18, 18, 21, 20]
42.398[22, 19, 21, 19, 20, 18, 21, 21]
42.421[21, 18, 21, 20, 21, 19, 19, 20]
42.443[19, 19, 20, 18, 21, 19, 20, 19]
42.458[17, 18, 20, 19, 20, 18, 21, 18]
42.481[18, 19, 19, 19, 20, 18, 21, 19]
42.496[19, 19, 19, 21, 20, 18, 19, 18]
42.518[20, 19, 18, 19, 18, 17, 20, 19]
42.541[19, 18, 20, 19, 20, 18, 20, 20]
42.556[20, 17, 19, 19, 21, 18, 17, 20]
42.578[21, 18, 20, 20, 19, 17, 19, 18]
42.601[21, 17, 20, 18, 21, 17, 20, 20]
42.617[19, 18, 20, 19, 22, 16, 20, 18]
42.638[19, 19, 19, 19, 21, 16, 19, 18]
42.661[18, 20, 18, 18, 22, 18, 22, 19]
42.676[18, 18, 18, 17, 22, 19, 22, 18]
42.698[17, 20, 18, 18, 19, 19, 22, 18]
42.721[18, 19, 18, 20, 19, 20, 21, 21]
42.743[17, 18, 18, 20, 20, 21, 21, 21]
42.758[18, 18, 18, 20, 20, 20, 20, 21]
42.781[17, 20, 20, 20, 21, 19, 18, 22]
42.795[16, 19, 22, 18, 22, 19, 18, 21]
42.818[18, 19, 22, 16, 23, 18, 17, 19]
42.841[18, 20, 22, 17, 21, 18, 18, 19]
42.855[18, 20, 23, 18, 21, 18, 16, 18]
42.879[17, 19, 21, 19, 21, 18, 18, 16]
42.901[19, 19, 20, 17, 21, 19, 17, 18]
42.915[18, 20, 20, 17, 20, 19, 20, 18]
42.939[18, 22, 19, 16, 20, 19, 20, 16]
42.962[18, 23, 19, 14, 20, 20, 21, 18]
42.975[19, 23, 21, 16, 22, 20, 19, 18]
42.998[18, 23, 20, 18, 21, 19, 19, 16]
43.021[18, 23, 21, 19, 21, 21, 18, 16]
43.035[21, 21, 21, 20, 21, 20, 16, 19]
43.058[20, 20, 21, 21, 21, 19, 17, 18]
43.081[19, 20, 20, 20, 19, 19, 19, 20]
43.095[19, 21, 19, 20, 20, 17, 19, 20]
43.118[18, 22, 19, 20, 19, 16, 19, 19]
43.141[16, 22, 17, 19, 20, 17, 18, 18]
43.155[21, 22, 20, 19, 22, 19, 17, 19]
43.178[20, 21, 21, 18, 22, 19, 18, 16]
43.201[21, 21, 21, 17, 22, 19, 18, 18]
43.215[20, 20, 23, 19, 22, 20, 19, 19]
43.238[20, 20, 25, 19, 22, 20, 20, 18]
43.261[16, 19, 23, 19, 22, 20, 20, 19]
43.283[18, 21, 22, 21, 21, 20, 19, 22]
43.298[18, 19, 21, 21, 21, 21, 17, 21]
43.321[21, 19, 19, 20, 21, 20, 18, 22]
43.343[21, 19, 19, 20, 21, 19, 17, 21]
43.359[23, 19, 20, 19, 19, 20, 17, 21]
43.38[21, 17, 21, 18, 19, 19, 18, 19]
43.402[21, 18, 21, 19, 19, 20, 18, 19]
43.419[20, 17, 20, 20, 20, 19, 19, 18]
43.44[18, 18, 20, 20, 20, 19, 18, 18]
43.47[18, 18, 19, 21, 21, 19, 19, 18]
43.479[18, 18, 18, 22, 21, 21, 19, 19]
43.5[17, 18, 19, 21, 22, 21, 20, 19]
43.522[17, 19, 18, 20, 20, 21, 20, 19]
43.539[19, 17, 19, 21, 21, 23, 21, 20]
43.56[18, 18, 19, 21, 19, 21, 19, 21]
43.582[18, 18, 19, 19, 20, 21, 19, 22]
43.599[18, 18, 21, 20, 19, 21, 17, 21]
43.62[20, 17, 21, 21, 20, 20, 16, 20]
43.643[20, 18, 20, 20, 21, 19, 18, 21]
43.659[21, 17, 20, 20, 20, 19, 19, 21]
43.68[23, 18, 21, 22, 20, 17, 20, 19]
43.702[23, 18, 21, 20, 20, 17, 20, 19]
43.719[22, 18, 22, 20, 21, 17, 19, 21]
43.74[20, 18, 22, 19, 20, 16, 18, 19]
43.762[19, 18, 23, 21, 20, 17, 19, 19]
43.779[17, 17, 23, 19, 20, 17, 19, 20]
43.8[16, 18, 21, 20, 21, 16, 18, 19]
43.823[17, 18, 19, 20, 19, 18, 20, 18]
43.839[18, 19, 19, 22, 18, 18, 21, 17]
43.86[17, 21, 18, 21, 18, 18, 19, 17]
43.882[17, 20, 18, 20, 18, 17, 21, 15]
43.899[19, 19, 19, 22, 20, 19, 21, 16]
43.92[18, 21, 20, 23, 19, 18, 21, 19]
43.942[17, 20, 20, 20, 19, 18, 20, 20]
43.959[19, 20, 21, 20, 22, 18, 21, 19]
43.98[21, 20, 20, 20, 21, 19, 19, 21]
44.003[19, 20, 20, 19, 19, 17, 20, 21]
44.019[19, 21, 21, 17, 21, 18, 19, 19]
44.04[22, 22, 22, 19, 21, 18, 19, 18]
44.062[21, 23, 23, 18, 18, 18, 18, 17]
44.085[20, 25, 25, 18, 18, 18, 19, 15]
44.1[20, 26, 24, 19, 19, 21, 17, 15]
44.122[21, 25, 23, 21, 18, 20, 18, 15]
44.139[19, 25, 24, 21, 18, 20, 17, 15]
44.16[19, 26, 23, 22, 18, 20, 17, 14]
44.182[20, 25, 23, 22, 20, 20, 19, 17]
44.205[22, 25, 24, 23, 20, 17, 21, 16]
44.22[23, 23, 24, 21, 19, 18, 21, 17]
44.242[23, 22, 23, 20, 19, 17, 21, 18]
44.265[23, 19, 23, 20, 20, 16, 22, 20]
44.28[22, 22, 26, 23, 19, 17, 19, 18]
44.302[21, 22, 26, 23, 19, 17, 18, 18]
44.327[19, 24, 28, 27, 21, 18, 19, 19]
44.34[18, 24, 28, 27, 20, 19, 19, 19]
44.362[19, 25, 28, 28, 21, 20, 20, 21]
44.385[19, 22, 25, 26, 22, 19, 20, 21]
44.4[19, 21, 25, 25, 21, 22, 20, 20]
44.422[20, 19, 23, 22, 21, 20, 18, 20]
44.445[20, 18, 22, 24, 22, 20, 19, 20]
44.46[18, 17, 20, 21, 20, 19, 19, 17]
44.482[20, 18, 20, 22, 20, 19, 20, 16]
44.505[19, 17, 19, 21, 21, 17, 20, 16]
44.52[18, 18, 19, 21, 20, 18, 20, 16]
44.542[19, 20, 18, 19, 19, 18, 21, 18]
44.565[20, 19, 21, 20, 21, 18, 20, 19]
44.58[19, 21, 22, 22, 20, 19, 20, 22]
44.602[20, 20, 24, 24, 19, 20, 20, 22]
44.625[20, 20, 24, 24, 20, 21, 20, 21]
44.64[19, 20, 24, 25, 21, 21, 19, 19]
44.662[19, 19, 24, 27, 21, 21, 18, 21]
44.685[19, 17, 23, 24, 20, 21, 17, 18]
44.7[18, 18, 20, 21, 20, 20, 16, 18]
44.722[18, 21, 20, 21, 20, 19, 15, 19]
44.745[19, 20, 19, 22, 19, 18, 15, 18]
44.76[20, 20, 17, 21, 18, 17, 16, 20]
44.782[19, 23, 18, 21, 19, 18, 17, 20]
44.805[18, 23, 19, 21, 20, 19, 19, 22]
44.82[18, 21, 19, 21, 20, 20, 18, 21]
44.842[18, 21, 20, 19, 20, 19, 19, 21]
44.865[17, 22, 19, 18, 21, 20, 19, 20]
44.881[19, 19, 20, 19, 20, 19, 18, 20]
44.902[18, 19, 19, 19, 21, 17, 19, 19]
44.925[20, 20, 19, 22, 22, 16, 20, 19]
44.941[20, 20, 21, 22, 22, 16, 19, 19]
44.962[19, 20, 22, 23, 22, 16, 20, 17]
44.985[18, 20, 22, 22, 23, 15, 21, 16]
45.0[21, 20, 22, 21, 22, 17, 21, 18]
45.022[22, 19, 22, 19, 21, 17, 20, 18]
45.045[22, 20, 22, 19, 22, 18, 20, 18]
45.06[23, 20, 21, 17, 22, 19, 20, 19]
45.082[23, 20, 22, 18, 21, 19, 19, 19]
45.105[21, 20, 22, 18, 22, 17, 17, 18]
45.12[19, 21, 22, 19, 21, 18, 17, 19]
45.142[18, 20, 23, 20, 20, 17, 17, 18]
45.165[18, 21, 23, 21, 19, 17, 19, 20]
45.188[18, 22, 20, 19, 19, 20, 18, 19]
45.202[18, 24, 21, 20, 19, 20, 19, 18]
45.225[19, 24, 20, 20, 19, 20, 20, 18]
45.247[20, 23, 21, 18, 19, 20, 19, 18]
45.262[20, 24, 20, 17, 20, 20, 17, 17]
45.285[20, 23, 21, 18, 20, 18, 16, 16]
45.307[20, 21, 20, 19, 19, 17, 18, 16]
45.322[19, 19, 19, 19, 19, 19, 19, 17]
45.345[17, 21, 18, 19, 20, 18, 19, 15]
45.367[17, 19, 19, 18, 18, 18, 21, 18]
45.382[17, 19, 18, 18, 21, 18, 22, 19]
45.413[17, 21, 20, 16, 21, 18, 20, 20]
45.428[20, 20, 21, 15, 21, 17, 22, 19]
45.442[21, 20, 20, 16, 20, 19, 21, 20]
45.465[21, 19, 19, 17, 21, 19, 19, 19]
45.487[21, 19, 20, 20, 19, 20, 19, 20]
45.502[21, 17, 19, 20, 20, 21, 19, 19]
45.526[19, 18, 19, 20, 19, 21, 16, 19]
45.547[19, 19, 19, 20, 19, 20, 19, 19]
45.562[19, 19, 19, 20, 19, 20, 19, 17]
45.585[18, 20, 19, 19, 20, 17, 18, 18]
45.607[18, 19, 20, 19, 19, 15, 19, 21]
45.622[18, 20, 19, 20, 19, 16, 20, 22]
45.646[18, 19, 19, 19, 20, 16, 17, 23]
45.667[18, 20, 19, 19, 19, 17, 17, 24]
45.682[19, 19, 19, 17, 19, 18, 19, 23]
45.705[18, 19, 18, 18, 19, 21, 19, 21]
45.727[19, 18, 18, 19, 20, 19, 18, 22]
45.742[18, 19, 19, 19, 20, 20, 20, 22]
45.765[18, 18, 21, 20, 22, 20, 22, 20]
45.787[19, 18, 21, 21, 23, 19, 20, 20]
45.803[18, 18, 21, 21, 23, 18, 20, 20]
45.825[18, 18, 21, 21, 22, 19, 20, 16]
45.848[20, 20, 22, 20, 23, 18, 17, 16]
45.862[21, 20, 20, 21, 21, 19, 17, 18]
45.885[21, 21, 20, 20, 18, 20, 18, 20]
45.907[21, 22, 18, 19, 18, 20, 19, 20]
45.923[22, 22, 19, 18, 18, 19, 20, 21]
45.945[22, 20, 19, 19, 18, 19, 21, 21]
45.967[22, 19, 17, 19, 18, 17, 20, 21]
45.991[21, 21, 17, 21, 24, 17, 19, 20]
46.005[21, 21, 18, 23, 27, 18, 19, 21]
46.027[20, 20, 18, 23, 27, 19, 19, 21]
46.043[19, 21, 18, 22, 27, 20, 19, 20]
46.065[18, 22, 20, 22, 27, 21, 20, 20]
46.088[19, 18, 21, 19, 23, 21, 19, 18]
46.111[19, 17, 21, 17, 21, 19, 19, 20]
46.125[19, 19, 22, 17, 20, 19, 17, 21]
46.147[19, 19, 24, 17, 20, 20, 17, 22]
46.171[19, 20, 22, 17, 20, 20, 17, 24]
46.186[19, 21, 21, 17, 22, 19, 19, 24]
46.207[19, 22, 20, 16, 20, 20, 18, 23]
46.231[19, 21, 21, 16, 22, 21, 20, 21]
46.245[17, 21, 18, 17, 22, 20, 20, 20]
46.268[17, 20, 20, 16, 23, 20, 19, 18]
46.291[18, 19, 21, 17, 20, 22, 20, 20]
46.305[18, 18, 22, 18, 19, 22, 20, 20]
46.327[18, 18, 21, 20, 19, 20, 19, 19]
46.351[18, 17, 24, 20, 19, 22, 20, 19]
46.365[19, 18, 23, 19, 19, 22, 21, 18]
46.388[19, 17, 23, 19, 20, 20, 21, 18]
46.411[18, 18, 23, 21, 22, 20, 20, 18]
46.425[17, 19, 22, 19, 20, 21, 20, 19]
46.448[19, 18, 21, 19, 20, 17, 18, 18]
46.471[18, 18, 20, 20, 20, 18, 16, 19]
46.485[16, 20, 20, 21, 21, 17, 15, 17]
46.508[17, 20, 20, 18, 19, 16, 18, 21]
46.531[18, 20, 20, 19, 20, 17, 19, 20]
46.545[16, 20, 18, 20, 18, 18, 20, 22]
46.568[16, 21, 18, 18, 19, 17, 20, 21]
46.591[17, 21, 19, 17, 18, 16, 19, 22]
46.605[18, 20, 19, 18, 18, 18, 17, 21]
46.628[17, 20, 20, 19, 19, 18, 18, 22]
46.651[18, 22, 20, 16, 20, 18, 19, 20]
46.665[17, 21, 20, 18, 17, 19, 18, 23]
46.688[17, 19, 21, 17, 18, 19, 19, 21]
46.711[17, 21, 20, 17, 20, 18, 19, 20]
46.725[17, 21, 19, 17, 20, 19, 17, 19]
46.749[17, 20, 19, 19, 21, 18, 19, 20]
46.771[19, 19, 19, 19, 22, 18, 20, 18]
46.785[19, 19, 18, 20, 21, 19, 22, 20]
46.808[19, 19, 20, 20, 20, 20, 22, 22]
46.831[20, 19, 20, 20, 22, 19, 23, 20]
46.845[20, 20, 19, 19, 23, 19, 21, 22]
46.868[18, 20, 21, 20, 24, 18, 21, 24]
46.891[17, 20, 23, 19, 24, 16, 20, 22]
46.906[16, 21, 22, 17, 23, 16, 19, 20]
46.928[16, 21, 25, 19, 23, 16, 20, 20]
46.951[17, 19, 26, 20, 23, 16, 19, 19]
46.965[19, 22, 26, 19, 22, 18, 18, 17]
46.988[19, 23, 26, 19, 22, 19, 18, 19]
47.011[21, 22, 27, 20, 23, 19, 19, 18]
47.034[22, 22, 23, 20, 22, 18, 18, 18]
47.048[22, 21, 24, 18, 19, 17, 18, 18]
47.071[22, 18, 22, 18, 21, 16, 20, 18]
47.094[22, 17, 20, 18, 21, 14, 18, 18]
47.108[22, 18, 20, 17, 21, 16, 18, 19]
47.131[20, 18, 20, 16, 21, 17, 18, 19]
47.153[19, 18, 21, 17, 22, 16, 18, 21]
47.168[18, 20, 20, 18, 20, 18, 18, 21]
47.191[18, 20, 21, 17, 20, 17, 18, 20]
47.213[17, 19, 21, 17, 20, 16, 17, 20]
47.229[19, 19, 22, 16, 19, 17, 20, 19]
47.251[18, 20, 21, 16, 19, 17, 20, 17]
47.274[20, 20, 22, 16, 20, 16, 18, 17]
47.289[19, 20, 21, 16, 19, 17, 20, 18]
47.311[19, 20, 21, 19, 19, 17, 20, 19]
47.333[18, 20, 21, 19, 20, 16, 18, 20]
47.348[20, 20, 21, 20, 20, 18, 18, 21]
47.371[19, 19, 22, 19, 20, 18, 17, 22]
47.393[19, 19, 23, 19, 22, 18, 17, 22]
47.408[19, 19, 21, 19, 23, 19, 16, 22]
47.431[18, 20, 21, 18, 22, 19, 17, 21]
47.453[18, 19, 22, 16, 22, 18, 17, 21]
47.468[17, 19, 19, 18, 22, 19, 18, 19]
47.491[16, 19, 19, 17, 20, 18, 18, 19]
47.513[18, 19, 20, 15, 20, 19, 18, 20]
47.527[20, 19, 20, 17, 20, 19, 17, 21]
47.551[20, 19, 20, 18, 20, 19, 19, 20]
47.573[21, 18, 20, 17, 20, 19, 19, 19]
47.588[23, 18, 20, 18, 19, 19, 18, 18]
47.611[22, 17, 20, 18, 18, 19, 19, 18]
47.633[20, 17, 20, 18, 16, 17, 20, 16]
47.647[20, 20, 20, 17, 17, 19, 19, 17]
47.671[20, 21, 21, 18, 18, 20, 19, 16]
47.693[17, 22, 21, 18, 19, 20, 19, 15]
47.707[17, 22, 20, 19, 19, 19, 20, 17]
47.731[18, 21, 19, 18, 20, 19, 19, 17]
47.753[17, 20, 20, 20, 20, 17, 19, 19]
47.767[16, 18, 18, 19, 19, 16, 18, 20]
47.791[16, 19, 20, 19, 19, 16, 18, 20]
47.813[18, 20, 22, 19, 18, 15, 18, 20]
47.827[16, 21, 22, 18, 18, 16, 17, 19]
47.851[17, 21, 22, 19, 18, 17, 18, 16]
47.873[18, 22, 22, 21, 20, 17, 18, 17]
47.887[19, 21, 22, 22, 21, 18, 19, 18]
47.911[18, 19, 21, 22, 21, 19, 20, 16]
47.933[19, 20, 21, 22, 21, 20, 19, 17]
47.947[18, 18, 22, 21, 21, 19, 19, 19]
47.971[19, 18, 24, 20, 20, 20, 19, 18]
47.994[18, 18, 22, 18, 19, 21, 17, 17]
48.016[17, 22, 22, 18, 21, 22, 15, 18]
48.031[17, 21, 24, 18, 20, 22, 17, 19]
48.054[18, 21, 22, 18, 22, 23, 16, 19]
48.076[18, 22, 21, 17, 22, 22, 18, 20]
48.091[18, 22, 22, 18, 22, 22, 18, 20]
48.113[19, 18, 22, 18, 24, 21, 20, 20]
48.135[19, 19, 18, 19, 24, 19, 21, 21]
48.151[19, 19, 18, 20, 22, 19, 21, 20]
48.173[18, 19, 18, 20, 22, 18, 21, 20]
48.196[19, 19, 17, 19, 21, 18, 21, 18]
48.211[20, 19, 18, 20, 18, 17, 20, 18]
48.233[19, 20, 20, 18, 18, 18, 19, 18]
48.256[21, 20, 19, 18, 18, 19, 20, 16]
48.271[20, 19, 18, 19, 18, 20, 18, 19]
48.293[20, 20, 19, 19, 18, 19, 17, 20]
48.316[21, 20, 21, 18, 19, 21, 18, 19]
48.331[22, 17, 19, 19, 20, 20, 19, 19]
48.353[20, 18, 21, 19, 20, 17, 17, 19]
48.375[21, 19, 21, 18, 21, 16, 17, 16]
48.391[20, 19, 21, 20, 19, 19, 19, 17]
48.415[18, 18, 19, 20, 21, 17, 18, 18]
48.435[20, 20, 21, 21, 20, 18, 17, 18]
48.451[18, 18, 19, 19, 19, 21, 18, 18]
48.474[19, 18, 18, 19, 18, 21, 19, 18]
48.495[19, 18, 18, 18, 20, 19, 18, 18]
48.512[21, 18, 19, 18, 19, 19, 19, 18]
48.534[19, 18, 16, 18, 19, 19, 22, 18]
48.555[19, 18, 19, 19, 19, 17, 21, 19]
48.572[18, 19, 19, 19, 20, 19, 22, 19]
48.593[19, 20, 22, 18, 18, 20, 22, 20]
48.615[16, 20, 23, 21, 17, 20, 21, 19]
48.632[18, 20, 31, 23, 19, 18, 20, 18]
48.653[18, 21, 32, 23, 19, 18, 19, 18]
48.675[20, 20, 33, 23, 19, 17, 17, 22]
48.691[19, 19, 31, 22, 21, 18, 17, 22]
48.713[19, 19, 30, 20, 22, 20, 19, 21]
48.735[18, 18, 23, 17, 21, 22, 18, 22]
48.751[18, 21, 20, 16, 21, 23, 18, 22]
48.773[19, 21, 20, 17, 21, 21, 20, 19]
48.795[18, 22, 20, 24, 18, 20, 19, 19]
48.812[20, 22, 24, 26, 18, 20, 17, 19]
48.833[22, 21, 24, 27, 19, 19, 17, 20]
48.855[21, 16, 23, 28, 19, 17, 18, 19]
48.871[20, 20, 23, 28, 19, 18, 16, 18]
48.893[21, 19, 23, 23, 19, 22, 15, 17]
48.915[20, 19, 20, 22, 19, 24, 15, 17]
48.938[18, 20, 20, 20, 18, 23, 15, 16]
48.952[17, 21, 20, 19, 17, 25, 16, 16]
48.975[18, 18, 20, 20, 17, 26, 16, 17]
48.998[17, 19, 20, 20, 18, 22, 17, 19]
49.012[17, 19, 19, 21, 19, 19, 19, 19]
49.035[16, 19, 19, 21, 20, 18, 19, 19]
49.057[16, 18, 20, 24, 21, 17, 18, 19]
49.073[15, 19, 21, 24, 23, 18, 20, 21]
49.096[17, 19, 21, 23, 21, 15, 20, 19]
49.118[17, 20, 20, 21, 21, 19, 20, 19]
49.133[17, 21, 19, 21, 20, 22, 21, 19]
49.155[17, 22, 19, 18, 19, 27, 21, 21]
49.177[18, 23, 18, 16, 17, 28, 19, 19]
49.193[15, 22, 19, 17, 18, 28, 18, 20]
49.215[17, 22, 21, 17, 19, 27, 17, 21]
49.237[17, 21, 21, 16, 18, 26, 17, 21]
49.253[20, 22, 22, 17, 19, 20, 18, 19]
49.275[20, 24, 22, 16, 19, 18, 16, 20]
49.298[20, 23, 21, 16, 19, 19, 17, 18]
49.313[18, 23, 23, 18, 19, 19, 17, 16]
49.335[19, 21, 23, 19, 19, 19, 15, 15]
49.358[17, 21, 21, 20, 20, 21, 14, 18]
49.38[17, 19, 21, 20, 20, 21, 16, 18]
49.395[20, 22, 21, 20, 19, 22, 18, 18]
49.417[20, 24, 19, 19, 20, 21, 20, 20]
49.433[19, 25, 19, 20, 19, 19, 22, 21]
49.455[19, 23, 22, 19, 18, 18, 22, 18]
49.477[19, 24, 23, 20, 18, 19, 22, 18]
49.493[19, 22, 22, 19, 18, 19, 21, 21]
49.515[19, 21, 24, 18, 17, 19, 19, 19]
49.538[19, 23, 23, 18, 17, 18, 17, 18]
49.553[19, 23, 21, 18, 18, 19, 16, 21]
49.575[19, 21, 19, 17, 18, 17, 17, 21]
49.598[18, 23, 19, 17, 18, 16, 18, 20]
49.613[18, 22, 16, 18, 17, 17, 17, 21]
49.635[19, 19, 18, 18, 18, 18, 20, 20]
49.659[18, 19, 20, 19, 19, 19, 19, 18]
49.673[18, 19, 21, 20, 20, 20, 19, 19]
49.695[17, 18, 21, 21, 19, 19, 20, 19]
49.718[18, 19, 22, 20, 20, 20, 20, 18]
49.733[17, 19, 20, 19, 21, 19, 19, 19]
49.755[18, 20, 19, 21, 20, 17, 20, 20]
49.778[19, 20, 18, 20, 19, 16, 21, 18]
49.793[19, 19, 18, 19, 18, 16, 19, 19]
49.815[19, 19, 20, 20, 20, 17, 20, 20]
49.838[18, 20, 21, 21, 21, 17, 19, 20]
49.853[18, 19, 21, 18, 22, 18, 18, 20]
49.875[17, 19, 21, 18, 23, 19, 17, 19]
49.898[16, 22, 23, 19, 23, 21, 19, 18]
49.92[15, 22, 20, 19, 23, 20, 19, 17]
49.935[17, 22, 21, 17, 21, 19, 19, 16]
49.958[16, 22, 21, 17, 20, 20, 19, 16]
49.98[17, 23, 21, 18, 21, 20, 19, 18]
49.995[19, 20, 22, 19, 23, 19, 17, 18]
50.018[19, 21, 23, 19, 23, 17, 17, 19]
50.04[20, 21, 21, 20, 23, 20, 18, 19]
50.055[20, 20, 21, 20, 21, 19, 19, 18]
50.078[19, 20, 22, 23, 20, 20, 20, 17]
50.1[17, 22, 21, 21, 20, 20, 20, 17]
50.115[19, 22, 23, 21, 21, 20, 18, 16]
50.138[18, 22, 23, 21, 21, 19, 21, 18]
50.16[20, 23, 25, 21, 22, 20, 19, 17]
50.176[19, 24, 25, 18, 22, 19, 18, 18]
50.198[20, 25, 25, 21, 21, 19, 18, 17]
50.22[19, 23, 23, 20, 20, 18, 20, 19]
50.235[18, 22, 22, 20, 21, 18, 17, 18]
50.257[18, 21, 20, 19, 21, 18, 19, 18]
50.281[19, 21, 21, 21, 21, 18, 19, 18]
50.295[19, 19, 21, 21, 22, 19, 19, 19]
50.317[19, 19, 23, 21, 22, 20, 18, 17]
50.34[19, 19, 24, 20, 22, 21, 18, 21]
50.355[19, 19, 25, 21, 25, 22, 18, 21]
50.378[20, 19, 25, 20, 24, 22, 19, 22]
50.4[18, 17, 24, 17, 25, 21, 19, 21]
50.415[18, 17, 23, 15, 24, 24, 19, 21]
50.438[18, 20, 21, 17, 25, 23, 19, 17]
50.46[18, 22, 21, 16, 22, 23, 17, 20]
50.475[17, 21, 21, 18, 23, 23, 17, 19]
50.498[18, 21, 22, 17, 23, 23, 17, 19]
50.52[18, 21, 23, 19, 22, 19, 17, 20]
50.535