[27, 27, 30, 23, 26, 30, 30, 25]
0.545[28, 32, 32, 23, 30, 28, 29, 29]
0.569[26, 30, 30, 23, 29, 28, 27, 28]
0.591[25, 29, 31, 23, 31, 30, 27, 31]
0.607[26, 31, 29, 20, 29, 25, 23, 30]
0.628[23, 31, 24, 21, 28, 25, 24, 31]
0.652[23, 27, 23, 22, 26, 26, 25, 29]
0.669[21, 29, 22, 21, 25, 26, 26, 32]
0.688[22, 32, 21, 23, 23, 25, 26, 30]
0.711[20, 28, 21, 24, 22, 27, 26, 28]
0.726[19, 27, 24, 24, 23, 29, 23, 25]
0.748[18, 26, 24, 24, 23, 30, 23, 26]
0.771[21, 26, 25, 25, 24, 30, 23, 23]
0.786[21, 22, 26, 23, 24, 29, 24, 21]
0.808[22, 26, 25, 23, 22, 27, 24, 22]
0.831[20, 24, 21, 21, 20, 24, 24, 23]
0.846[22, 23, 22, 21, 22, 25, 21, 23]
0.869[21, 23, 24, 25, 25, 36, 26, 25]
0.891[20, 25, 26, 26, 27, 43, 26, 26]
0.906[20, 21, 27, 24, 26, 43, 30, 26]
0.929[20, 23, 27, 26, 27, 43, 31, 26]
0.951[19, 26, 26, 26, 25, 44, 30, 27]
0.966[18, 26, 24, 21, 20, 37, 27, 25]
0.988[18, 26, 21, 21, 18, 31, 28, 26]
1.011[18, 26, 22, 22, 20, 29, 23, 29]
1.026[18, 24, 24, 22, 19, 29, 24, 30]
1.048[17, 26, 25, 23, 19, 25, 30, 28]
1.071[19, 22, 25, 23, 21, 23, 30, 29]
1.086[22, 22, 25, 22, 22, 21, 28, 27]
1.109[23, 24, 23, 22, 19, 26, 26, 26]
1.131[23, 25, 21, 21, 21, 30, 25, 23]
1.146[25, 20, 20, 19, 24, 32, 21, 26]
1.168[24, 24, 22, 20, 23, 32, 20, 26]
1.192[21, 23, 22, 21, 21, 34, 22, 28]
1.206[21, 22, 23, 22, 25, 32, 24, 26]
1.229[21, 25, 22, 23, 24, 39, 26, 27]
1.252[18, 25, 23, 25, 22, 41, 26, 23]
1.266[22, 24, 20, 24, 22, 45, 26, 24]
1.289[22, 26, 20, 24, 23, 44, 27, 23]
1.312[22, 25, 22, 24, 20, 43, 27, 24]
1.326[22, 24, 24, 23, 20, 33, 24, 26]
1.349[22, 26, 21, 22, 19, 31, 25, 25]
1.372[20, 24, 24, 23, 20, 30, 27, 27]
1.395[20, 25, 23, 22, 21, 30, 26, 27]
1.409[20, 28, 20, 21, 22, 31, 27, 25]
1.432[19, 27, 21, 23, 21, 31, 27, 26]
1.454[20, 28, 21, 22, 21, 30, 27, 28]
1.477[20, 29, 21, 22, 22, 26, 25, 25]
1.491[19, 27, 21, 22, 19, 25, 24, 27]
1.514[19, 25, 23, 27, 18, 29, 23, 27]
1.537[19, 28, 22, 29, 20, 30, 24, 24]
1.551[20, 26, 22, 30, 21, 30, 27, 22]
1.575[17, 26, 21, 30, 21, 32, 25, 22]
1.597[19, 26, 19, 30, 22, 31, 25, 22]
1.611[20, 26, 19, 29, 23, 27, 24, 23]
1.634[22, 25, 22, 25, 23, 28, 25, 23]
1.657[22, 25, 22, 22, 23, 29, 23, 25]
1.671[24, 24, 22, 23, 21, 28, 24, 26]
1.694[23, 25, 23, 25, 22, 30, 23, 23]
1.717[24, 25, 24, 22, 21, 30, 22, 23]
1.731[22, 24, 20, 23, 21, 36, 21, 23]
1.754[21, 27, 21, 25, 23, 36, 19, 20]
1.777[20, 27, 23, 25, 22, 37, 21, 22]
1.79[21, 25, 21, 22, 22, 37, 21, 21]
1.814[22, 25, 21, 21, 21, 37, 26, 23]
1.836[23, 24, 22, 20, 24, 33, 25, 22]
1.85[23, 24, 24, 22, 22, 32, 26, 25]
1.873[22, 25, 21, 22, 23, 31, 25, 23]
1.896[22, 30, 22, 22, 24, 28, 25, 25]
1.919[18, 29, 22, 23, 24, 31, 24, 23]
1.934[18, 27, 22, 23, 23, 29, 24, 24]
1.956[18, 25, 21, 20, 24, 27, 27, 22]
1.978[17, 27, 21, 19, 24, 30, 26, 23]
1.994[17, 22, 23, 22, 23, 36, 27, 23]
2.016[17, 22, 23, 22, 22, 31, 25, 24]
2.039[17, 23, 23, 24, 20, 30, 25, 24]
2.054[18, 25, 25, 23, 20, 30, 21, 26]
2.076[19, 22, 26, 23, 21, 28, 22, 25]
2.099[18, 23, 26, 22, 21, 22, 22, 23]
2.114[19, 23, 25, 22, 22, 24, 22, 23]
2.136[20, 26, 27, 20, 25, 25, 23, 24]
2.159[20, 24, 24, 19, 24, 28, 23, 22]
2.174[20, 24, 25, 20, 24, 26, 24, 21]
2.196[20, 23, 23, 21, 22, 26, 23, 21]
2.219[21, 28, 26, 20, 22, 25, 22, 22]
2.234[22, 27, 24, 20, 21, 26, 24, 22]
2.256[23, 25, 25, 21, 21, 26, 25, 26]
2.279[24, 26, 22, 20, 22, 25, 25, 27]
2.294[24, 28, 25, 21, 23, 26, 23, 26]
2.316[24, 21, 23, 19, 23, 27, 23, 27]
2.338[22, 21, 25, 23, 23, 25, 22, 27]
2.354[20, 21, 24, 24, 23, 26, 22, 22]
2.376[18, 21, 26, 24, 23, 26, 22, 46]
2.398[21, 22, 24, 24, 23, 25, 27, 53]
2.413[20, 23, 24, 25, 23, 24, 28, 53]
2.436[21, 24, 24, 22, 22, 25, 27, 55]
2.459[22, 25, 24, 21, 22, 24, 28, 55]
2.48[22, 25, 24, 21, 23, 24, 27, 37]
2.498[19, 23, 24, 20, 21, 27, 23, 29]
2.518[21, 23, 24, 22, 22, 28, 24, 28]
2.54[18, 24, 21, 22, 22, 26, 27, 30]
2.557[17, 25, 21, 21, 22, 25, 26, 37]
2.578[17, 25, 20, 21, 23, 24, 27, 38]
2.6[18, 25, 21, 22, 25, 23, 26, 37]
2.617[18, 25, 22, 23, 24, 23, 24, 37]
2.638[20, 22, 21, 23, 23, 25, 27, 33]
2.66[22, 22, 21, 24, 23, 24, 28, 27]
2.677[22, 24, 21, 24, 21, 26, 27, 25]
2.698[23, 23, 20, 23, 21, 25, 26, 25]
2.715[22, 25, 18, 23, 21, 22, 27, 24]
2.737[23, 24, 21, 24, 22, 21, 27, 25]
2.758[21, 26, 20, 24, 21, 20, 25, 22]
2.774[21, 23, 23, 24, 20, 23, 26, 21]
2.797[20, 24, 23, 23, 20, 23, 25, 21]
2.818[20, 20, 25, 21, 20, 25, 27, 24]
2.84[19, 22, 24, 20, 19, 24, 20, 23]
2.857[19, 20, 24, 19, 20, 26, 21, 23]
2.878[20, 21, 23, 17, 20, 21, 22, 23]
2.901[20, 24, 24, 20, 20, 19, 23, 23]
2.917[19, 24, 23, 21, 23, 19, 23, 20]
2.938[20, 25, 23, 22, 25, 20, 22, 20]
2.96[20, 27, 22, 23, 27, 17, 26, 25]
2.977[21, 27, 22, 22, 29, 18, 31, 30]
2.998[21, 24, 23, 21, 27, 21, 31, 30]
3.02[21, 26, 22, 20, 27, 20, 29, 31]
3.035[21, 22, 24, 19, 25, 21, 31, 31]
3.058[23, 20, 24, 19, 23, 24, 29, 32]
3.08[21, 20, 24, 20, 24, 23, 23, 27]
3.095[19, 20, 22, 20, 24, 23, 24, 26]
3.118[23, 19, 24, 21, 22, 22, 28, 26]
3.14[23, 19, 22, 22, 23, 22, 27, 27]
3.155[21, 22, 24, 20, 23, 21, 26, 22]
3.178[22, 24, 23, 20, 20, 21, 27, 25]
3.2[23, 23, 21, 19, 21, 21, 26, 27]
3.215[20, 25, 21, 22, 22, 22, 23, 25]
3.238[21, 25, 19, 21, 21, 21, 23, 30]
3.26[22, 24, 17, 22, 20, 20, 23, 30]
3.275[22, 22, 21, 24, 19, 21, 23, 28]
3.298[21, 23, 22, 24, 18, 21, 23, 27]
3.32[20, 24, 22, 21, 19, 21, 25, 27]
3.335[19, 24, 24, 20, 18, 21, 23, 19]
3.358[19, 23, 23, 22, 22, 21, 23, 20]
3.382[20, 24, 21, 20, 22, 22, 22, 21]
3.396[21, 25, 21, 21, 22, 22, 26, 21]
3.418[22, 22, 22, 23, 20, 22, 26, 22]
3.44[20, 22, 20, 22, 25, 22, 26, 24]
3.463[21, 22, 22, 20, 22, 22, 25, 24]
3.478[23, 22, 20, 22, 23, 21, 25, 25]
3.5[22, 21, 19, 20, 24, 19, 23, 26]
3.515[22, 23, 21, 39, 25, 20, 19, 25]
3.538[23, 22, 22, 41, 21, 19, 19, 24]
3.56[24, 23, 25, 44, 21, 21, 20, 27]
3.576[22, 29, 24, 44, 20, 21, 19, 26]
3.598[22, 28, 24, 44, 20, 24, 18, 24]
3.62[20, 27, 22, 28, 19, 24, 19, 24]
3.635[20, 27, 22, 26, 21, 24, 23, 29]
3.658[20, 28, 19, 23, 21, 21, 23, 25]
3.68[20, 20, 21, 22, 23, 21, 25, 24]
3.695[18, 24, 20, 22, 24, 18, 26, 27]
3.718[20, 24, 21, 20, 23, 18, 28, 31]
3.741[21, 25, 21, 22, 23, 19, 24, 28]
3.755[20, 24, 21, 23, 23, 20, 25, 31]
3.778[20, 28, 19, 24, 22, 19, 24, 31]
3.8[21, 25, 20, 24, 20, 20, 23, 29]
3.823[21, 25, 21, 25, 23, 18, 21, 25]
3.838[19, 27, 20, 24, 22, 17, 21, 24]
3.86[20, 26, 21, 23, 20, 16, 20, 21]
3.883[21, 22, 21, 22, 20, 18, 22, 21]
3.898[23, 21, 21, 22, 22, 21, 24, 24]
3.92[24, 23, 21, 22, 22, 20, 23, 23]
3.943[25, 19, 21, 21, 21, 22, 26, 22]
3.959[25, 22, 20, 18, 22, 22, 27, 23]
3.981[23, 24, 20, 17, 22, 22, 25, 24]
4.003[22, 26, 22, 16, 22, 22, 24, 21]
4.018[20, 26, 21, 18, 22, 22, 24, 23]
4.04[22, 25, 21, 20, 21, 21, 22, 23]
4.063[20, 24, 22, 21, 22, 20, 21, 22]
4.078[20, 20, 22, 22, 21, 20, 21, 24]
4.1[19, 21, 21, 23, 20, 18, 19, 24]
4.123[19, 18, 21, 22, 21, 20, 24, 23]
4.138[19, 19, 23, 19, 21, 23, 23, 24]
4.16[18, 19, 21, 18, 21, 24, 23, 25]
4.183[18, 21, 24, 19, 20, 24, 24, 23]
4.198[20, 19, 24, 17, 20, 23, 24, 23]
4.221[20, 21, 22, 19, 20, 22, 18, 20]
4.243[19, 24, 20, 20, 19, 21, 20, 20]
4.258[21, 24, 23, 22, 20, 21, 21, 19]
4.28[20, 24, 20, 20, 21, 21, 20, 19]
4.303[20, 27, 20, 21, 21, 24, 22, 20]
4.318[22, 27, 20, 20, 21, 24, 23, 19]
4.34[19, 25, 21, 20, 21, 23, 22, 19]
4.363[19, 23, 20, 20, 19, 22, 22, 21]
4.386[20, 22, 21, 22, 19, 22, 23, 25]
4.4[20, 22, 22, 22, 21, 21, 24, 23]
4.431[18, 22, 23, 21, 20, 19, 24, 22]
4.438[21, 21, 21, 20, 23, 19, 24, 26]
4.46[20, 23, 22, 22, 23, 20, 24, 27]
4.483[19, 23, 23, 21, 22, 20, 25, 24]
4.498[19, 21, 24, 21, 20, 18, 25, 27]
4.529[19, 20, 22, 20, 23, 17, 24, 28]
4.543[16, 23, 25, 21, 21, 17, 23, 25]
4.558[15, 22, 23, 20, 22, 16, 21, 22]
4.58[16, 24, 21, 20, 24, 22, 22, 25]
4.603[16, 25, 20, 21, 25, 20, 18, 24]
4.618[16, 24, 23, 23, 23, 22, 17, 25]
4.64[17, 22, 20, 22, 24, 22, 22, 27]
4.663[20, 22, 22, 21, 22, 24, 22, 26]
4.678[20, 22, 22, 20, 22, 22, 20, 25]
4.7[21, 22, 22, 21, 21, 24, 22, 25]
4.723[21, 24, 21, 20, 21, 22, 24, 23]
4.746[21, 24, 21, 20, 23, 24, 20, 23]
4.76[19, 25, 19, 21, 26, 24, 19, 23]
4.783[20, 24, 21, 23, 23, 21, 23, 21]
4.806[20, 24, 20, 21, 23, 20, 22, 23]
4.822[21, 23, 18, 21, 23, 20, 22, 23]
4.843[20, 22, 22, 21, 21, 18, 22, 22]
4.874[19, 21, 22, 23, 17, 18, 22, 22]
4.88[20, 23, 21, 21, 19, 18, 24, 24]
4.903[19, 24, 23, 20, 18, 17, 23, 21]
4.926[19, 23, 23, 18, 18, 20, 25, 21]
4.941[20, 24, 20, 19, 19, 20, 26, 21]
4.963[21, 26, 23, 16, 20, 20, 26, 22]
4.986[21, 23, 23, 17, 21, 21, 26, 23]
5.0[21, 23, 23, 19, 20, 21, 26, 22]
5.023[19, 24, 25, 23, 21, 19, 23, 23]
5.046[20, 25, 26, 22, 21, 18, 25, 25]
5.06[21, 23, 24, 25, 20, 19, 24, 23]
5.083[20, 26, 22, 24, 18, 19, 24, 26]
5.107[20, 24, 23, 23, 19, 23, 23, 26]
5.12[21, 26, 21, 21, 18, 22, 24, 29]
5.143[21, 24, 20, 21, 20, 22, 22, 26]
5.166[19, 25, 21, 17, 19, 21, 22, 26]
5.18[20, 25, 22, 20, 20, 25, 20, 26]
5.206[20, 27, 21, 19, 20, 20, 20, 26]
5.226[21, 26, 23, 19, 21, 22, 22, 22]
5.241[21, 28, 24, 19, 19, 24, 25, 24]
5.264[24, 27, 23, 20, 19, 23, 26, 27]
5.286[23, 26, 23, 19, 21, 20, 26, 23]
5.3[22, 27, 22, 19, 21, 21, 26, 23]
5.324[21, 28, 21, 20, 20, 21, 23, 24]
5.346[19, 27, 20, 20, 20, 20, 19, 24]
5.36[19, 42, 22, 20, 23, 21, 21, 21]
5.383[20, 42, 22, 21, 22, 21, 22, 22]
5.406[19, 40, 22, 22, 23, 24, 21, 22]
5.421[18, 38, 23, 20, 22, 22, 22, 22]
5.443[20, 38, 24, 21, 24, 22, 23, 23]
5.466[18, 23, 23, 21, 21, 22, 20, 22]
5.48[18, 23, 23, 20, 20, 24, 19, 22]
5.503[21, 23, 24, 20, 19, 21, 21, 23]
5.526[22, 22, 24, 21, 22, 22, 23, 21]
5.54[20, 25, 22, 20, 19, 21, 22, 21]
5.563[25, 33, 24, 20, 20, 23, 21, 23]
5.586[25, 33, 23, 19, 20, 22, 21, 23]
5.609[23, 35, 23, 20, 20, 22, 22, 23]
5.623[23, 38, 22, 19, 19, 23, 22, 27]
5.646[24, 35, 20, 18, 20, 23, 22, 26]
5.66[20, 29, 19, 19, 22, 21, 22, 28]
5.683[21, 29, 21, 19, 23, 20, 24, 27]
5.706[22, 29, 20, 18, 23, 21, 25, 26]
5.728[21, 26, 24, 19, 23, 20, 24, 25]
5.743[23, 39, 25, 20, 24, 21, 26, 24]
5.766[24, 37, 25, 19, 23, 20, 26, 23]
5.789[24, 38, 24, 21, 22, 20, 23, 23]
5.803[25, 37, 26, 20, 22, 21, 22, 24]
5.826[24, 38, 23, 21, 21, 21, 19, 23]
5.849[21, 26, 23, 20, 21, 21, 17, 23]
5.863[18, 24, 22, 20, 21, 23, 21, 20]
5.886[19, 22, 22, 18, 22, 22, 22, 18]
5.909[17, 21, 21, 18, 22, 23, 21, 17]
5.923[17, 20, 22, 19, 22, 23, 21, 15]
5.946[18, 19, 22, 21, 21, 20, 24, 18]
5.968[18, 23, 22, 21, 21, 21, 21, 21]
5.983[17, 23, 21, 22, 21, 21, 22, 29]
6.006[17, 23, 23, 24, 22, 20, 25, 29]
6.028[18, 22, 23, 22, 22, 23, 26, 30]
6.043[19, 27, 23, 22, 22, 25, 24, 28]
6.067[21, 23, 22, 23, 21, 24, 26, 28]
6.089[20, 23, 22, 23, 20, 24, 24, 21]
6.103[21, 25, 20, 22, 20, 23, 21, 23]
6.126[21, 27, 21, 23, 20, 21, 21, 22]
6.148[20, 25, 20, 20, 22, 20, 22, 25]
6.163[18, 24, 21, 20, 22, 23, 23, 25]
6.186[18, 24, 22, 18, 21, 24, 24, 24]
6.208[19, 23, 22, 19, 21, 23, 24, 23]
6.223[21, 22, 22, 19, 21, 24, 24, 24]
6.246[22, 20, 22, 19, 20, 24, 28, 23]
6.269[22, 21, 21, 21, 21, 21, 25, 21]
6.283[21, 21, 20, 22, 20, 20, 25, 24]
6.306[20, 22, 19, 22, 19, 20, 26, 22]
6.329[18, 22, 17, 20, 18, 20, 27, 23]
6.343[18, 22, 17, 21, 20, 20, 24, 25]
6.366[20, 22, 17, 20, 20, 20, 25, 25]
6.389[21, 24, 21, 20, 20, 18, 23, 24]
6.403[21, 22, 20, 18, 19, 19, 23, 23]
6.426[22, 25, 23, 19, 20, 21, 21, 23]
6.448[22, 26, 22, 20, 19, 20, 20, 22]
6.463[21, 28, 24, 20, 18, 19, 21, 22]
6.486[21, 25, 21, 19, 17, 19, 20, 21]
6.508[22, 26, 22, 18, 17, 19, 20, 22]
6.523[22, 22, 19, 20, 16, 15, 22, 20]
6.546[21, 23, 20, 20, 17, 17, 23, 19]
6.568[21, 19, 20, 19, 18, 18, 22, 19]
6.583[21, 22, 20, 21, 19, 19, 23, 18]
6.606[21, 22, 19, 21, 20, 20, 24, 18]
6.628[20, 24, 21, 20, 20, 21, 22, 20]
6.651[22, 22, 20, 22, 21, 20, 21, 22]
6.666[23, 21, 21, 22, 20, 21, 20, 23]
6.688[22, 19, 21, 22, 20, 21, 20, 23]
6.711[21, 21, 22, 22, 21, 21, 20, 23]
6.726[20, 20, 21, 22, 20, 19, 20, 19]
6.748[19, 20, 21, 19, 21, 23, 20, 20]
6.771[18, 24, 20, 21, 22, 21, 21, 20]
6.786[20, 23, 21, 19, 22, 22, 22, 19]
6.809[19, 23, 19, 20, 22, 20, 23, 20]
6.831[18, 26, 20, 19, 21, 23, 24, 21]
6.846[22, 26, 20, 20, 21, 22, 25, 23]
6.869[23, 35, 20, 17, 22, 22, 24, 22]
6.891[21, 60, 21, 18, 21, 22, 24, 23]
6.906[22, 61, 22, 19, 23, 22, 24, 23]
6.928[23, 61, 24, 19, 24, 22, 24, 23]
6.951[19, 62, 22, 20, 22, 20, 23, 19]
6.966[18, 58, 23, 21, 23, 19, 24, 21]
6.988[22, 45, 22, 21, 23, 21, 23, 20]
7.011[21, 43, 22, 20, 21, 22, 20, 19]
7.026[21, 42, 20, 22, 22, 21, 22, 19]
7.048[21, 42, 23, 21, 23, 21, 23, 27]
7.071[24, 38, 23, 22, 23, 23, 21, 26]
7.086[21, 26, 22, 22, 23, 24, 23, 26]
7.109[23, 25, 22, 21, 23, 24, 23, 27]
7.131[23, 24, 21, 23, 22, 23, 20, 27]
7.145[24, 24, 22, 22, 19, 23, 19, 22]
7.168[22, 23, 21, 21, 19, 22, 20, 21]
7.191[22, 20, 21, 22, 18, 17, 20, 22]
7.205[21, 20, 20, 22, 18, 18, 21, 23]
7.228[23, 23, 24, 19, 18, 19, 22, 29]
7.251[22, 22, 20, 20, 18, 19, 21, 27]
7.275[22, 23, 19, 21, 21, 19, 20, 28]
7.288[22, 23, 21, 20, 21, 20, 18, 27]
7.311[22, 25, 23, 21, 22, 20, 17, 26]
7.325[19, 24, 20, 21, 22, 19, 19, 24]
7.348[21, 24, 23, 21, 23, 18, 20, 24]
7.371[20, 23, 22, 19, 21, 20, 21, 22]
7.386[21, 24, 20, 19, 20, 21, 24, 21]
7.409[21, 23, 21, 19, 18, 20, 23, 25]
7.431[21, 23, 20, 19, 20, 21, 22, 22]
7.446[22, 23, 19, 19, 18, 20, 24, 23]
7.469[21, 24, 21, 19, 17, 20, 24, 24]
7.49[20, 21, 23, 18, 19, 19, 23, 25]
7.513[19, 20, 22, 19, 21, 20, 23, 22]
7.529[19, 20, 24, 17, 19, 23, 22, 25]
7.55[18, 19, 23, 18, 20, 23, 19, 25]
7.573[20, 19, 24, 19, 20, 24, 22, 23]
7.589[20, 19, 21, 21, 18, 23, 22, 24]
7.61[22, 20, 23, 20, 18, 22, 22, 24]
7.633[21, 18, 22, 21, 20, 18, 22, 19]
7.65[20, 22, 23, 21, 20, 20, 23, 20]
7.67[20, 23, 24, 21, 20, 20, 21, 21]
7.693[20, 22, 26, 17, 21, 20, 20, 20]
7.709[22, 21, 24, 18, 22, 20, 20, 21]
7.73[23, 23, 24, 17, 22, 22, 22, 20]
7.753[22, 19, 24, 18, 21, 24, 23, 20]
7.769[20, 19, 23, 18, 22, 21, 23, 20]
7.79[21, 21, 23, 20, 22, 23, 24, 19]
7.813[18, 20, 23, 22, 22, 24, 25, 16]
7.829[17, 19, 22, 22, 22, 23, 23, 17]
7.85[17, 21, 21, 20, 21, 20, 21, 16]
7.874[17, 23, 21, 21, 22, 21, 22, 24]
7.889[18, 21, 20, 22, 21, 21, 21, 25]
7.911[19, 21, 19, 21, 21, 19, 19, 25]
7.933[20, 21, 20, 21, 21, 19, 20, 26]
7.949[20, 22, 20, 21, 22, 19, 20, 26]
7.971[20, 22, 20, 20, 21, 18, 21, 23]
7.993[19, 22, 20, 17, 19, 17, 21, 25]
8.009[17, 21, 21, 20, 21, 18, 21, 25]
8.03[17, 21, 22, 22, 22, 17, 21, 24]
8.053[19, 21, 21, 23, 21, 20, 23, 25]
8.069[19, 21, 20, 24, 22, 20, 22, 22]
8.09[20, 20, 21, 24, 24, 20, 23, 19]
8.112[22, 22, 21, 22, 23, 21, 27, 18]
8.129[21, 25, 20, 20, 23, 22, 26, 19]
8.15[20, 24, 21, 21, 23, 20, 23, 21]
8.173[22, 25, 21, 21, 24, 22, 22, 22]
8.189[22, 24, 21, 23, 24, 23, 21, 24]
8.21[22, 24, 20, 21, 23, 23, 21, 27]
8.233[23, 22, 20, 22, 26, 23, 21, 27]
8.249[24, 21, 22, 21, 26, 22, 23, 25]
8.27[22, 21, 23, 21, 27, 21, 22, 23]
8.293[22, 22, 22, 17, 25, 18, 22, 26]
8.317[20, 22, 22, 17, 25, 20, 16, 22]
8.33[20, 20, 22, 18, 22, 21, 19, 24]
8.353[20, 22, 20, 18, 22, 20, 18, 24]
8.369[20, 22, 21, 18, 22, 20, 23, 25]
8.39[21, 22, 22, 20, 22, 21, 23, 21]
8.413[21, 25, 23, 20, 22, 20, 23, 24]
8.435[20, 25, 22, 19, 22, 20, 23, 21]
8.45[20, 25, 23, 18, 21, 19, 23, 24]
8.473[21, 24, 21, 19, 21, 20, 20, 23]
8.489[19, 23, 22, 19, 20, 20, 23, 23]
8.51[21, 22, 21, 18, 21, 20, 23, 22]
8.533[19, 22, 22, 19, 19, 21, 22, 22]
8.555[21, 21, 20, 19, 20, 23, 25, 20]
8.571[20, 20, 22, 17, 19, 22, 24, 21]
8.594[22, 22, 20, 18, 20, 21, 22, 22]
8.624[21, 22, 18, 19, 19, 19, 23, 22]
8.63[21, 23, 19, 20, 20, 19, 23, 24]
8.661[21, 24, 24, 20, 22, 17, 22, 25]
8.675[21, 24, 22, 20, 21, 18, 21, 25]
8.698[20, 22, 23, 20, 20, 19, 21, 24]
8.713[19, 22, 24, 18, 20, 20, 21, 23]
8.735[20, 24, 24, 17, 20, 19, 20, 23]
8.75[19, 22, 19, 17, 19, 19, 18, 21]
8.781[19, 24, 22, 17, 20, 19, 19, 22]
8.796[19, 26, 22, 17, 21, 18, 19, 24]
8.81[20, 23, 22, 18, 23, 18, 19, 23]
8.833[20, 22, 24, 19, 23, 20, 19, 24]
8.855[19, 23, 26, 16, 22, 21, 20, 24]
8.87[20, 23, 25, 19, 22, 21, 23, 23]
8.893[19, 21, 25, 20, 21, 23, 23, 22]
8.916[18, 24, 23, 20, 19, 22, 23, 23]
8.938[18, 24, 21, 20, 21, 23, 22, 25]
8.953[19, 23, 19, 21, 24, 21, 21, 25]
8.975[17, 22, 18, 18, 24, 22, 19, 26]
8.99[18, 24, 17, 18, 23, 20, 20, 26]
9.013[19, 23, 18, 18, 24, 21, 21, 26]
9.035[19, 23, 18, 18, 24, 19, 22, 24]
9.05[20, 23, 17, 18, 24, 21, 24, 22]
9.073[21, 25, 17, 22, 24, 21, 22, 19]
9.095[21, 22, 19, 19, 25, 21, 25, 21]
9.11[22, 20, 17, 20, 25, 22, 24, 20]
9.134[23, 19, 18, 23, 24, 21, 23, 18]
9.155[21, 24, 19, 25, 19, 20, 23, 19]
9.171[22, 21, 21, 22, 24, 22, 26, 21]
9.193[22, 22, 21, 23, 22, 23, 23, 19]
9.215[21, 24, 23, 24, 21, 23, 25, 23]
9.23[19, 26, 24, 21, 23, 23, 26, 22]
9.253[19, 24, 24, 20, 23, 24, 24, 23]
9.275[19, 24, 23, 19, 19, 23, 21, 21]
9.29[20, 23, 23, 18, 23, 21, 23, 22]
9.313[19, 21, 21, 19, 23, 21, 22, 20]
9.335[20, 21, 19, 19, 21, 19, 24, 22]
9.35[19, 22, 20, 18, 22, 18, 23, 22]
9.373[20, 23, 19, 19, 21, 17, 24, 24]
9.395[20, 23, 17, 21, 18, 17, 22, 23]
9.418[20, 24, 19, 19, 18, 17, 20, 19]
9.433[20, 24, 18, 18, 20, 21, 23, 23]
9.455[20, 22, 18, 19, 23, 21, 24, 23]
9.478[19, 22, 18, 21, 23, 20, 24, 22]
9.493[22, 24, 21, 21, 28, 24, 36, 86]
9.515[41, 40, 39, 67, 170, 42, 90, 222]
9.538[97, 47, 57, 156, 281, 118, 321, 275]
9.553[111, 54, 69, 186, 369, 210, 383, 375]
9.575[116, 58, 73, 193, 384, 227, 392, 417]
9.598[120, 66, 76, 194, 413, 253, 404, 433]
9.613[125, 65, 75, 189, 418, 264, 443, 548]
9.635[103, 105, 71, 141, 454, 305, 493, 603]
9.658[100, 111, 62, 106, 431, 288, 520, 632]
9.674[206, 114, 62, 102, 438, 327, 672, 856]
9.695[212, 115, 59, 103, 434, 324, 699, 862]
9.718[208, 116, 54, 103, 419, 328, 688, 778]
9.733[214, 83, 46, 86, 405, 295, 599, 766]
9.755[237, 77, 53, 86, 421, 321, 705, 774]
9.778[184, 98, 53, 89, 460, 306, 657, 519]
9.793[187, 109, 55, 88, 474, 303, 705, 532]
9.815[201, 117, 55, 85, 487, 314, 738, 624]
9.838[209, 120, 63, 91, 457, 330, 795, 611]
9.853[325, 137, 60, 101, 605, 342, 780, 651]
9.875[338, 134, 59, 94, 612, 348, 756, 657]
9.906[349, 124, 63, 104, 614, 360, 740, 638]
9.913[354, 114, 62, 109, 607, 364, 802, 562]
9.935[355, 112, 61, 119, 604, 346, 793, 537]
9.958[239, 90, 61, 116, 426, 374, 800, 445]
9.973[211, 72, 62, 117, 399, 376, 765, 419]
9.995[209, 67, 57, 110, 379, 375, 735, 432]
10.018[215, 66, 57, 104, 397, 397, 727, 469]
10.034[209, 68, 56, 94, 400, 408, 673, 454]
10.055[236, 79, 51, 91, 392, 370, 597, 449]
10.078[252, 92, 56, 95, 369, 364, 697, 488]
10.093[239, 93, 57, 92, 375, 360, 704, 473]
10.115[214, 92, 54, 86, 336, 322, 602, 412]
10.138[208, 86, 50, 81, 356, 348, 648, 429]
10.153[175, 76, 49, 75, 349, 316, 607, 357]
10.175[128, 55, 40, 77, 333, 290, 526, 341]
10.198[126, 54, 41, 106, 397, 280, 529, 353]
10.213[120, 61, 44, 115, 406, 286, 524, 347]
10.235[152, 73, 43, 113, 356, 220, 446, 394]
10.258[171, 82, 50, 113, 366, 200, 467, 402]
10.273[209, 85, 51, 104, 373, 190, 450, 354]
10.295[245, 100, 50, 84, 333, 183, 400, 337]
10.318[252, 97, 49, 78, 336, 195, 406, 348]
10.333[231, 92, 50, 79, 345, 213, 479, 284]
10.364[215, 88, 45, 84, 355, 257, 441, 292]
10.379[185, 94, 47, 96, 366, 265, 428, 282]
10.393[139, 85, 49, 95, 343, 266, 424, 271]
10.415[158, 88, 47, 90, 341, 238, 412, 276]
10.438[164, 88, 52, 89, 361, 245, 340, 262]
10.461[177, 84, 50, 84, 371, 232, 310, 247]
10.475[214, 80, 47, 72, 364, 224, 256, 262]
10.498[236, 79, 47, 70, 361, 254, 371, 344]
10.521[223, 73, 47, 67, 347, 260, 363, 334]
10.535[216, 84, 50, 90, 330, 236, 354, 350]
10.558[216, 85, 48, 91, 325, 218, 366, 366]
10.581[187, 83, 49, 90, 321, 243, 357, 362]
10.595[152, 79, 47, 89, 313, 229, 255, 327]
10.619[157, 79, 47, 92, 332, 234, 299, 337]
10.641[156, 62, 35, 64, 302, 225, 295, 301]
10.655[141, 59, 37, 58, 255, 218, 296, 320]
10.678[159, 55, 39, 65, 254, 203, 318, 363]
10.701[159, 52, 40, 62, 238, 175, 341, 335]
10.715[150, 58, 38, 58, 199, 155, 317, 325]
10.738[151, 57, 37, 60, 230, 171, 314, 341]
10.761[153, 59, 35, 64, 236, 163, 288, 325]
10.776[161, 58, 32, 56, 219, 152, 278, 300]
10.798[219, 64, 30, 55, 221, 164, 218, 302]
10.821[250, 66, 34, 55, 228, 172, 216, 331]
10.835[253, 67, 37, 53, 227, 163, 242, 318]
10.858[246, 65, 36, 49, 228, 164, 266, 333]
10.881[216, 60, 37, 52, 241, 183, 245, 308]
10.895[199, 60, 38, 53, 233, 179, 246, 303]
10.918[164, 51, 36, 56, 260, 183, 289, 314]
10.941[188, 53, 35, 55, 245, 179, 303, 327]
10.955[208, 53, 37, 55, 236, 175, 306, 316]
10.978[215, 53, 34, 55, 230, 138, 303, 312]
11.001[178, 44, 34, 60, 272, 134, 341, 310]
11.015[182, 43, 35, 67, 258, 125, 306, 331]
11.046[158, 41, 38, 66, 248, 147, 266, 321]
11.061[193, 56, 38, 67, 282, 157, 302, 274]
11.075[188, 56, 37, 62, 282, 180, 312, 313]
11.099[188, 57, 37, 57, 241, 180, 293, 312]
11.121[198, 58, 35, 48, 234, 179, 273, 263]
11.143[217, 63, 35, 54, 235, 164, 291, 264]
11.158[217, 61, 36, 52, 200, 154, 246, 322]
11.181[242, 63, 35, 56, 209, 127, 261, 311]
11.195[243, 61, 38, 58, 204, 131, 253, 300]
11.218[229, 59, 37, 56, 225, 128, 253, 325]
11.243[210, 56, 35, 54, 231, 123, 269, 340]
11.255[158, 45, 33, 53, 254, 126, 284, 297]
11.278[122, 42, 35, 51, 242, 145, 300, 305]
11.301[129, 41, 32, 52, 255, 167, 311, 371]
11.315[125, 45, 33, 52, 241, 164, 340, 358]
11.338[121, 39, 34, 49, 243, 170, 319, 345]
11.361[115, 41, 35, 49, 211, 167, 316, 369]
11.383[114, 41, 33, 54, 212, 155, 331, 363]
11.398[119, 44, 34, 51, 212, 162, 350, 324]
11.421[135, 51, 32, 65, 200, 166, 342, 294]
11.443[139, 51, 29, 68, 216, 164, 359, 321]
11.458[144, 50, 31, 72, 232, 170, 384, 319]
11.481[219, 55, 32, 72, 232, 175, 348, 294]
11.503[233, 67, 32, 81, 230, 144, 321, 338]
11.518[249, 69, 34, 70, 226, 142, 352, 349]
11.541[255, 71, 40, 66, 205, 152, 337, 325]
11.563[275, 70, 35, 62, 200, 146, 276, 324]
11.578[234, 69, 36, 58, 212, 146, 346, 334]
11.601[212, 59, 37, 49, 251, 150, 354, 276]
11.623[203, 55, 39, 50, 322, 187, 327, 256]
11.646[215, 52, 38, 57, 330, 193, 354, 332]
11.669[192, 54, 42, 58, 334, 205, 374, 350]
11.684[172, 52, 44, 60, 331, 198, 322, 359]
11.698[165, 48, 41, 55, 306, 209, 303, 368]
11.721[145, 40, 42, 57, 270, 174, 301, 385]
11.743[140, 48, 41, 57, 277, 161, 269, 333]
11.758[152, 49, 38, 59, 273, 148, 300, 295]
11.788[152, 47, 35, 57, 274, 168, 298, 276]
11.803[170, 47, 35, 56, 297, 177, 296, 252]
11.818[211, 58, 33, 54, 282, 185, 284, 265]
11.841[213, 56, 31, 52, 279, 190, 284, 265]
11.863[217, 57, 32, 50, 290, 190, 289, 258]
11.878[224, 61, 32, 50, 301, 191, 294, 260]
11.901[215, 63, 32, 50, 264, 164, 298, 267]
11.931[187, 56, 35, 52, 253, 163, 301, 231]
11.938[208, 68, 36, 49, 245, 164, 367, 361]
11.961[210, 72, 36, 50, 224, 157, 327, 373]
11.983[223, 70, 36, 50, 216, 141, 303, 368]
11.998[217, 68, 37, 54, 206, 153, 297, 361]
12.021[209, 69, 35, 57, 205, 154, 282, 370]
12.043[175, 56, 34, 60, 216, 140, 196, 245]
12.066[204, 50, 34, 59, 236, 165, 188, 240]
12.081[198, 52, 35, 59, 243, 158, 205, 243]
12.111[209, 52, 36, 56, 247, 147, 217, 238]
12.117[203, 50, 37, 54, 244, 154, 249, 235]
12.141[212, 51, 37, 53, 220, 147, 248, 221]
12.163[193, 58, 37, 57, 205, 130, 258, 246]
12.177[194, 60, 37, 59, 191, 158, 296, 278]
12.201[185, 60, 37, 64, 208, 161, 296, 286]
12.223[191, 61, 38, 69, 217, 157, 268, 282]
12.237[170, 58, 39, 69, 220, 169, 246, 281]
12.261[142, 47, 36, 67, 211, 164, 231, 245]
12.283[150, 49, 37, 65, 206, 143, 261, 265]
12.297[174, 57, 33, 70, 273, 149, 261, 257]
12.321[176, 56, 30, 64, 262, 144, 263, 250]
12.343[185, 57, 30, 61, 298, 135, 286, 262]
12.366[187, 56, 32, 59, 309, 145, 291, 277]
12.388[179, 58, 36, 61, 312, 166, 259, 231]
12.403[199, 50, 37, 47, 251, 158, 245, 228]
12.426[194, 50, 40, 54, 260, 199, 264, 250]
12.441[187, 50, 40, 55, 214, 212, 245, 248]
12.463[186, 49, 40, 58, 239, 213, 243, 228]
12.485[192, 39, 36, 56, 238, 207, 236, 285]
12.502[165, 42, 38, 59, 227, 214, 243, 327]
12.522[176, 42, 34, 52, 235, 183, 249, 320]
12.545[187, 42, 35, 58, 260, 176, 258, 323]
12.562[175, 46, 36, 59, 230, 164, 251, 319]
12.582[152, 44, 33, 58, 255, 154, 235, 314]
12.605[150, 48, 35, 65, 274, 149, 280, 278]
12.622[160, 48, 33, 66, 263, 133, 253, 267]
12.642[146, 47, 30, 60, 243, 127, 242, 246]
12.667[144, 42, 32, 56, 248, 139, 239, 267]
12.681[140, 42, 33, 68, 217, 144, 218, 208]
12.702[129, 39, 30, 64, 194, 141, 176, 229]
12.725[133, 46, 35, 71, 221, 155, 207, 237]
12.741[137, 45, 37, 74, 231, 160, 205, 255]
12.762[141, 48, 34, 73, 220, 156, 218, 228]
12.785[145, 49, 36, 62, 236, 141, 210, 225]
12.801[150, 47, 36, 63, 248, 140, 178, 193]
12.822[139, 43, 33, 60, 227, 134, 243, 282]
12.845[139, 47, 31, 58, 243, 124, 249, 279]
12.861[206, 56, 35, 60, 262, 136, 276, 304]
12.883[214, 54, 32, 65, 252, 138, 290, 310]
12.905[204, 54, 33, 61, 253, 140, 296, 319]
12.921[190, 50, 32, 57, 255, 129, 245, 242]
12.944[185, 45, 32, 65, 239, 150, 270, 228]
12.965[149, 45, 30, 69, 238, 157, 246, 238]
12.982[150, 52, 34, 70, 257, 154, 241, 222]
13.004[157, 50, 33, 71, 271, 149, 241, 210]
13.025[165, 50, 32, 72, 286, 159, 229, 241]
13.041[175, 51, 34, 67, 305, 178, 227, 264]
13.063[166, 43, 33, 61, 303, 164, 209, 237]
13.085[165, 38, 30, 59, 292, 178, 212, 273]
13.102[170, 39, 28, 55, 296, 182, 232, 274]
13.122[166, 40, 31, 53, 275, 187, 223, 271]
13.145[156, 38, 31, 61, 247, 150, 191, 271]
13.162[164, 47, 31, 62, 246, 150, 238, 270]
13.19[173, 60, 32, 57, 252, 150, 302, 312]
13.205[192, 61, 33, 59, 264, 188, 323, 320]
13.221[194, 62, 31, 66, 272, 180, 322, 301]
13.242[192, 62, 30, 59, 271, 179, 325, 286]
13.265[163, 56, 30, 68, 298, 185, 343, 308]
13.287[163, 57, 30, 74, 296, 185, 298, 252]
13.302[127, 59, 27, 73, 266, 149, 269, 272]
13.325[122, 62, 32, 68, 258, 145, 298, 278]
13.349[139, 62, 36, 70, 283, 146, 307, 310]
13.363[156, 60, 38, 60, 239, 147, 249, 308]
13.385[137, 48, 38, 52, 265, 143, 248, 290]
13.407[151, 42, 39, 52, 253, 134, 239, 258]
13.423[157, 36, 34, 49, 263, 134, 197, 269]
13.445[147, 36, 28, 44, 241, 132, 185, 239]
13.468[127, 41, 31, 49, 242, 153, 184, 208]
13.483[155, 41, 29, 64, 208, 152, 174, 234]
13.505[145, 42, 30, 65, 228, 164, 170, 237]
13.527[143, 45, 34, 65, 219, 195, 168, 207]
13.543[183, 53, 35, 63, 221, 202, 161, 187]
13.565[199, 51, 34, 60, 224, 182, 163, 179]
13.587[194, 52, 36, 45, 249, 175, 152, 214]
13.603[197, 53, 36, 51, 240, 185, 174, 245]
13.625[193, 53, 35, 51, 228, 153, 170, 247]
13.647[154, 47, 36, 52, 241, 154, 209, 300]
13.663[130, 57, 36, 51, 236, 154, 215, 300]
13.685[116, 59, 33, 51, 184, 177, 243, 291]
13.707[115, 64, 32, 43, 171, 153, 236, 259]
13.73[124, 62, 29, 41, 198, 157, 240, 297]
13.745[151, 60, 30, 44, 178, 153, 214, 275]
13.776[164, 51, 27, 57, 195, 145, 220, 274]
13.783[195, 57, 28, 61, 200, 115, 252, 340]
13.805[259, 64, 29, 64, 203, 122, 275, 341]
13.828[256, 66, 30, 72, 200, 119, 278, 327]
13.842[254, 69, 31, 78, 197, 104, 269, 305]
13.865[252, 69, 31, 69, 176, 103, 261, 313]
13.888[234, 62, 31, 72, 184, 132, 197, 256]
13.902[159, 51, 32, 71, 208, 132, 153, 266]
13.925[177, 51, 33, 63, 197, 146, 143, 233]
13.947[181, 54, 32, 55, 220, 150, 147, 251]
13.962[185, 56, 32, 60, 240, 172, 161, 294]
13.985[187, 55, 34, 55, 243, 148, 182, 265]
14.008[194, 53, 33, 57, 227, 147, 173, 262]
14.022[202, 59, 33, 59, 237, 144, 194, 299]
14.046[214, 55, 33, 58, 222, 146, 235, 297]
14.067[208, 54, 33, 54, 215, 123, 229, 285]
14.082[207, 60, 28, 52, 237, 135, 224, 275]
14.105[200, 59, 28, 58, 245, 149, 227, 272]
14.127[178, 51, 29, 53, 221, 136, 210, 262]
14.142[170, 56, 30, 52, 209, 135, 169, 257]
14.165[208, 58, 29, 52, 222, 145, 160, 221]
14.187[202, 54, 30, 52, 202, 134, 165, 263]
14.21[198, 54, 33, 46, 192, 123, 167, 284]
14.225[197, 58, 31, 47, 203, 140, 178, 279]
14.248[193, 60, 33, 55, 212, 159, 175, 262]
14.27[173, 62, 34, 54, 209, 154, 211, 274]
14.287[178, 63, 33, 51, 197, 156, 195, 241]
14.308[193, 64, 29, 48, 217, 170, 187, 222]
14.33[197, 64, 33, 50, 226, 154, 170, 198]
14.346[212, 69, 32, 46, 229, 159, 169, 213]
14.368[241, 84, 31, 47, 242, 158, 125, 207]
14.39[245, 87, 33, 51, 249, 163, 105, 186]
14.405[256, 87, 33, 49, 232, 155, 102, 178]
14.427[266, 90, 33, 50, 217, 158, 107, 198]
14.45[257, 83, 30, 48, 231, 134, 136, 205]
14.465[231, 70, 33, 56, 210, 128, 138, 203]
14.487[219, 61, 31, 55, 203, 120, 132, 215]
14.51[193, 59, 32, 60, 201, 107, 172, 242]
14.525[174, 53, 27, 59, 209, 101, 170, 223]
14.547[168, 51, 29, 56, 197, 98, 150, 235]
14.57[169, 48, 32, 67, 188, 119, 170, 267]
14.586[178, 51, 33, 66, 183, 124, 175, 259]
14.607[192, 50, 33, 60, 187, 116, 145, 238]
14.63[200, 51, 35, 61, 181, 133, 145, 235]
14.645[212, 58, 34, 68, 185, 142, 137, 240]
14.668[215, 61, 30, 51, 196, 143, 106, 205]
14.69[224, 64, 29, 51, 201, 148, 113, 217]
14.705[217, 68, 33, 55, 215, 159, 145, 254]
14.727[218, 70, 30, 53, 211, 147, 155, 263]
14.75[210, 67, 29, 43, 199, 151, 149, 226]
14.765[182, 57, 30, 42, 186, 138, 162, 228]
14.787[214, 54, 29, 39, 185, 129, 158, 224]
14.81[217, 52, 26, 36, 196, 136, 124, 212]
14.825[224, 46, 27, 39, 235, 148, 120, 208]
14.848[246, 52, 28, 42, 241, 136, 138, 227]
14.87[251, 53, 27, 46, 241, 162, 126, 238]
14.886[219, 54, 28, 51, 242, 159, 125, 223]
14.908[230, 53, 26, 51, 225, 146, 121, 205]
14.931[218, 56, 26, 53, 208, 151, 150, 214]
14.945[213, 48, 24, 60, 210, 164, 138, 206]
14.968[214, 48, 26, 59, 225, 140, 133, 173]
14.99[202, 51, 26, 59, 246, 155, 143, 235]
15.005[200, 50, 28, 63, 254, 153, 145, 224]
15.027[228, 58, 30, 62, 238, 142, 114, 221]
15.05[213, 66, 35, 58, 235, 137, 122, 223]
15.065[214, 73, 34, 56, 219, 130, 127, 259]
15.087[227, 71, 35, 53, 197, 113, 128, 227]
15.118[212, 71, 34, 51, 168, 115, 127, 218]
15.125[224, 67, 34, 54, 160, 119, 146, 227]
15.147[203, 60, 30, 51, 182, 101, 151, 295]
15.17[199, 53, 29, 53, 200, 99, 149, 264]
15.193[193, 52, 31, 53, 193, 104, 145, 254]
15.207[192, 49, 32, 51, 218, 114, 150, 255]
15.23[160, 45, 32, 45, 246, 112, 156, 286]
15.254[171, 42, 33, 51, 226, 122, 149, 229]
15.268[189, 42, 33, 51, 224, 147, 148, 239]
15.29[183, 46, 30, 51, 245, 146, 144, 246]
15.313[203, 47, 30, 55, 246, 148, 159, 267]
15.328[184, 43, 29, 54, 214, 151, 133, 218]
15.35[219, 51, 35, 86, 318, 156, 136, 216]
15.373[212, 46, 35, 87, 313, 133, 131, 201]
15.396[251, 55, 37, 87, 319, 145, 149, 237]
15.41[249, 59, 37, 87, 318, 136, 124, 210]
15.441[254, 60, 35, 89, 333, 129, 119, 208]
15.457[217, 59, 31, 63, 267, 120, 128, 193]
15.47[217, 58, 31, 64, 270, 124, 134, 217]
15.493[169, 48, 31, 63, 267, 101, 131, 182]
15.507[174, 54, 31, 62, 258, 118, 145, 198]
15.53[174, 55, 32, 61, 258, 117, 162, 248]
15.553[168, 51, 30, 52, 221, 113, 152, 255]
15.567[160, 55, 30, 46, 222, 108, 147, 235]
15.59[160, 57, 29, 47, 191, 113, 126, 217]
15.613[238, 66, 28, 44, 194, 93, 122, 208]
15.627[274, 74, 29, 50, 214, 106, 119, 202]
15.65[292, 80, 31, 57, 234, 101, 116, 273]
15.673[314, 82, 34, 62, 234, 113, 116, 284]
15.688[326, 84, 34, 64, 239, 115, 123, 310]
15.719[264, 72, 33, 63, 234, 125, 150, 336]
15.733[233, 67, 31, 59, 225, 114, 173, 316]
15.747[219, 56, 31, 54, 219, 138, 170, 241]
15.77[188, 63, 26, 50, 210, 141, 174, 249]
15.793[204, 64, 30, 56, 206, 165, 173, 230]
15.807[211, 62, 33, 58, 229, 163, 148, 213]
15.831[207, 61, 34, 60, 220, 170, 111, 206]
15.854[217, 67, 32, 56, 211, 154, 124, 249]
15.867[214, 64, 32, 55, 221, 146, 116, 234]
15.891[196, 61, 31, 50, 231, 127, 129, 244]
15.913[251, 69, 30, 55, 241, 131, 137, 231]
15.927[256, 70, 30, 54, 229, 128, 156, 283]
15.951[264, 77, 33, 59, 266, 144, 148, 255]
15.973[301, 76, 37, 63, 264, 163, 164, 272]
15.996[293, 75, 36, 58, 251, 184, 163, 267]
16.011[248, 69, 37, 53, 222, 178, 163, 269]
16.033[249, 65, 39, 56, 223, 193, 140, 222]
16.056[260, 62, 36, 51, 172, 182, 145, 222]
16.071[272, 67, 36, 50, 164, 166, 149, 231]
16.093[283, 70, 35, 51, 168, 151, 136, 215]
16.123[283, 67, 32, 48, 155, 145, 127, 203]
16.132[272, 73, 30, 46, 165, 121, 134, 190]
16.153[259, 69, 30, 43, 163, 119, 134, 196]
16.176[216, 58, 25, 39, 157, 117, 124, 178]
16.191[283, 72, 27, 49, 179, 98, 142, 179]
16.213[275, 74, 27, 55, 212, 114, 139, 179]
16.236[289, 72, 26, 51, 211, 111, 139, 220]
16.25[284, 72, 27, 55, 234, 107, 142, 235]
16.273[299, 77, 30, 59, 289, 106, 144, 250]
16.295[218, 57, 29, 56, 282, 129, 121, 245]
16.311[239, 56, 31, 51, 269, 116, 127, 256]
16.333[230, 52, 32, 51, 266, 117, 128, 276]
16.355[221, 49, 29, 48, 253, 128, 126, 268]
16.37[193, 42, 29, 44, 200, 134, 118, 253]
16.393[224, 44, 28, 42, 213, 133, 120, 253]
16.416[243, 56, 27, 42, 205, 135, 128, 282]
16.43[268, 61, 29, 47, 244, 146, 116, 231]
16.453[272, 60, 33, 52, 236, 143, 134, 232]
16.476[281, 62, 35, 55, 242, 135, 132, 227]
16.49[264, 60, 35, 52, 240, 131, 131, 228]
16.513[226, 50, 35, 57, 249, 146, 174, 237]
16.536[248, 51, 32, 56, 215, 137, 173, 236]
16.55[258, 51, 28, 53, 219, 136, 168, 261]
16.573[236, 50, 23, 50, 225, 141, 168, 257]
16.596[308, 81, 29, 50, 233, 142, 180, 301]
16.61[309, 79, 27, 45, 228, 129, 130, 260]
16.633[261, 76, 26, 39, 222, 137, 129, 261]
16.656[247, 78, 29, 40, 227, 140, 109, 212]
16.67[336, 102, 35, 49, 213, 136, 149, 294]
16.693[284, 84, 30, 49, 202, 122, 138, 255]
16.716[319, 89, 34, 51, 212, 125, 152, 266]
16.73[328, 91, 34, 51, 207, 116, 152, 266]
16.754[337, 91, 32, 48, 203, 124, 154, 294]
16.783[262, 65, 27, 37, 210, 122, 128, 258]
16.799[286, 62, 29, 32, 193, 117, 139, 260]
16.814[254, 54, 25, 35, 195, 115, 119, 250]
16.843[278, 54, 28, 41, 214, 142, 126, 262]
16.85[272, 51, 27, 44, 239, 129, 124, 235]
16.873[259, 46, 28, 52, 254, 140, 110, 216]
16.896[222, 53, 29, 53, 253, 150, 89, 207]
16.918[224, 61, 28, 49, 243, 153, 138, 227]
16.933[188, 57, 26, 49, 257, 140, 140, 212]
16.956[180, 59, 29, 47, 244, 140, 144, 209]
16.97[199, 68, 27, 44, 227, 136, 149, 215]
16.993[248, 70, 29, 52, 244, 129, 154, 227]
17.016[253, 68, 29, 56, 251, 126, 148, 205]
17.03[286, 71, 29, 53, 238, 124, 157, 224]
17.053[295, 70, 26, 54, 239, 123, 154, 248]
17.076[282, 62, 28, 51, 259, 139, 156, 262]
17.098[231, 58, 27, 44, 257, 139, 153, 251]
17.121[240, 66, 28, 46, 252, 142, 143, 256]
17.135[207, 65, 27, 46, 248, 128, 127, 243]
17.158[200, 64, 29, 45, 233, 136, 131, 235]
17.173[193, 64, 30, 43, 219, 152, 123, 200]
17.196[212, 63, 29, 41, 212, 147, 120, 199]
17.218[190, 53, 28, 49, 223, 138, 96, 187]
17.233[201, 51, 30, 56, 212, 156, 115, 203]
17.256[198, 55, 31, 59, 231, 171, 114, 220]
17.278[254, 63, 29, 59, 229, 154, 118, 209]
17.293[240, 56, 28, 65, 250, 155, 120, 213]
17.315[241, 56, 28, 53, 236, 159, 132, 267]
17.338[243, 60, 26, 46, 255, 148, 116, 264]
17.353[241, 61, 26, 46, 257, 116, 109, 256]
17.375[202, 52, 27, 52, 240, 100, 107, 248]
17.398[190, 51, 27, 46, 215, 108, 115, 262]
17.413[194, 52, 28, 49, 234, 117, 99, 240]
17.443[169, 46, 27, 49, 242, 113, 104, 230]
17.458[161, 41, 29, 52, 229, 139, 104, 224]
17.474[135, 40, 27, 46, 232, 138, 110, 240]
17.496[214, 55, 27, 48, 244, 132, 115, 241]
17.518[201, 58, 28, 48, 222, 116, 118, 213]
17.534[210, 61, 29, 48, 198, 117, 138, 258]
17.556[212, 67, 25, 39, 193, 93, 137, 245]
17.577[268, 79, 28, 42, 202, 109, 139, 232]
17.594[264, 73, 30, 41, 177, 113, 140, 216]
17.617[275, 71, 29, 39, 178, 126, 145, 235]
17.637[266, 66, 29, 40, 196, 132, 134, 223]
17.654[274, 64, 29, 43, 196, 135, 137, 221]
17.675[237, 61, 27, 42, 189, 133, 136, 214]
17.697[206, 62, 26, 42, 212, 131, 140, 226]
17.721[187, 57, 25, 43, 221, 121, 132, 201]
17.735[216, 61, 26, 44, 211, 114, 125, 183]
17.765[211, 58, 25, 42, 221, 106, 120, 187]
17.774[219, 52, 26, 41, 216, 86, 109, 182]
17.795[202, 48, 26, 46, 223, 104, 106, 189]
17.817[209, 57, 28, 47, 208, 101, 109, 199]
17.834[181, 55, 26, 46, 204, 119, 110, 217]
17.855[182, 54, 29, 52, 226, 137, 127, 223]
17.877[149, 48, 30, 55, 266, 149, 137, 256]
17.894[202, 46, 29, 54, 248, 145, 128, 247]
17.915[229, 44, 26, 56, 270, 156, 123, 240]
17.938[261, 48, 28, 55, 260, 139, 111, 220]
17.954[271, 50, 26, 48, 229, 124, 93, 218]
17.975[273, 54, 23, 47, 197, 121, 85, 212]
17.998[269, 72, 29, 50, 203, 125, 73, 200]
18.02[255, 68, 29, 43, 170, 113, 78, 209]
18.042[221, 67, 31, 43, 178, 115, 87, 199]
18.057[203, 65, 31, 46, 202, 112, 93, 207]
18.08[227, 66, 31, 42, 193, 106, 88, 178]
18.095[192, 49, 28, 37, 181, 87, 122, 184]
18.117[209, 60, 32, 41, 224, 105, 118, 178]
18.14[209, 57, 30, 43, 248, 116, 124, 246]
18.155[214, 59, 31, 43, 231, 116, 125, 241]
18.177[252, 66, 31, 43, 218, 124, 129, 245]
18.2[252, 67, 29, 43, 212, 123, 127, 265]
18.215[242, 59, 26, 43, 191, 125, 132, 269]
18.237[239, 62, 27, 45, 163, 147, 129, 215]
18.26[242, 65, 28, 49, 157, 150, 132, 239]
18.276[186, 60, 30, 48, 183, 145, 133, 234]
18.297[200, 57, 30, 46, 200, 150, 140, 208]
18.32[205, 60, 31, 47, 203, 142, 152, 235]
18.335[271, 65, 31, 44, 193, 123, 152, 248]
18.357[279, 64, 30, 42, 208, 140, 146, 220]
18.38[281, 60, 29, 47, 219, 149, 153, 222]
18.395[285, 63, 30, 46, 206, 145, 132, 245]
18.419[274, 60, 32, 47, 205, 147, 129, 256]
18.44[237, 54, 29, 49, 217, 141, 120, 233]
18.455[248, 50, 30, 51, 222, 119, 123, 228]
18.477[252, 51, 30, 47, 218, 124, 113, 262]
18.501[232, 47, 31, 47, 224, 120, 121, 253]
18.515[268, 56, 26, 42, 208, 115, 120, 221]
18.537[258, 60, 29, 47, 216, 118, 149, 229]
18.56[230, 58, 29, 49, 202, 141, 147, 233]
18.575[228, 58, 31, 54, 179, 128, 153, 268]
18.598[226, 58, 34, 57, 186, 141, 144, 261]
18.62[174, 48, 36, 61, 220, 150, 134, 248]
18.635[160, 41, 35, 59, 214, 149, 130, 307]
18.657[196, 50, 34, 56, 216, 125, 130, 312]
18.68[195, 53, 32, 52, 221, 116, 120, 272]
18.695[212, 55, 29, 51, 211, 105, 135, 292]
18.717[230, 60, 28, 48, 188, 91, 136, 320]
18.74[221, 60, 29, 45, 168, 88, 108, 254]
18.755[187, 52, 28, 44, 167, 92, 105, 243]
18.785[191, 49, 28, 41, 166, 106, 101, 218]
18.8[194, 57, 29, 40, 162, 107, 74, 199]
18.815[198, 58, 28, 43, 164, 105, 77, 185]
18.845[200, 57, 29, 46, 179, 120, 93, 189]
18.869[225, 64, 31, 49, 190, 121, 118, 194]
18.875[217, 66, 32, 63, 232, 125, 127, 221]
18.897[193, 58, 32, 66, 246, 124, 135, 248]
18.92[244, 67, 34, 65, 235, 123, 140, 231]
18.943[248, 68, 33, 71, 231, 110, 146, 229]
18.958[232, 65, 32, 69, 233, 109, 141, 243]
18.98[256, 61, 29, 62, 191, 99, 142, 221]
19.002[279, 70, 29, 60, 176, 102, 141, 215]
19.017[246, 71, 29, 59, 174, 105, 131, 212]
19.04[250, 72, 28, 50, 182, 103, 122, 206]
19.062[248, 70, 27, 53, 186, 116, 119, 221]
19.077[225, 71, 32, 50, 192, 122, 112, 250]
19.108[226, 67, 33, 58, 211, 127, 123, 222]
19.122[202, 52, 33, 58, 205, 124, 129, 244]
19.145[206, 53, 35, 62, 202, 123, 131, 251]
19.16[208, 52, 35, 60, 205, 121, 128, 227]
19.182[196, 52, 32, 63, 223, 112, 129, 221]
19.198[162, 44, 31, 57, 233, 113, 116, 229]
19.22[184, 48, 30, 57, 251, 118, 123, 205]
19.242[181, 44, 27, 52, 247, 115, 155, 208]
19.257[189, 47, 28, 50, 248, 106, 152, 225]
19.281[197, 46, 27, 45, 260, 104, 156, 236]
19.302[198, 49, 24, 45, 239, 92, 149, 223]
19.318[227, 58, 25, 49, 251, 113, 143, 226]
19.34[221, 58, 26, 53, 246, 129, 141, 272]
19.362[217, 57, 27, 53, 239, 144, 162, 305]
19.378[240, 57, 28, 53, 226, 149, 175, 294]
19.4[246, 58, 30, 52, 227, 149, 178, 295]
19.43[255, 76, 33, 61, 222, 153, 181, 314]
19.438[259, 78, 33, 63, 237, 138, 148, 270]
19.46[327, 86, 34, 65, 281, 122, 126, 241]
19.482[319, 90, 34, 63, 264, 112, 92, 215]
19.497[382, 98, 35, 64, 262, 123, 88, 221]
19.52[344, 76, 33, 56, 248, 104, 82, 201]
19.542[360, 79, 36, 53, 245, 104, 79, 255]
19.558[307, 71, 32, 51, 179, 107, 69, 225]
19.58[293, 68, 33, 54, 189, 110, 79, 270]
19.602[194, 52, 31, 52, 192, 99, 96, 261]
19.617[224, 56, 33, 58, 207, 95, 88, 245]
19.64[220, 51, 30, 62, 212, 109, 93, 237]
19.662[208, 53, 31, 62, 224, 101, 105, 264]
19.677[214, 53, 30, 64, 210, 104, 105, 216]
19.708[232, 57, 30, 66, 203, 122, 102, 210]
19.722[213, 54, 31, 58, 179, 132, 114, 242]
19.746[202, 57, 32, 62, 175, 126, 119, 234]
19.76[212, 53, 34, 62, 244, 133, 117, 207]
19.782[206, 52, 36, 61, 255, 134, 116, 217]
19.799[190, 49, 40, 84, 266, 115, 115, 219]
19.828[165, 55, 60, 228, 318, 100, 101, 181]
19.842[130, 55, 75, 240, 311, 97, 97, 162]
19.857[90, 55, 77, 247, 244, 121, 111, 251]
19.88[74, 56, 80, 254, 246, 129, 110, 250]
19.902[58, 54, 78, 252, 242, 137, 99, 253]
19.926[82, 51, 70, 168, 188, 141, 104, 286]
19.94[83, 52, 71, 175, 186, 143, 98, 266]
19.962[80, 59, 87, 277, 278, 154, 72, 174]
19.986[79, 57, 88, 293, 271, 179, 67, 159]
20.0[72, 64, 91, 296, 277, 179, 61, 150]
20.022[45, 61, 93, 292, 270, 182, 66, 155]
20.046[46, 63, 91, 320, 308, 199, 69, 154]
20.06[43, 61, 80, 240, 243, 180, 68, 158]
20.083[42, 65, 82, 241, 251, 164, 64, 159]
20.106[44, 60, 81, 236, 250, 157, 63, 160]
20.12[42, 59, 72, 222, 241, 146, 44, 77]
20.143[47, 53, 57, 155, 189, 136, 37, 63]
20.166[62, 47, 46, 141, 176, 130, 37, 48]
20.18[63, 46, 45, 100, 155, 134, 57, 123]
20.202[65, 53, 55, 151, 134, 138, 60, 130]
20.226[64, 51, 56, 202, 144, 140, 61, 131]
20.24[58, 48, 61, 207, 163, 130, 65, 133]
20.262[37, 47, 64, 220, 155, 138, 62, 135]
20.286[36, 43, 59, 214, 159, 121, 46, 69]
20.3[27, 30, 52, 188, 165, 121, 42, 53]
20.322[26, 31, 54, 150, 158, 119, 40, 45]
20.346[24, 28, 47, 139, 128, 119, 35, 37]
20.36[27, 43, 45, 119, 126, 112, 47, 117]
20.382[25, 42, 47, 127, 122, 98, 47, 123]
20.406[26, 43, 43, 117, 115, 111, 51, 129]
20.42[26, 42, 38, 98, 115, 112, 51, 131]
20.442[24, 45, 42, 106, 116, 100, 50, 134]
20.465[24, 43, 43, 103, 114, 92, 39, 73]
20.48[27, 49, 39, 89, 105, 88, 37, 62]
20.502[26, 49, 36, 75, 84, 62, 29, 48]
20.526[29, 50, 34, 65, 68, 128, 35, 42]
20.54[28, 48, 29, 63, 66, 133, 34, 33]
20.562[44, 38, 28, 75, 82, 136, 53, 129]
20.586[48, 32, 33, 75, 84, 142, 63, 171]
20.6[61, 32, 36, 86, 91, 153, 65, 177]
20.622[69, 42, 41, 87, 92, 127, 66, 180]
20.645[72, 44, 43, 102, 109, 125, 68, 183]
20.66[63, 47, 45, 120, 115, 130, 59, 133]
20.682[59, 51, 43, 123, 114, 124, 49, 73]
20.705[46, 51, 41, 124, 117, 120, 50, 61]
20.72[34, 45, 39, 124, 121, 102, 61, 126]
20.742[30, 44, 37, 106, 104, 111, 60, 130]
20.765[29, 41, 33, 80, 85, 106, 56, 130]
20.78[28, 41, 33, 110, 77, 105, 56, 133]
20.803[29, 44, 34, 113, 66, 96, 54, 133]
20.826[25, 40, 31, 110, 49, 80, 36, 70]
20.848[23, 38, 30, 110, 44, 57, 32, 54]
20.862[25, 38, 29, 108, 37, 53, 29, 48]
20.886[25, 33, 27, 75, 39, 50, 28, 39]
20.908[24, 28, 29, 60, 40, 49, 34, 37]
20.922[24, 29, 29, 59, 39, 48, 32, 30]
20.946[28, 46, 35, 56, 40, 48, 31, 31]
20.976[27, 46, 34, 53, 40, 36, 32, 31]
20.982[26, 45, 32, 43, 38, 39, 32, 29]
21.006[24, 45, 28, 35, 31, 37, 25, 21]
21.028[25, 45, 28, 35, 29, 38, 25, 20]
21.042[21, 26, 24, 37, 35, 35, 26, 18]
21.066[22, 36, 30, 35, 35, 35, 26, 17]
21.088[22, 38, 30, 34, 36, 29, 25, 18]
21.102[24, 37, 30, 33, 36, 28, 24, 19]
21.126[24, 37, 31, 30, 36, 34, 22, 18]
21.148[23, 40, 29, 26, 31, 36, 24, 18]
21.162[21, 31, 25, 26, 31, 33, 24, 17]
21.186[21, 27, 24, 25, 29, 35, 26, 18]
21.208[22, 31, 27, 29, 34, 37, 24, 19]
21.222[20, 30, 25, 31, 41, 34, 31, 31]
21.246[24, 44, 29, 32, 42, 34, 31, 32]
21.269[24, 44, 27, 30, 41, 34, 31, 33]
21.282[23, 44, 28, 28, 41, 31, 28, 33]
21.306[22, 42, 28, 24, 36, 27, 29, 33]
21.328[22, 43, 28, 25, 30, 23, 21, 23]
21.342[19, 30, 26, 23, 28, 21, 19, 24]
21.366[19, 32, 27, 22, 31, 24, 19, 24]
21.388[18, 37, 28, 28, 39, 35, 21, 21]
21.402[20, 48, 27, 27, 40, 37, 22, 25]
21.425[21, 49, 27, 28, 39, 39, 22, 24]
21.448[21, 46, 26, 29, 41, 43, 26, 25]
21.462[21, 45, 26, 31, 39, 41, 26, 25]
21.485[22, 46, 28, 28, 31, 34, 25, 25]
21.508[19, 32, 27, 29, 31, 32, 24, 20]
21.522[21, 37, 26, 28, 32, 37, 24, 24]
21.546[21, 39, 27, 27, 29, 33, 19, 21]
21.568[21, 40, 28, 26, 29, 32, 21, 22]
21.582[21, 37, 25, 26, 31, 31, 23, 24]
21.605[22, 36, 25, 29, 36, 35, 23, 24]
21.628[22, 37, 27, 28, 36, 28, 22, 20]
21.642[22, 36, 25, 27, 34, 31, 24, 20]
21.665[23, 37, 24, 29, 38, 35, 22, 19]
21.688[22, 48, 25, 27, 36, 43, 23, 19]
21.702[23, 59, 25, 25, 31, 41, 25, 20]
21.734[22, 57, 22, 24, 32, 41, 26, 22]
21.748[22, 57, 22, 26, 34, 41, 33, 31]
21.762[24, 57, 26, 29, 31, 44, 34, 32]
21.786[24, 48, 24, 30, 31, 37, 33, 32]
21.808[25, 42, 27, 31, 30, 37, 31, 33]
21.838[25, 44, 30, 32, 31, 35, 31, 33]
21.845[26, 44, 29, 30, 30, 35, 24, 26]
21.868[23, 43, 26, 31, 32, 28, 22, 25]
21.89[24, 43, 25, 30, 32, 27, 22, 24]
21.913[23, 45, 24, 29, 32, 26, 25, 21]
21.928[20, 39, 23, 27, 29, 26, 24, 19]
21.95[19, 38, 24, 30, 31, 25, 25, 18]
21.967[19, 38, 24, 28, 31, 42, 26, 21]
21.988[19, 38, 26, 32, 35, 45, 29, 20]
22.01[20, 37, 25, 35, 36, 48, 39, 29]
22.026[22, 41, 25, 34, 37, 49, 41, 33]
22.048[25, 41, 27, 32, 34, 48, 41, 33]
22.071[26, 40, 26, 30, 30, 33, 41, 32]
22.086[28, 41, 29, 28, 28, 34, 40, 33]
22.108[27, 30, 29, 25, 26, 31, 26, 26]
22.13[26, 23, 29, 27, 27, 29, 25, 25]
22.146[25, 23, 26, 27, 27, 27, 24, 25]
22.168[25, 26, 27, 27, 27, 26, 23, 23]
22.19[24, 30, 25, 23, 25, 19, 20, 22]
22.206[26, 38, 24, 23, 27, 19, 20, 23]
22.228[26, 38, 22, 24, 26, 19, 19, 18]
22.251[26, 39, 24, 26, 27, 22, 19, 18]
22.265[24, 38, 24, 24, 29, 24, 20, 21]
22.288[26, 39, 25, 25, 27, 26, 20, 20]
22.311[24, 32, 24, 25, 28, 24, 22, 21]
22.325[24, 39, 25, 22, 28, 26, 22, 24]
22.348[25, 39, 24, 23, 27, 24, 22, 23]
22.371[26, 39, 24, 22, 26, 23, 20, 22]
22.385[23, 33, 22, 21, 27, 22, 31, 27]
22.408[23, 36, 26, 22, 27, 23, 28, 28]
22.43[20, 30, 26, 24, 27, 19, 29, 27]
22.445[19, 31, 27, 22, 27, 21, 32, 27]
22.469[18, 31, 27, 23, 27, 21, 34, 27]
22.49[20, 33, 28, 28, 28, 21, 25, 23]
22.512[19, 27, 24, 27, 27, 22, 34, 34]
22.535[20, 25, 22, 24, 25, 32, 36, 34]
22.55[19, 24, 21, 25, 25, 35, 34, 34]
22.572[21, 44, 26, 25, 25, 34, 33, 34]
22.589[19, 44, 24, 22, 24, 35, 33, 35]
22.61[19, 47, 25, 22, 24, 44, 25, 23]
22.632[20, 46, 25, 21, 24, 43, 22, 23]
22.649[20, 47, 26, 23, 28, 42, 22, 23]
22.67[19, 27, 20, 23, 28, 43, 28, 28]
22.7[21, 24, 22, 23, 29, 45, 33, 29]
22.709[22, 20, 22, 25, 28, 36, 32, 32]
22.73[22, 22, 22, 27, 30, 28, 32, 31]
22.752[22, 20, 23, 24, 28, 26, 34, 31]
22.769[21, 22, 24, 26, 28, 32, 28, 24]
22.797[18, 24, 22, 24, 27, 29, 25, 24]
22.812[17, 24, 24, 23, 27, 30, 25, 20]
22.829[18, 24, 23, 27, 28, 29, 28, 26]
22.85[18, 27, 27, 29, 29, 30, 30, 30]
22.873[18, 26, 27, 27, 29, 23, 32, 31]
22.889[21, 29, 29, 27, 28, 23, 33, 30]
22.91[20, 29, 27, 26, 31, 21, 32, 31]
22.932[17, 28, 29, 22, 29, 22, 32, 28]
22.949[19, 27, 25, 22, 27, 20, 25, 25]
22.97[18, 26, 24, 21, 28, 25, 25, 23]
22.992[18, 24, 23, 25, 30, 28, 23, 20]
23.009[20, 23, 23, 26, 27, 29, 30, 29]
23.03[22, 23, 24, 25, 26, 30, 31, 30]
23.053[20, 21, 22, 26, 26, 29, 33, 30]
23.069[21, 21, 22, 30, 27, 27, 33, 33]
23.09[20, 23, 24, 29, 28, 22, 34, 33]
23.114[19, 25, 26, 31, 31, 22, 27, 26]
23.129[19, 29, 24, 31, 30, 20, 24, 23]
23.15[21, 28, 24, 30, 31, 23, 29, 31]
23.172[21, 28, 24, 27, 28, 21, 29, 30]
23.189[21, 28, 22, 26, 26, 31, 29, 30]
23.217[21, 25, 19, 24, 22, 32, 31, 30]
23.233[20, 22, 22, 24, 25, 32, 30, 29]
23.247[19, 23, 21, 25, 26, 31, 22, 24]
23.27[17, 22, 23, 24, 26, 31, 23, 24]
23.292[18, 22, 24, 23, 26, 23, 21, 23]
23.307[18, 29, 25, 22, 26, 21, 32, 34]
23.33[19, 26, 23, 21, 25, 21, 34, 34]
23.353[25, 38, 28, 18, 24, 22, 34, 35]
23.367[28, 41, 27, 18, 24, 22, 35, 34]
23.39[29, 41, 25, 18, 23, 22, 39, 36]
23.412[30, 38, 27, 20, 26, 20, 29, 29]
23.428[30, 38, 28, 22, 24, 21, 30, 30]
23.45[26, 37, 27, 23, 24, 32, 30, 27]
23.472[24, 36, 26, 23, 27, 39, 29, 27]
23.487[23, 38, 29, 23, 28, 41, 27, 26]
23.51[25, 38, 26, 24, 25, 44, 37, 26]
23.534[25, 38, 26, 22, 27, 43, 34, 30]
23.547[24, 27, 30, 24, 30, 41, 35, 31]
23.57[22, 25, 30, 24, 28, 33, 36, 31]
23.592[24, 20, 30, 26, 26, 32, 34, 30]
23.607[20, 31, 31, 24, 26, 29, 21, 26]
23.63[24, 39, 35, 26, 28, 29, 29, 27]
23.652[24, 40, 29, 25, 25, 22, 28, 24]
23.675[31, 40, 30, 25, 24, 21, 26, 27]
23.69[31, 41, 31, 24, 25, 22, 29, 28]
23.712[31, 36, 30, 24, 25, 23, 31, 29]
23.735[28, 26, 25, 20, 24, 27, 33, 33]
23.75[29, 29, 26, 20, 23, 27, 33, 36]
23.78[22, 29, 25, 21, 24, 25, 35, 35]
23.795[24, 39, 24, 21, 24, 23, 34, 35]
23.81[23, 40, 23, 21, 24, 24, 33, 36]
23.832[23, 40, 26, 24, 23, 18, 26, 29]
23.855[24, 44, 25, 22, 24, 20, 24, 25]
23.871[25, 45, 30, 24, 23, 22, 24, 26]
23.893[23, 37, 34, 26, 25, 21, 22, 25]
23.915[26, 42, 33, 27, 28, 20, 30, 30]
23.93[27, 43, 33, 25, 28, 23, 30, 31]
23.952[25, 38, 33, 27, 28, 23, 31, 32]
23.975[23, 37, 29, 27, 30, 21, 33, 32]
23.99[23, 37, 22, 27, 28, 23, 38, 32]
24.013[21, 27, 23, 25, 26, 22, 31, 27]
24.035[22, 32, 23, 28, 27, 22, 30, 25]
24.05[23, 31, 22, 28, 28, 23, 31, 25]
24.072[24, 35, 24, 27, 28, 24, 32, 31]
24.095[28, 35, 24, 25, 28, 24, 31, 32]
24.11[27, 44, 24, 29, 28, 25, 31, 31]
24.132[26, 43, 29, 27, 26, 27, 31, 33]
24.155[25, 43, 28, 27, 24, 25, 29, 32]
24.17[26, 46, 31, 25, 26, 24, 26, 25]
24.192[22, 45, 32, 26, 25, 21, 21, 23]
24.215[22, 39, 34, 23, 24, 21, 20, 38]
24.231[21, 44, 32, 19, 24, 18, 22, 44]
24.252[23, 45, 33, 18, 26, 20, 34, 52]
24.275[21, 41, 30, 20, 27, 21, 32, 51]
24.29[23, 42, 32, 21, 27, 21, 33, 51]
24.312[25, 42, 33, 24, 27, 24, 32, 41]
24.335[25, 33, 30, 25, 26, 24, 35, 37]
24.351[29, 48, 32, 25, 28, 24, 27, 26]
24.372[29, 49, 33, 23, 23, 24, 38, 33]
24.395[27, 51, 32, 22, 23, 24, 37, 35]
24.41[30, 49, 27, 18, 21, 20, 40, 37]
24.432[31, 54, 35, 22, 26, 19, 39, 32]
24.455[25, 42, 33, 22, 22, 19, 36, 32]
24.47[26, 48, 33, 24, 24, 19, 25, 25]
24.492[26, 47, 30, 25, 24, 21, 27, 24]
24.515[25, 48, 33, 25, 26, 21, 24, 19]
24.53[23, 42, 24, 22, 24, 23, 20, 20]
24.552[28, 41, 27, 24, 26, 22, 21, 25]
24.575[29, 30, 28, 22, 24, 22, 21, 24]
24.597[30, 37, 28, 21, 26, 24, 18, 26]
24.612[28, 35, 27, 21, 29, 23, 30, 35]
24.635[28, 39, 32, 25, 28, 22, 32, 37]
24.657[25, 37, 29, 22, 26, 22, 33, 34]
24.672[22, 39, 29, 25, 26, 24, 33, 35]
24.695[22, 45, 31, 26, 26, 22, 35, 34]
24.717[21, 43, 30, 27, 22, 21, 26, 29]
24.733[26, 42, 27, 26, 23, 20, 26, 26]
24.755[25, 45, 30, 27, 25, 20, 25, 29]
24.777[26, 50, 27, 24, 25, 19, 34, 35]
24.792[27, 47, 28, 27, 24, 17, 33, 36]
24.815[27, 47, 31, 28, 25, 19, 32, 34]
24.837[22, 44, 30, 26, 27, 21, 33, 38]
24.852[23, 44, 29, 26, 27, 22, 33, 36]
24.883[21, 45, 34, 26, 27, 25, 23, 30]
24.897[22, 45, 38, 22, 29, 25, 30, 38]
24.912[23, 50, 35, 25, 28, 27, 30, 37]
24.935[23, 50, 33, 27, 26, 25, 30, 37]
24.957[24, 48, 34, 27, 24, 25, 31, 38]
24.972[25, 43, 29, 30, 24, 23, 31, 38]
24.995[24, 39, 22, 31, 23, 24, 24, 30]
25.018[25, 37, 25, 26, 22, 22, 24, 30]
25.032[25, 37, 25, 25, 26, 24, 30, 30]
25.055[24, 45, 28, 26, 26, 23, 30, 30]
25.078[23, 45, 29, 24, 28, 21, 32, 27]
25.093[25, 42, 31, 26, 31, 21, 31, 28]
25.123[27, 50, 31, 27, 33, 24, 32, 29]
25.138[27, 49, 34, 27, 31, 22, 23, 21]
25.16[28, 44, 30, 29, 33, 22, 21, 21]
25.175[31, 46, 33, 26, 32, 23, 30, 29]
25.198[29, 48, 31, 26, 28, 24, 31, 30]
25.212[26, 43, 29, 25, 26, 20, 31, 30]
25.235[26, 45, 25, 24, 27, 21, 31, 32]
25.258[24, 46, 26, 23, 28, 21, 35, 31]
25.272[21, 45, 23, 27, 26, 21, 27, 26]
25.295[22, 41, 22, 25, 27, 19, 27, 26]
25.318[22, 34, 24, 26, 28, 19, 26, 27]
25.333[22, 39, 26, 25, 28, 18, 33, 33]
25.355[23, 39, 25, 31, 25, 19, 30, 35]
25.378[22, 36, 25, 38, 25, 17, 28, 33]
25.393[21, 37, 25, 40, 25, 19, 27, 33]
25.415[23, 42, 24, 41, 22, 19, 29, 32]
25.438[20, 42, 31, 41, 21, 21, 23, 25]
25.452[21, 42, 31, 37, 22, 20, 21, 25]
25.475[21, 41, 32, 29, 23, 21, 22, 25]
25.498[21, 40, 32, 26, 21, 22, 23, 26]
25.52[22, 45, 33, 23, 22, 24, 24, 26]
25.535[22, 40, 26, 23, 21, 22, 30, 30]
25.558[22, 40, 28, 22, 23, 24, 31, 30]
25.58[20, 41, 25, 20, 23, 22, 32, 30]
25.595[22, 48, 28, 19, 25, 21, 33, 29]
25.618[19, 43, 27, 20, 26, 18, 32, 31]
25.64[22, 44, 28, 25, 30, 19, 24, 28]
25.655[21, 45, 28, 25, 30, 18, 24, 25]
25.678[23, 43, 30, 26, 29, 19, 21, 25]
25.7[22, 36, 28, 25, 29, 19, 22, 25]
25.714[23, 31, 25, 26, 28, 20, 27, 26]
25.738[23, 33, 25, 23, 26, 22, 32, 30]
25.76[25, 36, 28, 21, 26, 21, 31, 31]
25.775[24, 37, 25, 18, 26, 21, 32, 30]
25.805[25, 39, 29, 20, 27, 21, 29, 28]
25.821[24, 39, 30, 19, 27, 21, 27, 29]
25.835[24, 37, 32, 18, 26, 17, 21, 23]
25.858[26, 44, 31, 19, 24, 17, 20, 26]
25.88[27, 43, 31, 21, 25, 17, 34, 37]
25.895[26, 44, 30, 23, 24, 17, 37, 37]
25.918[27, 44, 30, 24, 24, 17, 37, 34]
25.94[27, 46, 30, 24, 24, 18, 37, 34]
25.955[23, 35, 26, 24, 23, 19, 36, 32]
25.978[21, 35, 26, 25, 23, 20, 24, 22]
26.001[23, 34, 24, 22, 23, 21, 22, 20]
26.015[21, 35, 24, 21, 24, 21, 26, 23]
26.039[20, 30, 23, 22, 24, 24, 32, 31]
26.06[21, 35, 27, 22, 25, 23, 34, 32]
26.083[23, 35, 27, 20, 23, 24, 34, 31]
26.098[21, 36, 29, 22, 23, 23, 34, 32]
26.128[24, 38, 29, 21, 23, 22, 31, 30]
26.134[23, 38, 27, 22, 24, 19, 27, 22]
26.158[20, 33, 23, 21, 25, 20, 24, 21]
26.18[20, 31, 27, 22, 25, 20, 24, 20]
26.195[21, 28, 25, 19, 26, 19, 31, 27]
26.218[19, 41, 27, 20, 26, 22, 31, 26]
26.24[21, 40, 26, 18, 23, 21, 30, 28]
26.263[21, 40, 25, 20, 23, 21, 32, 31]
26.278[21, 42, 22, 20, 22, 22, 32, 30]
26.3[21, 45, 25, 21, 20, 22, 23, 24]
26.315[19, 29, 21, 24, 22, 21, 23, 24]
26.338[22, 38, 25, 23, 23, 22, 22, 24]
26.36[23, 38, 26, 21, 22, 23, 30, 31]
26.375[24, 38, 27, 23, 24, 21, 30, 33]
26.405[23, 43, 25, 23, 26, 23, 32, 33]
26.421[23, 42, 25, 21, 24, 22, 32, 35]
26.434[24, 36, 22, 22, 24, 21, 32, 33]
26.458[25, 43, 24, 23, 25, 24, 23, 25]
26.48[24, 43, 24, 21, 27, 25, 23, 25]
26.495[25, 37, 25, 19, 24, 24, 22, 23]
26.518[26, 38, 26, 18, 25, 25, 27, 25]
26.54[23, 37, 26, 21, 25, 26, 32, 34]
26.563[20, 29, 26, 21, 23, 21, 34, 35]
26.578[20, 37, 30, 20, 20, 22, 34, 34]
26.608[22, 38, 30, 21, 22, 21, 33, 34]
26.623[21, 39, 29, 21, 20, 19, 29, 32]
26.638[23, 39, 31, 18, 20, 22, 25, 23]
26.669[23, 37, 29, 17, 20, 22, 34, 26]
26.683[23, 30, 25, 20, 20, 21, 36, 29]
26.699[23, 40, 25, 21, 19, 23, 35, 28]
26.728[24, 38, 24, 23, 21, 23, 36, 29]
26.743[23, 39, 26, 22, 23, 19, 35, 29]
26.758[24, 42, 28, 24, 27, 20, 26, 24]
26.78[24, 40, 28, 23, 28, 20, 23, 23]
26.803[22, 30, 26, 21, 29, 19, 24, 25]
26.825[23, 37, 30, 18, 29, 19, 33, 31]
26.841[23, 37, 25, 19, 28, 20, 33, 31]
26.871[23, 37, 26, 18, 23, 20, 34, 34]
26.878[25, 38, 26, 18, 27, 21, 35, 33]
26.9[30, 42, 27, 20, 26, 20, 35, 32]
26.923[29, 39, 26, 20, 25, 20, 27, 27]
26.947[41, 41, 26, 20, 26, 21, 29, 31]
26.96[45, 38, 27, 21, 27, 23, 33, 31]
26.99[45, 44, 28, 22, 23, 22, 33, 31]
26.998[43, 38, 29, 21, 22, 23, 32, 31]
27.02[42, 38, 27, 22, 24, 21, 32, 31]
27.05[32, 36, 27, 23, 22, 21, 31, 27]
27.057[24, 38, 26, 21, 25, 19, 23, 24]
27.08[29, 41, 25, 20, 23, 19, 29, 30]
27.103[29, 41, 22, 19, 25, 19, 29, 29]
27.126[31, 39, 23, 22, 24, 21, 28, 28]
27.148[29, 39, 23, 22, 27, 21, 27, 27]
27.164[33, 45, 25, 23, 26, 20, 27, 27]
27.177[26, 35, 25, 24, 32, 20, 20, 21]
27.2[25, 38, 28, 25, 31, 20, 20, 20]
27.223[24, 37, 27, 23, 30, 21, 20, 20]
27.237[26, 48, 30, 22, 28, 19, 26, 28]
27.268[26, 42, 29, 22, 28, 20, 29, 32]
27.283[36, 42, 29, 21, 28, 21, 30, 32]
27.297[38, 44, 27, 23, 27, 20, 30, 32]
27.32[38, 44, 26, 25, 30, 19, 30, 32]
27.343[42, 51, 29, 27, 31, 21, 25, 25]
27.357[39, 52, 28, 26, 30, 22, 22, 24]
27.388[31, 52, 27, 27, 27, 20, 20, 23]
27.403[30, 48, 27, 25, 30, 20, 25, 27]
27.426[39, 57, 31, 23, 27, 21, 30, 31]
27.441[33, 42, 26, 23, 26, 20, 29, 31]
27.47[36, 41, 26, 24, 28, 21, 28, 30]
27.485[36, 41, 25, 22, 26, 20, 32, 32]
27.501[34, 49, 25, 23, 28, 22, 28, 28]
27.522[24, 47, 25, 22, 29, 23, 26, 27]
27.545[31, 45, 24, 21, 28, 24, 34, 33]
27.561[38, 45, 25, 20, 29, 25, 34, 32]
27.582[40, 46, 28, 20, 29, 26, 32, 31]
27.605[42, 48, 34, 18, 27, 24, 34, 33]
27.621[41, 40, 31, 19, 27, 25, 32, 32]
27.642[37, 39, 31, 18, 27, 23, 24, 26]
27.665[27, 38, 31, 18, 24, 21, 24, 26]
27.681[26, 43, 29, 21, 25, 23, 28, 31]
27.704[26, 38, 24, 21, 27, 24, 27, 30]
27.725[26, 40, 25, 21, 25, 22, 26, 29]
27.749[25, 42, 25, 21, 27, 21, 27, 29]
27.762[24, 44, 25, 21, 26, 21, 29, 33]
27.785[24, 47, 30, 19, 26, 18, 25, 27]
27.801[20, 41, 27, 19, 24, 22, 23, 28]
27.822[20, 40, 25, 18, 24, 23, 34, 35]
27.845[20, 38, 25, 20, 23, 23, 34, 35]
27.861[21, 38, 25, 21, 26, 23, 34, 33]
27.882[22, 32, 21, 21, 31, 45, 36, 32]
27.905[24, 30, 23, 23, 32, 46, 36, 33]
27.921[34, 32, 24, 24, 31, 47, 28, 25]
27.944[35, 32, 24, 23, 31, 48, 25, 26]
27.965[36, 32, 27, 24, 31, 48, 32, 29]
27.981[35, 35, 25, 23, 29, 29, 32, 33]
28.002[36, 37, 25, 21, 25, 26, 32, 32]
28.026[27, 37, 26, 22, 26, 22, 32, 31]
28.041[25, 36, 27, 21, 25, 21, 32, 30]
28.062[24, 39, 27, 20, 24, 22, 25, 26]
28.085[23, 34, 28, 21, 22, 19, 20, 21]
28.101[22, 34, 28, 23, 23, 19, 20, 21]
28.123[21, 34, 27, 24, 22, 20, 28, 30]
28.145[20, 36, 26, 24, 22, 19, 30, 32]
28.162[31, 39, 29, 23, 22, 20, 31, 33]
28.182[34, 36, 27, 22, 21, 20, 34, 35]
28.204[35, 43, 29, 21, 21, 19, 33, 34]
28.221[35, 43, 27, 22, 27, 20, 26, 28]
28.25[35, 44, 31, 20, 26, 20, 22, 26]
28.265[28, 38, 27, 20, 26, 19, 29, 31]
28.281[24, 38, 26, 20, 25, 19, 30, 33]
28.302[23, 38, 26, 19, 25, 21, 30, 33]
28.325[23, 41, 30, 16, 23, 22, 31, 34]
28.348[26, 39, 26, 19, 27, 22, 31, 34]
28.362[23, 39, 26, 21, 27, 23, 25, 28]
28.385[23, 40, 29, 20, 28, 23, 19, 24]
28.407[23, 41, 27, 20, 28, 21, 21, 25]
28.422[26, 40, 27, 21, 25, 22, 21, 21]
28.445[25, 40, 26, 18, 25, 22, 32, 28]
28.467[25, 40, 27, 17, 26, 22, 33, 28]
28.482[24, 39, 25, 19, 27, 23, 33, 30]
28.505[24, 36, 28, 19, 27, 23, 33, 31]
28.527[22, 38, 25, 19, 28, 22, 33, 31]
28.542[21, 38, 27, 21, 24, 22, 23, 26]
28.565[22, 38, 27, 22, 24, 20, 30, 33]
28.587[24, 36, 26, 24, 22, 19, 30, 31]
28.602[22, 35, 24, 24, 27, 22, 32, 29]
28.625[23, 35, 25, 25, 27, 20, 31, 30]
28.647[23, 36, 25, 24, 27, 21, 31, 30]
28.662[24, 36, 27, 25, 27, 20, 22, 21]
28.685[22, 42, 29, 23, 30, 22, 21, 20]
28.715[22, 38, 27, 22, 26, 22, 31, 29]
28.722[23, 32, 26, 22, 27, 22, 31, 30]
28.744[22, 38, 25, 20, 27, 23, 31, 28]
28.767[23, 40, 25, 21, 27, 25, 33, 29]
28.782[23, 41, 26, 20, 23, 23, 32, 30]
28.813[22, 42, 26, 22, 21, 21, 21, 22]
28.827[23, 42, 25, 22, 24, 21, 20, 20]
28.842[23, 36, 25, 22, 26, 21, 23, 24]
28.865[20, 36, 26, 19, 26, 21, 27, 28]
28.887[21, 28, 23, 21, 26, 22, 28, 28]
28.902[22, 34, 23, 20, 27, 21, 29, 30]
28.933[19, 33, 24, 21, 25, 21, 29, 31]
28.947[19, 35, 24, 21, 22, 21, 28, 28]
28.962[21, 36, 25, 24, 22, 20, 24, 23]
28.985[21, 37, 24, 22, 21, 20, 25, 24]
29.007[23, 37, 25, 23, 31, 22, 33, 29]
29.022[24, 36, 25, 21, 31, 21, 36, 29]
29.045[24, 37, 27, 23, 32, 21, 37, 29]
29.067[24, 34, 24, 22, 31, 21, 37, 28]
29.082[23, 34, 25, 23, 33, 21, 36, 28]
29.105[20, 30, 27, 24, 25, 21, 40, 30]
29.127[19, 38, 27, 25, 25, 22, 37, 31]
29.142[18, 36, 26, 25, 28, 23, 38, 32]
29.165[17, 37, 27, 25, 32, 24, 37, 35]
29.187[18, 37, 27, 27, 31, 21, 36, 36]
29.202[20, 35, 23, 25, 31, 20, 26, 29]
29.225[18, 29, 23, 24, 32, 20, 25, 29]
29.247[20, 40, 24, 24, 29, 19, 32, 35]
29.263[20, 39, 23, 23, 26, 18, 31, 33]
29.285[21, 39, 24, 20, 31, 20, 33, 32]
29.307[21, 42, 25, 22, 32, 20, 32, 33]
29.322[21, 43, 25, 22, 31, 19, 31, 34]
29.345[20, 41, 28, 21, 30, 20, 25, 29]
29.367[20, 41, 28, 21, 32, 23, 33, 31]
29.391[20, 40, 28, 21, 28, 24, 33, 31]
29.405[20, 40, 28, 23, 28, 24, 32, 30]
29.427[23, 40, 30, 23, 28, 26, 33, 29]
29.458[21, 30, 27, 23, 29, 26, 31, 26]
29.464[21, 39, 27, 24, 27, 25, 23, 24]
29.487[20, 39, 28, 27, 28, 22, 28, 31]
29.518[21, 39, 29, 25, 27, 24, 28, 31]
29.525[19, 36, 26, 25, 32, 22, 28, 31]
29.547[21, 38, 26, 25, 33, 22, 28, 32]
29.57[22, 37, 27, 24, 32, 21, 28, 31]
29.584[23, 37, 26, 20, 32, 21, 23, 25]
29.607[26, 37, 23, 20, 32, 17, 22, 25]
29.63[26, 37, 23, 27, 31, 20, 27, 31]
29.646[25, 36, 22, 28, 33, 22, 27, 30]
29.667[25, 39, 24, 28, 33, 23, 28, 31]
29.69[24, 43, 24, 30, 33, 26, 26, 31]
29.705[20, 43, 25, 30, 34, 27, 29, 30]
29.727[20, 44, 26, 25, 30, 26, 25, 23]
29.75[18, 46, 26, 26, 32, 25, 25, 24]
29.78[17, 37, 23, 30, 34, 25, 31, 29]
29.796[20, 32, 29, 28, 33, 21, 31, 28]
29.81[19, 31, 27, 28, 31, 21, 29, 26]
29.824[21, 29, 26, 28, 33, 19, 30, 27]
29.847[23, 30, 26, 25, 30, 19, 29, 27]
29.87[25, 38, 29, 21, 27, 18, 23, 18]
29.886[23, 39, 23, 24, 32, 19, 25, 18]
29.907[24, 39, 23, 26, 33, 19, 32, 24]
29.93[23, 43, 25, 26, 31, 21, 34, 27]
29.945[25, 46, 34, 28, 32, 21, 34, 26]
29.967[24, 42, 33, 39, 38, 22, 33, 28]
29.99[24, 40, 33, 40, 35, 24, 31, 30]
30.004[26, 42, 34, 41, 37, 31, 22, 25]
30.027[25, 40, 35, 46, 52, 72, 24, 21]
30.05[25, 35, 35, 58, 76, 167, 45, 23]
30.064[24, 31, 34, 52, 93, 177, 46, 23]
30.087[28, 32, 37, 54, 190, 197, 70, 104]
30.118[34, 30, 38, 55, 215, 215, 101, 172]
30.125[36, 29, 36, 54, 221, 223, 109, 179]
30.147[47, 29, 30, 42, 227, 182, 117, 261]
30.169[60, 35, 37, 53, 282, 189, 167, 268]
30.186[61, 33, 34, 50, 264, 177, 217, 289]
30.208[60, 33, 36, 49, 255, 186, 223, 270]
30.23[60, 34, 36, 49, 256, 172, 224, 274]
30.253[57, 38, 39, 54, 264, 216, 219, 253]
30.267[56, 33, 36, 47, 234, 254, 223, 284]
30.29[71, 35, 37, 47, 212, 256, 192, 288]
30.313[92, 34, 34, 47, 205, 244, 211, 291]
30.335[99, 35, 35, 46, 233, 277, 261, 334]
30.35[115, 36, 35, 44, 246, 257, 310, 358]
30.38[196, 75, 35, 46, 263, 225, 302, 360]
30.387[382, 146, 49, 54, 272, 236, 406, 368]
30.41[536, 255, 68, 61, 285, 298, 508, 450]
30.433[586, 277, 72, 73, 350, 319, 572, 513]
30.447[663, 300, 74, 77, 445, 348, 659, 553]
30.47[726, 320, 86, 96, 442, 396, 784, 624]
30.493[778, 317, 84, 97, 462, 434, 874, 674]
30.515[757, 253, 83, 98, 484, 431, 893, 671]
30.53[750, 240, 81, 97, 452, 418, 895, 660]
30.553[754, 250, 87, 107, 417, 433, 909, 692]
30.567[779, 235, 87, 105, 446, 412, 897, 705]
30.59[753, 245, 90, 104, 437, 401, 835, 670]
30.613[729, 243, 82, 110, 461, 406, 809, 657]
30.627[769, 253, 86, 113, 468, 420, 848, 692]
30.65[770, 234, 80, 105, 446, 373, 812, 620]
30.673[722, 223, 71, 100, 419, 370, 716, 568]
30.687[634, 189, 62, 97, 397, 331, 650, 544]
30.71[636, 192, 57, 87, 392, 277, 582, 524]
30.733[675, 216, 58, 83, 400, 274, 570, 453]
30.747[599, 198, 53, 78, 375, 276, 497, 433]
30.77[555, 191, 49, 67, 362, 258, 523, 414]
30.8[579, 189, 51, 69, 386, 278, 539, 416]
30.807[565, 170, 49, 66, 344, 297, 557, 390]
30.83[469, 107, 44, 58, 367, 287, 527, 453]
30.854[474, 110, 47, 57, 365, 298, 531, 452]
30.867[496, 112, 49, 60, 391, 284, 522, 435]
30.89[504, 120, 48, 61, 410, 288, 552, 456]
30.913[510, 144, 55, 65, 457, 310, 556, 479]
30.927[512, 158, 56, 62, 468, 304, 510, 437]
30.95[550, 156, 54, 65, 468, 300, 507, 432]
30.973[615, 194, 53, 64, 444, 322, 541, 425]
30.995[629, 194, 55, 66, 445, 305, 477, 459]
31.01[597, 179, 47, 61, 381, 276, 467, 489]
31.033[565, 166, 42, 63, 351, 257, 399, 430]
31.047[636, 184, 44, 61, 352, 257, 389, 433]
31.078[618, 166, 43, 56, 359, 234, 438, 456]
31.093[576, 153, 43, 56, 331, 253, 496, 406]
31.107[576, 151, 49, 61, 347, 235, 483, 356]
31.13[562, 144, 48, 63, 328, 220, 476, 347]
31.153[464, 127, 48, 64, 312, 217, 498, 340]
31.167[344, 92, 45, 63, 294, 229, 390, 295]
31.19[371, 93, 40, 58, 282, 207, 292, 269]
31.213[405, 100, 38, 55, 291, 201, 270, 243]
31.227[414, 108, 46, 55, 259, 208, 319, 287]
31.25[418, 113, 45, 55, 271, 202, 280, 284]
31.273[491, 130, 46, 62, 287, 188, 252, 289]
31.295[486, 127, 47, 66, 279, 174, 245, 289]
31.31[655, 178, 46, 66, 262, 184, 261, 292]
31.333[739, 212, 75, 64, 279, 210, 225, 319]
31.355[747, 211, 78, 69, 309, 239, 286, 407]
31.37[774, 218, 82, 67, 333, 245, 294, 408]
31.393[787, 236, 86, 79, 352, 264, 321, 421]
31.415[628, 214, 87, 93, 367, 268, 313, 427]
31.43[535, 179, 64, 96, 342, 249, 326, 388]
31.453[531, 173, 60, 92, 313, 230, 263, 305]
31.475[430, 153, 55, 92, 321, 214, 277, 364]
31.49[375, 121, 52, 83, 297, 196, 244, 345]
31.513[368, 93, 46, 67, 317, 193, 237, 347]
31.535[428, 127, 42, 66, 342, 189, 206, 346]
31.55[397, 132, 41, 65, 337, 178, 243, 354]
31.573[432, 129, 43, 67, 327, 183, 253, 328]
31.595[437, 156, 56, 68, 352, 205, 273, 345]
31.61[448, 152, 57, 69, 329, 203, 279, 353]
31.633[392, 136, 56, 67, 322, 192, 272, 355]
31.655[392, 142, 59, 75, 325, 199, 251, 337]
31.67[379, 150, 59, 69, 292, 186, 243, 296]
31.693[383, 130, 50, 64, 279, 182, 244, 356]
31.715[413, 135, 50, 68, 265, 204, 264, 368]
31.73[415, 131, 54, 73, 261, 224, 272, 351]
31.753[428, 129, 53, 64, 275, 214, 270, 365]
31.776[447, 124, 53, 66, 304, 264, 339, 436]
31.79[436, 118, 55, 68, 292, 279, 333, 394]
31.813[421, 126, 59, 65, 350, 271, 344, 369]
31.835[396, 129, 59, 59, 346, 259, 344, 391]
31.85[387, 119, 54, 60, 342, 259, 335, 374]
31.873[338, 117, 51, 64, 346, 213, 245, 291]
31.895[348, 123, 51, 64, 346, 171, 250, 288]
31.91[336, 108, 48, 64, 285, 185, 209, 328]
31.933[417, 104, 45, 65, 270, 180, 227, 323]
31.955[413, 117, 47, 65, 247, 192, 232, 333]
31.97[446, 118, 48, 66, 251, 192, 229, 359]
31.993[463, 120, 41, 64, 267, 208, 212, 369]
32.015[464, 130, 40, 66, 274, 170, 200, 325]
32.03[414, 134, 47, 64, 281, 197, 163, 313]
32.053[394, 131, 50, 65, 279, 181, 161, 319]
32.076[484, 192, 53, 59, 247, 181, 179, 338]
32.09[588, 204, 57, 58, 261, 173, 178, 367]
32.114[622, 210, 58, 55, 272, 191, 255, 396]
32.135[671, 210, 57, 73, 271, 209, 282, 398]
32.15[687, 206, 59, 76, 265, 208, 290, 453]
32.173[631, 156, 56, 78, 278, 210, 279, 419]
32.195[530, 132, 53, 89, 259, 221, 297, 396]
32.218[493, 120, 50, 90, 231, 214, 290, 385]
32.233[407, 120, 45, 77, 230, 171, 285, 415]
32.263[385, 128, 57, 75, 239, 165, 311, 362]
32.278[334, 123, 59, 74, 220, 170, 315, 369]
32.294[283, 120, 59, 75, 296, 155, 293, 329]
32.315[270, 110, 62, 106, 345, 158, 255, 318]
32.338[323, 104, 61, 112, 359, 165, 230, 286]
32.353[310, 97, 49, 117, 359, 160, 176, 304]
32.376[344, 92, 53, 136, 360, 164, 174, 305]
32.398[368, 105, 66, 145, 382, 182, 193, 367]
32.413[410, 153, 81, 142, 378, 179, 180, 367]
32.435[403, 152, 82, 140, 383, 197, 212, 368]
32.458[443, 147, 82, 136, 388, 205, 305, 443]
32.473[503, 173, 83, 117, 403, 208, 354, 465]
32.495[516, 187, 82, 99, 324, 202, 381, 500]
32.517[508, 168, 69, 70, 315, 227, 413, 531]
32.533[540, 179, 73, 65, 313, 241, 405, 594]
32.554[531, 189, 74, 65, 335, 244, 342, 551]
32.577[470, 171, 70, 69, 322, 243, 286, 529]
32.593[508, 167, 61, 63, 320, 232, 254, 473]
32.614[510, 184, 81, 64, 297, 210, 223, 493]
32.637[453, 170, 79, 64, 324, 179, 241, 439]
32.653[451, 168, 78, 91, 328, 177, 271, 429]
32.674[448, 167, 76, 99, 341, 214, 283, 448]
32.697[409, 166, 79, 102, 340, 237, 295, 446]
32.713[413, 135, 55, 100, 328, 254, 319, 498]
32.736[407, 132, 62, 97, 299, 250, 298, 477]
32.757[388, 123, 62, 73, 260, 251, 277, 460]
32.773[375, 126, 62, 58, 226, 213, 335, 437]
32.794[336, 105, 56, 54, 216, 189, 324, 435]
32.817[255, 94, 51, 53, 226, 159, 283, 294]
32.834[284, 96, 40, 50, 228, 165, 291, 315]
32.854[290, 92, 39, 50, 234, 179, 291, 357]
32.877[285, 79, 37, 48, 237, 185, 203, 429]
32.893[300, 100, 36, 56, 247, 183, 192, 432]
32.915[291, 104, 36, 57, 243, 182, 194, 427]
32.937[243, 100, 34, 61, 235, 183, 195, 495]
32.954[294, 102, 32, 56, 235, 159, 196, 455]
32.974[372, 104, 34, 69, 238, 160, 218, 436]
32.997[363, 88, 37, 75, 269, 153, 210, 422]
33.014[362, 83, 38, 83, 293, 147, 217, 447]
33.035[405, 80, 38, 81, 293, 148, 207, 346]
33.057[359, 85, 40, 93, 302, 161, 206, 350]
33.074[314, 83, 39, 93, 300, 167, 182, 303]
33.094[335, 96, 46, 90, 286, 203, 240, 406]
33.117[366, 100, 50, 86, 282, 217, 245, 408]
33.133[323, 113, 56, 97, 327, 222, 257, 402]
33.154[340, 112, 56, 92, 329, 215, 254, 395]
33.177[403, 120, 57, 90, 349, 199, 314, 411]
33.199[421, 125, 55, 86, 342, 180, 277, 322]
33.215[391, 122, 57, 88, 342, 178, 264, 313]
33.246[395, 111, 51, 92, 314, 169, 271, 355]
33.26[382, 104, 50, 97, 305, 161, 262, 356]
33.282[265, 91, 52, 125, 327, 162, 228, 332]
33.297[182, 61, 52, 132, 323, 179, 226, 309]
33.319[254, 79, 51, 154, 318, 184, 222, 312]
33.334[293, 84, 55, 181, 336, 179, 192, 279]
33.357[319, 88, 56, 180, 350, 185, 198, 293]
33.379[317, 88, 56, 160, 331, 199, 136, 259]
33.395[326, 90, 50, 154, 332, 171, 130, 266]
33.417[285, 73, 44, 141, 363, 196, 135, 237]
33.439[252, 71, 43, 93, 326, 261, 141, 243]
33.454[251, 74, 46, 91, 332, 275, 132, 236]
33.477[249, 71, 41, 91, 306, 273, 152, 269]
33.499[378, 95, 43, 96, 317, 277, 166, 270]
33.522[402, 97, 46, 79, 260, 260, 165, 293]
33.537[403, 95, 43, 77, 244, 196, 149, 259]
33.568[376, 94, 39, 66, 194, 173, 148, 257]
33.575[385, 97, 38, 66, 209, 158, 151, 229]
33.605[263, 74, 42, 64, 199, 150, 153, 274]
33.619[292, 98, 49, 67, 209, 148, 159, 253]
33.634[298, 97, 48, 74, 305, 145, 159, 252]
33.665[315, 98, 56, 90, 336, 185, 169, 295]
33.679[302, 95, 58, 87, 325, 193, 147, 301]
33.694[332, 100, 54, 85, 332, 200, 129, 252]
33.717[273, 73, 48, 94, 340, 193, 111, 250]
33.739[289, 76, 49, 100, 286, 217, 117, 268]
33.754[283, 74, 40, 90, 257, 181, 106, 212]
33.778[309, 83, 36, 90, 248, 174, 109, 195]
33.799[273, 70, 34, 87, 234, 158, 90, 188]
33.814[329, 80, 34, 72, 218, 142, 96, 207]
33.839[367, 90, 31, 55, 198, 92, 111, 223]
33.859[377, 88, 32, 57, 201, 94, 102, 215]
33.875[361, 80, 35, 58, 218, 96, 102, 217]
33.897[366, 84, 36, 64, 213, 104, 103, 225]
33.919[334, 74, 36, 73, 214, 110, 133, 229]
33.935[325, 63, 42, 72, 208, 122, 140, 238]
33.957[322, 66, 40, 69, 208, 126, 148, 242]
33.979[322, 90, 50, 67, 200, 123, 147, 240]
33.995[313, 92, 61, 66, 193, 153, 163, 280]
34.017[316, 101, 63, 61, 198, 199, 154, 271]
34.039[243, 97, 59, 67, 221, 202, 152, 253]
34.054[218, 96, 61, 69, 236, 220, 149, 252]
34.077[237, 71, 51, 68, 240, 223, 168, 296]
34.1[245, 72, 39, 68, 255, 208, 163, 289]
34.122[264, 78, 39, 63, 253, 174, 152, 291]
34.137[290, 82, 37, 63, 241, 165, 150, 298]
34.161[302, 81, 33, 60, 238, 131, 150, 298]
34.19[277, 82, 36, 66, 250, 148, 138, 267]
34.204[263, 78, 35, 64, 248, 179, 163, 309]
34.22[265, 68, 33, 70, 288, 172, 219, 315]
34.242[242, 68, 34, 63, 290, 180, 214, 300]
34.265[246, 64, 35, 64, 275, 210, 218, 296]
34.279[252, 66, 30, 62, 275, 201, 222, 328]
34.31[324, 69, 33, 64, 275, 168, 203, 262]
34.317[329, 81, 33, 59, 251, 167, 140, 254]
34.348[355, 82, 33, 62, 269, 191, 140, 275]
34.362[421, 93, 36, 64, 312, 191, 145, 337]
34.377[424, 90, 37, 61, 315, 193, 156, 297]
34.4[386, 88, 38, 64, 319, 193, 147, 291]
34.422[356, 68, 39, 64, 304, 200, 150, 290]
34.437[385, 76, 42, 63, 301, 186, 141, 317]
34.459[303, 68, 40, 64, 269, 169, 123, 250]
34.483[357, 86, 43, 72, 310, 176, 117, 295]
34.497[347, 85, 39, 66, 300, 189, 115, 293]
34.52[346, 84, 37, 63, 312, 175, 102, 275]
34.542[288, 71, 32, 59, 283, 149, 97, 205]
34.557[322, 74, 33, 56, 296, 147, 111, 271]
34.579[309, 77, 37, 53, 245, 149, 97, 247]
34.602[318, 76, 41, 60, 240, 149, 100, 254]
34.617[303, 75, 40, 64, 245, 155, 101, 249]
34.639[310, 80, 41, 64, 257, 162, 109, 279]
34.67[334, 76, 40, 60, 226, 173, 142, 336]
34.678[334, 70, 34, 60, 239, 158, 154, 337]
34.7[349, 71, 29, 56, 254, 145, 172, 337]
34.722[392, 91, 33, 55, 249, 158, 181, 341]
34.737[386, 101, 32, 57, 237, 160, 207, 336]
34.759[346, 105, 33, 58, 241, 139, 194, 232]
34.782[330, 98, 34, 53, 221, 145, 186, 217]
34.798[312, 107, 40, 56, 237, 173, 174, 204]
34.82[257, 90, 39, 56, 224, 249, 167, 184]
34.842[304, 81, 42, 59, 269, 256, 151, 204]
34.857[327, 83, 42, 63, 281, 257, 141, 243]
34.879[318, 80, 44, 73, 288, 263, 127, 236]
34.902[307, 69, 40, 72, 279, 258, 123, 245]
34.917[345, 75, 39, 70, 277, 188, 126, 275]
34.948[323, 70, 37, 71, 252, 195, 133, 281]
34.962[288, 64, 35, 70, 253, 207, 137, 247]
34.977[281, 74, 30, 57, 245, 187, 142, 241]
34.999[282, 71, 29, 53, 230, 167, 150, 269]
35.022[257, 68, 28, 49, 213, 162, 149, 245]
35.046[232, 68, 27, 44, 205, 150, 130, 229]
35.059[263, 80, 28, 37, 192, 145, 110, 236]
35.082[274, 76, 29, 58, 242, 159, 140, 287]
35.105[283, 78, 32, 61, 250, 170, 130, 259]
35.12[265, 76, 34, 70, 266, 162, 123, 258]
35.142[255, 77, 37, 76, 276, 157, 126, 238]
35.165[254, 67, 38, 85, 285, 151, 139, 267]
35.18[268, 74, 41, 74, 241, 146, 122, 249]
35.202[256, 71, 41, 73, 234, 161, 136, 259]
35.225[288, 74, 39, 71, 281, 184, 146, 352]
35.239[299, 76, 40, 67, 263, 188, 138, 352]
35.262[279, 82, 38, 60, 255, 181, 130, 334]
35.285[328, 82, 37, 61, 278, 186, 134, 335]
35.299[384, 85, 36, 60, 289, 180, 133, 364]
35.322[372, 85, 36, 51, 249, 151, 120, 276]
35.345[376, 82, 34, 46, 249, 140, 117, 268]
35.359[388, 69, 34, 38, 231, 146, 113, 248]
35.382[349, 54, 33, 38, 212, 169, 102, 247]
35.405[334, 73, 32, 39, 183, 150, 104, 201]
35.42[355, 77, 34, 65, 202, 159, 108, 196]
35.442[341, 73, 35, 81, 227, 170, 118, 192]
35.465[322, 74, 37, 113, 276, 180, 127, 240]
35.48[333, 87, 39, 126, 285, 156, 119, 212]
35.502[295, 73, 40, 126, 302, 162, 122, 208]
35.525[393, 81, 38, 116, 285, 166, 140, 267]
35.54[410, 88, 37, 106, 286, 158, 134, 291]
35.562[415, 90, 38, 91, 277, 161, 127, 260]
35.585[388, 80, 41, 81, 274, 167, 134, 268]
35.599[481, 107, 44, 84, 268, 172, 145, 316]
35.622[394, 102, 46, 88, 255, 166, 134, 303]
35.646[382, 99, 49, 100, 281, 165, 132, 288]
35.66[382, 97, 49, 90, 271, 155, 148, 313]
35.682[371, 98, 45, 85, 263, 155, 203, 389]
35.706[240, 71, 42, 79, 266, 151, 206, 353]
35.719[239, 66, 38, 72, 280, 149, 212, 361]
35.743[222, 62, 35, 55, 249, 141, 214, 365]
35.765[233, 69, 35, 48, 238, 147, 212, 394]
35.78[334, 79, 33, 43, 251, 136, 164, 317]
35.802[378, 87, 45, 52, 251, 171, 179, 329]
35.825[364, 89, 49, 59, 277, 178, 166, 306]
35.839[414, 110, 55, 70, 304, 192, 173, 359]
35.862[402, 112, 59, 86, 323, 186, 172, 304]
35.886[393, 110, 61, 92, 324, 198, 173, 307]
35.899[491, 117, 58, 89, 326, 164, 137, 324]
35.922[582, 136, 61, 88, 363, 161, 150, 306]
35.945[562, 123, 58, 87, 402, 165, 155, 271]
35.959[570, 126, 54, 70, 389, 163, 159, 275]
35.982[544, 150, 55, 69, 386, 157, 155, 324]
36.005[466, 157, 58, 79, 393, 157, 218, 315]
36.028[365, 143, 53, 77, 360, 164, 224, 319]
36.042[360, 146, 50, 68, 312, 161, 219, 286]
36.065[356, 144, 51, 71, 321, 167, 224, 310]
36.088[339, 122, 49, 65, 316, 160, 231, 247]
36.102[364, 103, 40, 59, 310, 169, 187, 252]
36.126[422, 114, 36, 58, 280, 171, 211, 340]
36.148[485, 137, 40, 60, 249, 193, 238, 359]
36.163[489, 144, 40, 55, 219, 198, 244, 341]
36.186[527, 141, 40, 54, 196, 208, 237, 348]
36.208[489, 139, 45, 60, 231, 203, 231, 354]
36.223[449, 128, 45, 60, 245, 200, 200, 280]
36.245[404, 98, 41, 59, 266, 178, 185, 290]
36.268[414, 89, 39, 60, 265, 165, 181, 320]
36.283[382, 79, 40, 59, 274, 147, 179, 316]
36.305[351, 70, 39, 59, 266, 198, 170, 277]
36.328[332, 74, 42, 64, 277, 191, 185, 308]
36.35[402, 93, 42, 62, 249, 187, 166, 299]
36.366[469, 133, 45, 61, 274, 197, 255, 280]
36.388[454, 136, 44, 64, 293, 224, 266, 351]
36.402[483, 141, 39, 51, 265, 175, 265, 352]
36.425[608, 155, 39, 41, 254, 171, 254, 324]
36.448[706, 296, 66, 47, 255, 163, 273, 356]
36.462[723, 301, 69, 52, 299, 156, 183, 341]
36.485[723, 302, 69, 62, 325, 116, 169, 273]
36.508[714, 302, 70, 71, 340, 131, 178, 304]
36.522[667, 307, 70, 74, 328, 150, 191, 311]
36.545[511, 173, 48, 87, 384, 149, 170, 282]
36.568[444, 133, 46, 103, 362, 163, 184, 339]
36.582[449, 131, 44, 101, 323, 177, 186, 345]
36.605[501, 144, 45, 96, 310, 172, 227, 336]
36.628[460, 121, 48, 101, 338, 186, 252, 374]
36.642[455, 119, 50, 102, 298, 200, 245, 353]
36.665[434, 117, 49, 88, 272, 194, 227, 287]
36.688[508, 118, 51, 84, 273, 190, 232, 301]
36.702[535, 123, 53, 86, 263, 196, 189, 337]
36.726[497, 113, 49, 83, 248, 182, 140, 310]
36.748[479, 99, 45, 74, 286, 182, 134, 312]
36.762[505, 101, 47, 73, 287, 187, 140, 338]
36.785[429, 103, 49, 84, 288, 176, 136, 335]
36.808[348, 80, 49, 87, 293, 164, 169, 310]
36.822[372, 82, 53, 94, 288, 163, 254, 309]
36.845[439, 93, 55, 100, 245, 168, 280, 392]
36.868[399, 91, 52, 107, 267, 188, 309, 432]
36.883[474, 128, 58, 102, 300, 224, 360, 537]
36.906[476, 129, 55, 106, 309, 236, 362, 531]
36.927[505, 140, 57, 116, 340, 260, 323, 526]
36.95[468, 133, 60, 145, 348, 261, 310, 487]
36.965[500, 142, 58, 141, 330, 239, 309, 461]
36.988[439, 116, 53, 140, 309, 215, 245, 308]
37.01[421, 108, 52, 138, 317, 207, 297, 357]
37.025[389, 100, 46, 122, 273, 186, 297, 347]
37.048[370, 99, 39, 89, 267, 170, 327, 318]
37.07[330, 82, 52, 129, 295, 177, 329, 326]
37.093[361, 90, 54, 137, 307, 171, 347, 380]
37.108[364, 97, 60, 150, 326, 175, 327, 331]
37.13[338, 90, 61, 155, 350, 172, 336, 369]
37.145[483, 119, 62, 149, 340, 169, 309, 389]
37.168[526, 133, 54, 114, 318, 170, 305, 397]
37.19[642, 178, 58, 105, 287, 195, 357, 383]
37.205[843, 234, 60, 82, 237, 219, 424, 561]
37.228[902, 288, 62, 74, 209, 223, 420, 614]
37.25[862, 294, 63, 75, 184, 229, 435, 610]
37.273[872, 305, 67, 78, 177, 221, 430, 608]
37.288[782, 279, 61, 73, 187, 195, 401, 599]
37.318[595, 249, 61, 78, 180, 174, 389, 452]
37.325[594, 196, 61, 78, 209, 192, 402, 399]
37.348[566, 172, 56, 76, 229, 187, 381, 384]
37.37[568, 156, 52, 75, 267, 195, 405, 341]
37.385[590, 157, 51, 83, 297, 219, 404, 347]
37.408[599, 140, 44, 76, 306, 221, 336, 355]
37.43[647, 195, 50, 71, 301, 198, 348, 316]
37.46[635, 194, 52, 74, 295, 209, 372, 341]
37.468[607, 187, 50, 79, 275, 218, 332, 341]
37.49[610, 195, 55, 76, 249, 205, 338, 350]
37.519[591, 187, 55, 78, 288, 197, 330, 364]
37.528[590, 141, 48, 82, 296, 193, 307, 402]
37.557[598, 139, 51, 94, 336, 214, 326, 399]
37.572[586, 140, 55, 85, 340, 219, 445, 501]
37.594[581, 133, 47, 88, 329, 222, 425, 477]
37.609[610, 150, 50, 131, 322, 231, 428, 452]
37.632[497, 123, 48, 139, 308, 228, 418, 423]
37.648[604, 146, 43, 133, 371, 212, 382, 431]
37.67[598, 141, 39, 133, 361, 187, 233, 322]
37.692[563, 128, 41, 131, 388, 189, 244, 375]
37.708[538, 121, 38, 88, 376, 181, 233, 367]
37.73[581, 137, 38, 73, 371, 194, 268, 377]
37.746[467, 118, 40, 69, 271, 195, 287, 374]
37.768[449, 121, 41, 70, 274, 215, 304, 369]
37.789[498, 139, 42, 68, 241, 205, 301, 322]
37.806[536, 162, 49, 75, 238, 206, 303, 341]
37.828[520, 155, 50, 79, 242, 227, 338, 333]
37.85[601, 171, 48, 76, 234, 217, 331, 316]
37.866[656, 184, 49, 74, 278, 208, 343, 328]
37.888[620, 173, 50, 74, 285, 260, 356, 312]
37.91[552, 138, 43, 64, 288, 263, 352, 314]
37.932[497, 131, 41, 59, 286, 232, 284, 289]
37.948[384, 106, 41, 53, 273, 236, 271, 272]
37.97[371, 104, 43, 58, 219, 266, 359, 331]
37.992[384, 104, 37, 60, 201, 217, 348, 336]
38.007[360, 104, 39, 59, 167, 205, 352, 299]
38.03[340, 100, 37, 52, 133, 212, 346, 275]
38.06[442, 123, 37, 53, 159, 208, 347, 309]
38.067[505, 129, 44, 68, 170, 187, 270, 320]
38.089[534, 137, 46, 70, 212, 189, 289, 333]
38.112[556, 141, 44, 74, 221, 188, 271, 336]
38.127[557, 142, 44, 73, 230, 209, 273, 338]
38.149[587, 183, 52, 75, 231, 205, 312, 351]
38.172[544, 189, 48, 69, 268, 189, 297, 262]
38.187[575, 190, 51, 66, 354, 191, 279, 291]
38.209[625, 204, 52, 64, 391, 199, 324, 341]
38.232[636, 207, 54, 71, 393, 179, 340, 352]
38.247[542, 157, 46, 74, 388, 188, 305, 310]
38.269[559, 139, 44, 64, 387, 193, 300, 352]
38.292[537, 142, 40, 62, 306, 202, 342, 348]
38.307[529, 135, 41, 68, 274, 194, 322, 341]
38.33[540, 136, 41, 64, 283, 194, 303, 325]
38.352[536, 134, 41, 59, 306, 179, 301, 322]
38.367[462, 125, 40, 65, 276, 178, 329, 363]
38.389[415, 114, 42, 62, 261, 167, 266, 351]
38.412[432, 115, 41, 59, 310, 174, 255, 322]
38.428[401, 107, 41, 60, 318, 167, 284, 412]
38.449[400, 107, 39, 61, 347, 169, 287, 419]
38.473[408, 105, 38, 53, 355, 164, 231, 347]
38.487[488, 120, 41, 53, 352, 147, 250, 326]
38.51[552, 148, 40, 53, 367, 163, 241, 401]
38.532[554, 149, 38, 50, 346, 179, 203, 315]
38.547[573, 154, 41, 50, 310, 188, 261, 328]
38.57[557, 156, 42, 50, 304, 193, 252, 342]
38.592[475, 141, 41, 62, 301, 207, 230, 361]
38.607[418, 111, 40, 63, 244, 190, 256, 261]
38.629[447, 115, 39, 64, 245, 176, 253, 255]
38.652[419, 107, 39, 64, 262, 173, 224, 274]
38.667[410, 99, 35, 63, 246, 153, 227, 244]
38.69[444, 102, 29, 50, 249, 135, 225, 302]
38.712[305, 72, 28, 39, 212, 129, 178, 294]
38.727[319, 71, 31, 41, 233, 155, 192, 314]
38.75[332, 75, 28, 41, 203, 148, 148, 281]
38.772[338, 83, 35, 50, 209, 170, 150, 334]
38.787[317, 72, 35, 47, 231, 172, 148, 266]
38.809[331, 76, 35, 52, 251, 171, 142, 286]
38.832[266, 69, 31, 53, 235, 138, 128, 269]
38.854[290, 66, 31, 51, 226, 135, 156, 329]
38.87[301, 56, 29, 45, 231, 117, 178, 351]
38.9[283, 58, 33, 67, 285, 137, 196, 364]
38.915[267, 51, 36, 70, 272, 134, 201, 356]
38.929[280, 58, 38, 72, 331, 151, 202, 396]
38.953[308, 71, 39, 72, 333, 153, 189, 349]
38.983[303, 73, 36, 70, 334, 145, 160, 301]
38.99[314, 75, 33, 59, 296, 133, 139, 277]
39.012[335, 78, 30, 58, 303, 131, 138, 293]
39.034[335, 73, 30, 56, 251, 113, 128, 228]
39.05[282, 69, 31, 68, 294, 144, 148, 300]
39.073[299, 73, 33, 81, 287, 151, 148, 285]
39.095[276, 84, 33, 85, 263, 151, 184, 310]
39.117[293, 97, 32, 84, 254, 158, 178, 290]
39.132[326, 98, 32, 82, 247, 171, 183, 306]
39.154[310, 94, 30, 73, 226, 156, 157, 231]
39.17[287, 90, 29, 65, 278, 156, 160, 235]
39.192[298, 77, 28, 58, 302, 157, 120, 259]
39.214[315, 72, 35, 63, 304, 146, 122, 264]
39.23[321, 76, 40, 80, 302, 158, 130, 246]
39.252[320, 73, 43, 85, 301, 161, 149, 282]
39.274[345, 73, 43, 82, 276, 158, 177, 310]
39.29[342, 81, 45, 82, 295, 163, 187, 288]
39.32[345, 79, 42, 81, 318, 183, 205, 283]
39.334[313, 75, 39, 66, 316, 176, 197, 280]
39.35[310, 76, 35, 57, 305, 169, 182, 261]
39.372[298, 74, 35, 62, 309, 167, 164, 219]
39.403[335, 78, 36, 64, 278, 154, 139, 180]
39.409[305, 70, 39, 61, 267, 146, 157, 237]
39.432[352, 76, 42, 65, 279, 150, 156, 248]
39.454[377, 87, 43, 66, 279, 180, 167, 241]
39.47[394, 95, 43, 67, 252, 203, 156, 226]
39.493[390, 87, 43, 73, 263, 228, 167, 239]
39.514[376, 81, 41, 96, 320, 231, 141, 193]
39.529[334, 75, 38, 101, 320, 216, 147, 187]
39.552[335, 72, 42, 106, 327, 195, 135, 198]
39.574[298, 64, 39, 105, 348, 178, 134, 195]
39.597[243, 64, 40, 117, 341, 157, 144, 227]
39.612[245, 68, 38, 98, 272, 153, 129, 221]
39.634[308, 75, 42, 92, 298, 164, 123, 266]
39.649[306, 74, 36, 86, 274, 169, 125, 250]
39.672[299, 75, 39, 85, 249, 159, 113, 255]
39.694[298, 77, 37, 62, 259, 150, 89, 269]
39.71[285, 74, 38, 66, 304, 145, 129, 307]
39.732[276, 77, 36, 70, 277, 134, 135, 281]
39.754[281, 80, 38, 74, 275, 121, 132, 275]
39.77[288, 79, 36, 73, 265, 118, 131, 271]
39.792[296, 76, 33, 66, 233, 112, 139, 308]
39.814[299, 75, 32, 69, 149, 131, 103, 271]
39.838[223, 59, 28, 60, 102, 125, 91, 258]
39.852[163, 41, 26, 54, 88, 110, 87, 257]
39.874[136, 35, 25, 51, 86, 114, 86, 257]
39.897[105, 37, 25, 51, 72, 115, 53, 121]
39.912[84, 39, 28, 55, 74, 94, 44, 101]
39.935[70, 42, 29, 63, 77, 111, 44, 88]
39.959[66, 43, 30, 60, 77, 114, 60, 190]
39.972[64, 55, 30, 62, 71, 117, 63, 194]
39.994[62, 59, 31, 64, 75, 118, 66, 199]
40.018[53, 61, 36, 66, 79, 106, 64, 203]
40.032[41, 109, 41, 65, 87, 89, 61, 200]
40.054[39, 111, 53, 123, 103, 84, 42, 101]
40.078[35, 112, 63, 143, 104, 74, 35, 88]
40.092[32, 112, 72, 190, 103, 86, 38, 64]
40.114[27, 116, 69, 197, 100, 80, 38, 49]
40.138[26, 73, 70, 200, 95, 79, 37, 47]
40.152[24, 76, 65, 184, 101, 97, 37, 37]
40.175[27, 74, 58, 216, 107, 97, 39, 31]
40.198[24, 70, 51, 189, 112, 87, 34, 30]
40.213[25, 59, 54, 196, 113, 108, 43, 28]
40.234[26, 57, 51, 239, 122, 118, 46, 29]
40.258[25, 51, 52, 270, 112, 104, 46, 29]
40.272[24, 39, 51, 250, 111, 100, 44, 29]
40.294[30, 54, 48, 253, 106, 99, 41, 28]
40.317[30, 55, 41, 244, 99, 72, 32, 28]
40.34[29, 55, 40, 211, 84, 67, 31, 44]
40.354[30, 50, 34, 169, 81, 63, 28, 45]
40.378[29, 55, 30, 147, 79, 63, 28, 44]
40.393[25, 51, 29, 141, 94, 58, 28, 45]
40.414[24, 51, 34, 142, 102, 56, 26, 45]
40.438[24, 51, 35, 126, 100, 35, 21, 28]
40.452[24, 56, 34, 118, 94, 33, 24, 25]
40.474[27, 55, 37, 121, 92, 33, 24, 24]
40.498[24, 47, 38, 105, 94, 35, 27, 24]
40.512[27, 60, 34, 93, 97, 40, 34, 31]
40.534[34, 67, 40, 108, 106, 42, 49, 125]
40.558[39, 69, 47, 115, 113, 46, 53, 133]
40.572[43, 71, 46, 109, 115, 45, 54, 137]
40.603[43, 70, 44, 110, 99, 41, 53, 138]
40.618[47, 89, 51, 133, 91, 38, 49, 139]
40.632[41, 91, 47, 129, 82, 33, 37, 71]
40.654[38, 89, 42, 127, 85, 28, 28, 53]
40.678[33, 88, 44, 132, 83, 32, 36, 52]
40.692[36, 88, 44, 127, 86, 32, 48, 126]
40.714[30, 58, 38, 112, 80, 43, 52, 135]
40.738[33, 53, 42, 130, 91, 45, 51, 137]
40.76[34, 54, 42, 120, 79, 45, 53, 140]
40.774[33, 68, 41, 114, 83, 49, 46, 139]
40.798[30, 71, 41, 113, 81, 51, 42, 83]
40.82[31, 72, 41, 103, 79, 43, 37, 63]
40.834[35, 73, 35, 69, 62, 41, 55, 153]
40.858[34, 72, 35, 84, 64, 40, 68, 192]
40.88[34, 52, 33, 91, 57, 31, 71, 201]
40.894[34, 51, 32, 108, 59, 27, 68, 199]
40.925[32, 46, 30, 118, 74, 23, 68, 201]
40.94[30, 36, 29, 113, 79, 22, 64, 164]
40.955[34, 37, 28, 103, 75, 23, 69, 178]
40.978[40, 42, 30, 102, 73, 24, 67, 172]
41.0[39, 42, 33, 85, 84, 23, 68, 172]
41.014[41, 60, 34, 84, 77, 27, 68, 173]
41.038[38, 60, 35, 86, 93, 27, 59, 153]
41.06[38, 60, 36, 96, 96, 27, 38, 70]
41.075[29, 58, 37, 90, 98, 27, 36, 55]
41.098[29, 70, 37, 98, 89, 29, 34, 48]
41.12[26, 61, 38, 96, 85, 27, 31, 41]
41.135[24, 61, 41, 96, 62, 27, 30, 37]
41.158[19, 60, 41, 82, 59, 27, 28, 29]
41.188[29, 63, 38, 84, 64, 27, 48, 133]
41.194[31, 49, 36, 75, 60, 23, 53, 141]
41.218[33, 41, 33, 61, 61, 24, 53, 144]
41.247[34, 42, 31, 69, 62, 24, 53, 147]
41.255[36, 45, 31, 80, 80, 25, 52, 149]
41.278[27, 42, 31, 86, 76, 25, 35, 76]
41.3[24, 40, 32, 94, 75, 26, 29, 58]
41.314[24, 43, 34, 99, 72, 24, 32, 53]
41.338[23, 40, 31, 91, 68, 24, 33, 47]
41.36[25, 32, 28, 79, 50, 23, 39, 86]
41.374[31, 29, 27, 68, 60, 24, 50, 135]
41.398[34, 36, 28, 73, 74, 32, 53, 143]
41.42[33, 37, 27, 74, 75, 34, 54, 144]
41.434[32, 37, 29, 77, 75, 33, 54, 145]
41.458[29, 38, 30, 77, 69, 33, 49, 125]
41.48[24, 41, 30, 76, 63, 35, 42, 70]
41.494[22, 37, 29, 61, 41, 28, 36, 53]
41.518[23, 39, 31, 64, 46, 26, 30, 45]
41.54[26, 49, 33, 85, 54, 30, 34, 40]
41.555[30, 49, 33, 85, 54, 33, 48, 130]
41.577[30, 48, 34, 88, 50, 30, 45, 135]
41.6[31, 47, 33, 90, 51, 31, 51, 141]
41.614[30, 41, 30, 90, 45, 32, 53, 143]
41.638[28, 29, 28, 70, 40, 29, 52, 143]
41.661[22, 26, 28, 67, 39, 26, 39, 74]
41.682[23, 28, 31, 68, 41, 26, 38, 59]
41.698[20, 30, 31, 75, 43, 24, 30, 48]
41.721[26, 39, 38, 82, 45, 25, 42, 122]
41.742[27, 42, 38, 85, 49, 23, 44, 130]
41.757[29, 42, 40, 87, 50, 25, 45, 133]
41.78[27, 40, 36, 83, 49, 23, 45, 134]
41.802[28, 40, 34, 77, 47, 24, 44, 133]
41.817[24, 36, 28, 62, 42, 22, 31, 73]
41.847[23, 36, 27, 61, 37, 21, 25, 57]
41.862[21, 36, 24, 60, 35, 19, 24, 46]
41.877[23, 36, 27, 58, 35, 23, 25, 44]
41.9[22, 35, 28, 65, 44, 23, 27, 42]
41.922[22, 34, 28, 69, 45, 22, 26, 44]
41.938[25, 43, 28, 73, 43, 24, 42, 126]
41.96[27, 45, 32, 77, 44, 24, 44, 137]
41.982[25, 47, 33, 105, 42, 22, 44, 139]
41.998[28, 48, 32, 97, 32, 24, 49, 143]
42.02[29, 48, 30, 96, 39, 24, 50, 142]
42.042[25, 39, 30, 89, 37, 23, 40, 81]
42.058[24, 38, 29, 86, 38, 22, 38, 61]
42.08[24, 51, 32, 57, 43, 22, 38, 54]
42.103[24, 52, 32, 52, 43, 26, 32, 40]
42.118[22, 49, 32, 54, 36, 35, 35, 39]
42.14[23, 50, 33, 52, 37, 41, 39, 40]
42.17[26, 52, 34, 54, 48, 43, 54, 137]
42.177[29, 46, 39, 99, 77, 46, 56, 145]
42.2[29, 48, 40, 107, 81, 47, 55, 149]
42.223[30, 47, 41, 109, 83, 42, 55, 150]
42.237[29, 45, 41, 109, 85, 39, 57, 150]
42.26[31, 42, 39, 109, 83, 37, 68, 193]
42.283[32, 32, 30, 93, 56, 34, 69, 198]
42.297[30, 27, 28, 90, 53, 33, 77, 206]
42.32[32, 28, 29, 101, 54, 31, 78, 211]
42.343[32, 33, 29, 116, 58, 32, 77, 211]
42.357[30, 37, 30, 118, 50, 38, 59, 119]
42.38[35, 39, 30, 99, 49, 42, 83, 207]
42.403[37, 41, 34, 95, 46, 41, 79, 207]
42.417[36, 42, 33, 83, 43, 42, 78, 206]
42.44[35, 37, 32, 58, 40, 39, 77, 208]
42.463[33, 34, 30, 52, 39, 33, 77, 211]
42.477[25, 32, 29, 48, 40, 28, 50, 114]
42.5[31, 29, 25, 49, 40, 25, 77, 237]
42.522[33, 28, 24, 62, 39, 23, 79, 250]
42.544[36, 35, 25, 74, 42, 23, 79, 250]
42.561[37, 37, 26, 78, 47, 23, 80, 254]
42.582[38, 38, 27, 82, 48, 23, 80, 258]
42.604[31, 37, 29, 103, 50, 27, 54, 149]
42.621[30, 36, 31, 97, 49, 27, 63, 187]
42.642[31, 30, 31, 93, 47, 27, 85, 235]
42.664[33, 26, 28, 90, 41, 26, 93, 244]
42.681[57, 25, 28, 87, 39, 26, 96, 243]
42.702[58, 26, 24, 59, 39, 22, 97, 247]
42.724[63, 26, 22, 58, 40, 46, 116, 296]
42.741[65, 28, 28, 55, 47, 89, 103, 268]
42.762[64, 27, 28, 55, 49, 107, 96, 257]
42.784[45, 28, 32, 60, 53, 115, 99, 263]
42.801[52, 27, 33, 68, 56, 122, 112, 347]
42.822[45, 26, 35, 79, 57, 129, 87, 279]
42.844[40, 35, 30, 93, 49, 116, 85, 276]
42.861[39, 36, 30, 94, 49, 110, 85, 272]
42.882[38, 36, 30, 119, 50, 104, 79, 265]
42.904[32, 38, 29, 116, 46, 101, 78, 189]
42.921[32, 40, 27, 108, 46, 83, 88, 200]
42.942[32, 35, 29, 95, 45, 78, 87, 196]
42.964[31, 45, 33, 95, 46, 67, 86, 194]
42.981[32, 45, 29, 64, 41, 66, 87, 190]
43.002[34, 44, 27, 70, 45, 57, 63, 123]
43.025[40, 44, 27, 67, 43, 56, 77, 191]
43.041[41, 39, 24, 68, 41, 40, 77, 198]
43.062[41, 25, 23, 71, 37, 29, 77, 199]
43.084[40, 21, 23, 76, 38, 25, 79, 199]
43.101[33, 20, 24, 65, 32, 23, 78, 199]
43.122[26, 21, 23, 64, 29, 21, 57, 144]
43.144[24, 24, 26, 65, 31, 22, 58, 147]
43.161[30, 26, 23, 66, 40, 22, 99, 247]
43.182[33, 43, 26, 62, 40, 25, 99, 252]
43.204[37, 44, 29, 65, 45, 27, 101, 254]
43.221[38, 43, 31, 63, 46, 36, 100, 243]
43.242[39, 44, 30, 65, 51, 37, 102, 248]
43.264[36, 45, 33, 88, 49, 50, 72, 164]
43.281[35, 31, 32, 85, 50, 51, 85, 199]
43.302[33, 33, 30, 85, 47, 53, 90, 209]
43.324[31, 32, 28, 87, 48, 48, 86, 194]
43.347[32, 29, 27, 88, 44, 48, 89, 194]
43.362[32, 30, 26, 77, 44, 43, 85, 200]
43.384[31, 31, 29, 78, 42, 48, 67, 158]
43.401[30, 29, 29, 75, 41, 46, 57, 143]
43.422[28, 30, 30, 77, 39, 45, 54, 139]
43.444[30, 30, 32, 83, 40, 45, 56, 163]
43.461[30, 28, 31, 89, 45, 42, 59, 147]
43.482[33, 26, 28, 89, 47, 36, 69, 180]
43.504[35, 28, 30, 91, 46, 35, 70, 186]
43.519[36, 26, 31, 87, 52, 37, 74, 193]
43.542[32, 27, 27, 82, 50, 37, 66, 155]
43.564[31, 26, 29, 60, 45, 32, 62, 145]
43.587[30, 27, 28, 53, 41, 32, 67, 158]
43.602[31, 25, 24, 51, 42, 34, 79, 200]
43.624[31, 24, 25, 48, 35, 42, 77, 200]
43.647[31, 24, 28, 39, 36, 42, 74, 197]
43.662[29, 23, 25, 44, 33, 43, 76, 201]
43.684[26, 22, 26, 48, 46, 43, 62, 161]
43.707[24, 22, 27, 77, 46, 41, 45, 94]
43.722[25, 24, 26, 81, 49, 30, 61, 152]
43.746[26, 24, 25, 85, 47, 32, 65, 159]
43.767[29, 26, 27, 94, 51, 32, 65, 155]
43.782[31, 26, 29, 94, 41, 39, 67, 155]
43.804[29, 25, 30, 75, 47, 41, 65, 155]
43.827[27, 24, 30, 72, 45, 40, 60, 114]
43.842[29, 23, 27, 76, 48, 37, 61, 119]
43.864[31, 24, 28, 60, 45, 35, 76, 174]
43.887[31, 22, 24, 55, 43, 24, 88, 207]
43.902[31, 21, 24, 54, 34, 24, 89, 210]
43.924[30, 22, 24, 52, 33, 25, 85, 200]
43.947[28, 25, 25, 39, 29, 29, 81, 192]
43.962[23, 22, 24, 40, 28, 28, 66, 144]
43.984[25, 24, 26, 48, 38, 27, 54, 136]
44.007[26, 26, 26, 55, 42, 24, 60, 151]
44.022[30, 25, 26, 71, 48, 24, 80, 193]
44.045[29, 23, 26, 72, 50, 23, 83, 196]
44.067[31, 23, 27, 77, 51, 23, 79, 196]
44.082[29, 22, 26, 77, 50, 30, 77, 170]
44.104[34, 24, 26, 74, 48, 33, 83, 206]
44.127[32, 24, 25, 63, 41, 36, 64, 168]
44.142[32, 23, 27, 63, 38, 35, 66, 164]
44.165[31, 24, 26, 54, 36, 37, 77, 201]
44.187[31, 24, 25, 49, 28, 52, 77, 202]
44.202[24, 22, 24, 44, 27, 57, 67, 150]
44.224[25, 23, 24, 37, 32, 65, 67, 155]
44.247[27, 24, 25, 36, 34, 67, 77, 200]
44.262[28, 24, 25, 33, 37, 75, 72, 168]
44.286[28, 25, 25, 31, 36, 64, 70, 167]
44.307[48, 27, 26, 32, 37, 61, 70, 177]
44.329[48, 25, 25, 44, 34, 51, 68, 168]
44.344[48, 25, 23, 44, 34, 50, 71, 177]
44.367[46, 26, 28, 54, 42, 80, 71, 181]
44.382[47, 26, 28, 60, 47, 81, 72, 178]
44.404[27, 23, 27, 67, 47, 84, 76, 202]
44.427[27, 27, 28, 60, 45, 88, 76, 205]
44.442[37, 27, 27, 59, 43, 88, 68, 172]
44.464[39, 27, 22, 53, 35, 55, 63, 161]
44.487[40, 30, 20, 59, 31, 57, 62, 159]
44.502[38, 31, 20, 50, 30, 49, 54, 110]
44.524[38, 31, 23, 51, 32, 41, 53, 103]
44.547[33, 32, 23, 53, 33, 40, 71, 188]
44.57[31, 30, 24, 50, 36, 40, 82, 211]
44.584[29, 30, 26, 38, 41, 34, 82, 212]
44.607[32, 29, 26, 46, 42, 45, 91, 228]
44.63[31, 45, 25, 73, 42, 45, 92, 230]
44.652[28, 44, 25, 73, 42, 49, 71, 151]
44.667[39, 51, 32, 82, 60, 114, 79, 205]
44.698[40, 50, 31, 80, 57, 130, 82, 220]
44.705[41, 50, 36, 83, 72, 165, 75, 207]
44.727[40, 35, 36, 69, 82, 180, 77, 207]
44.749[41, 37, 38, 72, 90, 195, 83, 222]
44.764[34, 30, 35, 73, 92, 203, 74, 182]
44.787[34, 32, 35, 76, 95, 197, 79, 184]
44.809[32, 31, 29, 70, 84, 168, 76, 190]
44.833[39, 32, 30, 65, 77, 179, 76, 190]
44.847[42, 30, 27, 57, 70, 166, 69, 167]
44.878[42, 29, 26, 41, 49, 121, 57, 131]
44.884[44, 28, 26, 40, 41, 128, 65, 170]
44.907[46, 29, 26, 53, 40, 137, 73, 190]
44.929[41, 27, 25, 50, 35, 102, 73, 197]
44.944[37, 35, 25, 52, 35, 114, 70, 198]
44.967[33, 35, 24, 57, 38, 113, 70, 196]
44.989[29, 33, 23, 70, 42, 97, 54, 143]
45.004[26, 34, 25, 67, 50, 114, 46, 100]
45.027[37, 34, 23, 68, 49, 119, 84, 256]
45.049[38, 27, 25, 69, 49, 108, 96, 279]
45.064[39, 26, 24, 66, 52, 121, 98, 286]
45.087[40, 27, 27, 50, 47, 126, 98, 288]
45.109[40, 25, 26, 41, 38, 100, 96, 290]
45.124[28, 24, 26, 41, 38, 92, 65, 162]
45.147[29, 23, 24, 44, 40, 81, 77, 219]
45.169[34, 24, 26, 46, 34, 57, 81, 234]
45.184[34, 23, 22, 56, 33, 63, 87, 235]
45.207[36, 26, 24, 61, 41, 80, 87, 234]
45.229[35, 26, 24, 58, 42, 82, 85, 232]
45.253[34, 34, 25, 55, 40, 83, 62, 143]
45.267[34, 34, 27, 52, 37, 81, 81, 213]
45.289[42, 35, 29, 43, 39, 68, 74, 213]
45.304[43, 34, 27, 33, 31, 44, 79, 217]
45.327[44, 40, 26, 31, 32, 41, 79, 219]
45.349[44, 36, 25, 31, 32, 40, 86, 237]
45.364[42, 37, 25, 33, 35, 54, 75, 199]
45.387[35, 37, 25, 31, 35, 54, 77, 198]
45.41[40, 39, 26, 31, 35, 55, 73, 196]
45.424[45, 36, 27, 38, 31, 60, 73, 202]
45.447[52, 34, 33, 41, 28, 62, 66, 190]
45.47[52, 33, 34, 41, 25, 50, 58, 145]
45.493[52, 32, 34, 41, 27, 52, 64, 179]
45.507[47, 31, 33, 40, 27, 52, 79, 223]
45.53[44, 28, 35, 36, 35, 62, 80, 225]
45.552[35, 26, 30, 29, 40, 66, 81, 246]
45.567[38, 24, 26, 26, 41, 67, 74, 241]
45.59[51, 26, 24, 30, 40, 72, 76, 242]
45.613[51, 26, 23, 32, 43, 72, 76, 233]
45.627[49, 26, 22, 31, 40, 71, 79, 240]
45.65[49, 27, 22, 32, 35, 66, 81, 215]
45.673[51, 29, 23, 36, 42, 69, 82, 210]
45.687[42, 26, 22, 38, 47, 65, 82, 222]
45.71[45, 29, 27, 42, 56, 113, 81, 204]
45.733[46, 28, 26, 42, 61, 107, 80, 200]
45.747[47, 30, 27, 43, 63, 111, 78, 202]
45.77[43, 32, 30, 44, 65, 151, 85, 239]
45.793[39, 34, 31, 42, 63, 153, 77, 223]
45.807[35, 31, 30, 40, 59, 133, 66, 208]
45.83[34, 32, 32, 38, 57, 135, 69, 217]
45.853[45, 30, 32, 39, 61, 148, 72, 239]
45.867[47, 30, 31, 35, 55, 114, 84, 254]
45.89[48, 30, 30, 34, 52, 119, 83, 237]
45.912[48, 32, 30, 39, 56, 127, 81, 235]
45.927[48, 31, 27, 40, 59, 127, 80, 242]
45.95[36, 31, 27, 47, 58, 121, 88, 226]
45.972[34, 29, 24, 51, 62, 126, 93, 234]
45.987[32, 27, 25, 51, 64, 145, 96, 230]
46.01[33, 27, 25, 75, 64, 139, 95, 228]
46.032[34, 26, 29, 79, 58, 137, 95, 225]
46.047[34, 25, 28, 75, 55, 138, 90, 218]
46.07[33, 29, 31, 74, 54, 132, 82, 209]
46.092[33, 30, 31, 75, 56, 107, 86, 220]
46.107[32, 29, 30, 51, 47, 100, 88, 224]
46.13[33, 30, 29, 48, 51, 100, 87, 225]
46.153[31, 30, 29, 51, 63, 112, 81, 217]
46.167[30, 26, 28, 49, 62, 106, 73, 187]
46.19[32, 28, 28, 49, 60, 106, 66, 185]
46.213[38, 45, 27, 45, 61, 111, 72, 192]
46.227[35, 46, 28, 45, 60, 118, 77, 197]
46.25[38, 46, 27, 51, 51, 100, 91, 239]
46.272[38, 47, 26, 54, 51, 103, 85, 220]
46.287[37, 47, 29, 52, 49, 107, 87, 219]
46.31[31, 41, 28, 52, 49, 110, 95, 227]
46.333[38, 45, 27, 53, 50, 117, 103, 252]
46.347[36, 44, 30, 45, 49, 113, 92, 220]
46.37[35, 44, 31, 50, 49, 110, 93, 218]
46.393[35, 45, 31, 50, 51, 104, 91, 209]
46.415[38, 35, 31, 59, 63, 101, 83, 207]
46.43[33, 29, 29, 57, 60, 85, 74, 176]
46.453[36, 45, 32, 61, 67, 110, 72, 174]
46.475[35, 46, 32, 53, 65, 111, 69, 167]
46.491[36, 45, 31, 53, 65, 110, 68, 165]
46.512[42, 45, 32, 45, 57, 130, 107, 284]
46.535[43, 46, 34, 42, 57, 138, 102, 269]
46.55[40, 31, 31, 33, 45, 127, 104, 272]
46.58[42, 38, 31, 44, 58, 139, 104, 275]
46.595[43, 38, 33, 45, 65, 145, 112, 295]
46.61[34, 38, 34, 61, 72, 126, 88, 215]
46.632[33, 39, 31, 69, 74, 128, 87, 211]
46.655[32, 44, 32, 76, 78, 126, 86, 204]
46.67[29, 37, 39, 71, 71, 127, 88, 201]
46.693[29, 46, 36, 78, 72, 137, 89, 206]
46.715[30, 50, 37, 66, 66, 132, 90, 235]
46.731[33, 50, 39, 59, 67, 138, 101, 257]
46.752[32, 46, 38, 53, 63, 141, 103, 262]
46.775[34, 45, 30, 53, 65, 132, 103, 265]
46.79[31, 35, 29, 40, 56, 115, 93, 238]
46.812[33, 29, 30, 38, 51, 119, 98, 260]
46.835[30, 28, 30, 40, 53, 115, 84, 237]
46.85[32, 27, 33, 43, 57, 131, 80, 233]
46.872[33, 27, 37, 42, 55, 128, 92, 239]
46.895[34, 27, 38, 48, 62, 136, 93, 241]
46.909[29, 26, 34, 50, 64, 134, 70, 130]
46.932[32, 24, 34, 48, 62, 129, 85, 190]
46.955[31, 25, 27, 51, 57, 108, 89, 194]
46.969[30, 40, 22, 54, 59, 107, 76, 181]
46.992[31, 41, 23, 51, 59, 105, 73, 175]
47.015[34, 43, 26, 48, 57, 109, 81, 197]
47.029[33, 44, 28, 49, 53, 105, 80, 194]
47.052[32, 44, 29, 61, 67, 103, 79, 198]
47.075[31, 31, 30, 61, 67, 110, 78, 200]
47.089[29, 28, 27, 79, 65, 100, 76, 203]
47.112[27, 28, 27, 83, 67, 95, 66, 178]
47.135[29, 26, 25, 87, 68, 90, 63, 178]
47.149[30, 25, 27, 81, 59, 83, 73, 200]
47.172[31, 25, 25, 80, 56, 94, 75, 202]
47.196[32, 27, 29, 62, 57, 104, 77, 206]
47.21[30, 23, 29, 60, 52, 100, 78, 204]
47.233[34, 27, 30, 58, 57, 109, 89, 254]
47.255[36, 27, 30, 55, 66, 122, 81, 239]
47.269[37, 30, 29, 57, 66, 105, 93, 260]
47.293[36, 28, 31, 54, 66, 108, 95, 261]
47.315[37, 28, 28, 55, 77, 107, 94, 262]
47.329[29, 26, 26, 65, 86, 97, 78, 161]
47.352[30, 30, 25, 65, 79, 74, 87, 197]
47.375[30, 42, 31, 68, 80, 70, 80, 193]
47.398[29, 41, 28, 71, 78, 62, 77, 192]
47.413[29, 43, 27, 70, 71, 67, 77, 195]
47.435[29, 44, 27, 60, 55, 65, 71, 191]
47.458[26, 43, 29, 57, 53, 64, 54, 135]
47.473[27, 30, 25, 61, 53, 64, 68, 169]
47.495[34, 43, 26, 57, 50, 48, 86, 211]
47.518[35, 44, 29, 56, 52, 63, 90, 210]
47.533[34, 41, 29, 51, 51, 63, 93, 214]
47.554[34, 40, 29, 52, 51, 65, 92, 213]
47.577[33, 41, 28, 45, 56, 66, 88, 211]
47.593[28, 30, 25, 43, 56, 64, 82, 214]
47.614[34, 41, 25, 41, 50, 66, 79, 217]
47.637[36, 44, 28, 40, 49, 73, 77, 219]
47.653[37, 44, 25, 37, 46, 73, 80, 223]
47.674[37, 43, 26, 48, 39, 75, 84, 209]
47.697[38, 42, 27, 54, 38, 78, 75, 172]
47.713[34, 27, 25, 56, 36, 62, 87, 211]
47.734[33, 24, 22, 59, 41, 71, 91, 215]
47.757[33, 25, 24, 59, 47, 74, 90, 215]
47.773[30, 23, 23, 50, 44, 72, 80, 195]
47.794[30, 23, 24, 43, 44, 71, 84, 218]
47.817[29, 23, 24, 44, 46, 67, 78, 201]
47.833[28, 25, 25, 47, 41, 45, 72, 197]
47.854[27, 25, 25, 47, 36, 37, 70, 193]
47.878[27, 25, 26, 44, 34, 33, 65, 188]
47.893[25, 25, 24, 43, 33, 28, 61, 187]
47.922[24, 26, 23, 42, 31, 64, 58, 177]
47.937[26, 25, 23, 33, 33, 69, 61, 183]
47.953[28, 25, 24, 28, 30, 71, 67, 192]
47.974[32, 26, 23, 32, 31, 73, 78, 230]
47.997[31, 26, 23, 39, 37, 73, 74, 203]
48.013[36, 28, 23, 44, 41, 50, 86, 230]
48.034[34, 27, 25, 51, 42, 66, 85, 225]
48.058[36, 28, 23, 53, 44, 68, 83, 221]
48.073[34, 27, 23, 53, 46, 71, 92, 232]
48.094[35, 27, 24, 49, 42, 73, 95, 232]
48.117[31, 23, 23, 48, 38, 70, 80, 186]
48.133[34, 25, 23, 40, 38, 49, 99, 237]
48.154[34, 22, 25, 40, 36, 42, 98, 234]
48.177[31, 23, 26, 38, 33, 37, 78, 174]
48.193[34, 27, 26, 36, 36, 58, 82, 204]
48.214[34, 28, 29, 34, 38, 60, 84, 209]
48.237[30, 27, 28, 34, 38, 59, 59, 148]
48.254[33, 28, 27, 41, 37, 64, 82, 205]
48.274[40, 28, 24, 50, 38, 64, 99, 246]
48.297[38, 25, 26, 54, 39, 69, 97, 227]
48.319[38, 26, 27, 59, 40, 68, 96, 226]
48.334[38, 25, 25, 61, 40, 68, 94, 224]
48.357[35, 24, 25, 56, 41, 65, 76, 175]
48.379[27, 25, 28, 49, 41, 64, 70, 181]
48.394[27, 25, 28, 47, 41, 35, 64, 196]
48.425[28, 24, 25, 43, 37, 37, 64, 197]
48.439[32, 25, 27, 44, 37, 37, 76, 214]
48.454[29, 27, 26, 46, 37, 56, 75, 213]
48.477[27, 26, 24, 45, 39, 68, 60, 154]
48.499[34, 29, 32, 54, 51, 147, 96, 255]
48.514[36, 30, 32, 53, 54, 159, 97, 257]
48.537[32, 29, 32, 50, 56, 169, 94, 246]
48.559[34, 30, 32, 47, 55, 168, 94, 249]
48.574[35, 30, 33, 49, 54, 166, 102, 255]
48.597[28, 28, 25, 38, 49, 121, 65, 118]
48.619[35, 29, 25, 38, 50, 107, 96, 229]
48.634[37, 29, 27, 35, 51, 106, 99, 240]
48.657[36, 25, 26, 43, 51, 100, 100, 240]
48.68[37, 25, 27, 50, 53, 106, 96, 239]
48.702[36, 22, 28, 57, 53, 96, 95, 240]
48.717[32, 26, 29, 57, 49, 95, 75, 179]
48.74[33, 26, 27, 59, 50, 94, 76, 194]
48.756[35, 27, 28, 60, 49, 97, 77, 198]
48.777[34, 29, 26, 58, 50, 92, 75, 194]
48.799[35, 30, 24, 49, 44, 83, 75, 193]
48.814[29, 27, 23, 49, 43, 81, 63, 148]
48.837[25, 26, 22, 45, 36, 60, 49, 91]
48.859[28, 26, 23, 35, 37, 54, 59, 146]
48.874[33, 27, 26, 28, 32, 46, 68, 185]
48.897[34, 25, 26, 29, 33, 47, 74, 210]
48.927[35, 25, 25, 27, 33, 46, 74, 214]
48.934[36, 28, 27, 30, 35, 64, 74, 217]
48.957[35, 30, 27, 39, 36, 68, 71, 212]
48.979[31, 29, 32, 46, 53, 152, 69, 186]
48.994[29, 32, 33, 48, 52, 155, 62, 159]
49.017[28, 31, 33, 49, 53, 165, 72, 168]
49.039[29, 29, 32, 52, 55, 163, 82, 194]
49.054[25, 28, 33, 46, 54, 172, 78, 162]
49.077[30, 25, 25, 38, 36, 107, 71, 196]
49.099[30, 22, 25, 35, 36, 104, 76, 201]
49.114[31, 24, 25, 37, 40, 93, 67, 194]
49.137[31, 24, 23, 31, 38, 86, 70, 211]
49.159[31, 23, 25, 40, 45, 79, 70, 208]
49.175[25, 23, 25, 43, 46, 89, 68, 170]
49.197[28, 24, 26, 43, 45, 90, 70, 204]
49.219[29, 24, 28, 43, 44, 100, 72, 203]
49.242[29, 27, 31, 48, 60, 153, 62, 159]
49.257[29, 26, 28, 41, 59, 156, 61, 155]
49.279[29, 26, 28, 37, 59, 155, 64, 152]
49.302[26, 25, 30, 42, 62, 154, 56, 88]
49.317[27, 26, 27, 50, 63, 164, 71, 147]
49.339[29, 22, 26, 47, 49, 124, 81, 185]
49.362[28, 26, 28, 47, 47, 113, 82, 191]
49.377[29, 25, 26, 47, 44, 106, 84, 200]
49.399[28, 30, 24, 43, 42, 104, 86, 201]
49.422[26, 27, 24, 31, 36, 70, 69, 158]
49.437[23, 28, 22, 29, 34, 49, 50, 110]
49.459[25, 26, 21, 31, 33, 67, 45, 95]
49.482[34, 27, 20, 38, 35, 67, 68, 221]
49.497[39, 25, 22, 44, 45, 98, 74, 238]
49.527[39, 25, 24, 44, 44, 103, 76, 243]
49.542[39, 28, 24, 42, 43, 105, 76, 244]
49.557[39, 27, 24, 48, 42, 92, 75, 246]
49.579[32, 26, 26, 46, 44, 95, 51, 132]
49.602[27, 23, 24, 39, 32, 65, 56, 154]
49.617[28, 26, 23, 47, 37, 58, 56, 151]
49.639[32, 25, 23, 70, 40, 58, 76, 209]
49.67[32, 26, 23, 69, 41, 55, 78, 210]
49.677[32, 27, 21, 73, 38, 44, 77, 213]
49.699[32, 28, 24, 74, 42, 99, 79, 218]
49.722[33, 26, 24, 75, 42, 109, 78, 217]
49.737[29, 25, 23, 61, 38, 110, 71, 195]
49.759[30, 26, 28, 73, 40, 114, 80, 200]
49.782[32, 25, 28, 81, 40, 114, 83, 207]
49.797[31, 23, 26, 81, 36, 71, 77, 188]
49.819[30, 22, 26, 77, 36, 55, 81, 195]
49.85[29, 23, 28, 80, 43, 50, 71, 161]
49.857[32, 22, 25, 69, 50, 78, 73, 203]
49.879[30, 23, 26, 58, 50, 80, 69, 194]
49.902[32, 24, 27, 57, 55, 92, 67, 213]
49.917[31, 26, 27, 76, 56, 97, 61, 206]
49.939[31, 26, 27, 73, 51, 99, 62, 204]
49.962[32, 25, 27, 75, 45, 93, 72, 191]
49.977[32, 27, 29, 81, 51, 124, 85, 221]
49.999[32, 26, 28, 88, 51, 120, 87, 191]
50.022[32, 25, 28, 73, 46, 116, 92, 212]
50.038[33, 24, 27, 78, 47, 117, 93, 217]
50.059[29, 33, 27, 100, 43, 106, 73, 187]
50.082[32, 37, 24, 99, 36, 66, 60, 155]
50.097[29, 35, 29, 104, 32, 55, 69, 171]
50.119[32, 38, 29, 107, 37, 52, 78, 210]
50.142[32, 37, 29, 104, 38, 46, 78, 210]
50.157[36, 32, 30, 81, 38, 39, 93, 228]
50.179[33, 27, 30, 77, 39, 37, 91, 224]
50.202[32, 29, 26, 60, 39, 36, 78, 199]
50.225[32, 26, 28, 65, 36, 62, 79, 178]
50.239[37, 45, 31, 66, 39, 79, 85, 208]
50.262[36, 44, 30, 74, 47, 83, 75, 195]
50.285[37, 45, 29, 71, 50, 85, 74, 196]
50.299[38, 45, 29, 72, 48, 87, 78, 200]
50.322[34, 46, 27, 62, 50, 71, 60, 156]
50.345[36, 32, 27, 54, 45, 51, 90, 241]
50.359[34, 31, 24, 46, 41, 43, 88, 243]
50.382[33, 29, 24, 43, 34, 41, 88, 242]
50.405[32, 28, 24, 46, 36, 41, 84, 241]
50.419[33, 28, 25, 46, 36, 41, 89, 245]
50.442[24, 23, 20, 44, 40, 38, 48, 111]
50.465[28, 25, 26, 98, 38, 36, 54, 134]
50.479[29, 26, 29, 110, 42, 34, 66, 167]
50.502[31, 29, 30, 111, 42, 54, 69, 175]
50.525[31, 28, 29, 112, 38, 56, 67, 169]
50.547[30, 29, 30, 113, 35, 60, 68, 170]
50.562[30, 26, 30, 76, 35, 66, 73, 167]
50.585[29, 25, 28, 60, 31, 66, 69, 168]
50.599[31, 25, 28, 75, 30, 49, 75, 186]
50.622[32, 25, 30, 76, 32, 47, 79, 208]
50.645