[26, 21, 26, 23, 22, 21, 24, 23]
1.93[23, 20, 24, 23, 24, 23, 24, 24]
1.945[24, 21, 24, 22, 24, 22, 24, 26]
1.968[21, 20, 23, 19, 27, 23, 24, 26]
1.991[18, 19, 22, 19, 26, 22, 25, 22]
2.005[19, 20, 20, 20, 24, 18, 24, 19]
2.028[18, 21, 21, 19, 23, 17, 24, 20]
2.051[16, 19, 19, 19, 23, 18, 23, 17]
2.065[18, 20, 19, 20, 18, 19, 19, 15]
2.087[17, 20, 20, 21, 18, 19, 19, 19]
2.111[16, 19, 21, 18, 17, 23, 18, 21]
2.125[18, 21, 21, 19, 17, 23, 17, 20]
2.147[19, 20, 23, 18, 18, 23, 19, 21]
2.171[20, 20, 23, 18, 18, 22, 19, 20]
2.185[21, 21, 22, 16, 18, 21, 19, 17]
2.207[22, 21, 21, 16, 21, 19, 21, 16]
2.231[23, 19, 21, 17, 23, 19, 21, 19]
2.245[22, 21, 19, 18, 21, 18, 19, 21]
2.268[21, 21, 21, 18, 22, 18, 21, 22]
2.291[21, 21, 21, 19, 22, 19, 20, 23]
2.305[18, 20, 20, 19, 21, 19, 18, 24]
2.328[17, 21, 19, 19, 22, 19, 18, 21]
2.351[18, 22, 19, 19, 22, 19, 21, 19]
2.365[19, 20, 16, 19, 21, 20, 19, 20]
2.388[17, 19, 16, 20, 22, 19, 21, 21]
2.411[19, 22, 17, 19, 19, 21, 20, 20]
2.433[18, 20, 19, 20, 20, 20, 21, 22]
2.448[20, 19, 21, 19, 20, 21, 19, 22]
2.471[20, 20, 22, 19, 20, 20, 20, 21]
2.493[19, 20, 23, 17, 20, 21, 19, 21]
2.508[18, 17, 22, 21, 20, 19, 20, 24]
2.531[19, 16, 22, 20, 17, 19, 18, 22]
2.553[18, 18, 22, 20, 16, 19, 20, 21]
2.569[18, 18, 21, 21, 20, 18, 20, 22]
2.591[20, 19, 23, 22, 20, 20, 20, 23]
2.613[21, 18, 24, 20, 20, 19, 19, 19]
2.628[21, 19, 23, 19, 22, 20, 20, 20]
2.651[19, 19, 23, 21, 22, 22, 19, 21]
2.673[19, 20, 22, 21, 21, 22, 19, 19]
2.688[17, 20, 18, 19, 21, 21, 20, 17]
2.711[16, 22, 17, 20, 23, 21, 21, 17]
2.733[16, 22, 21, 19, 22, 19, 20, 17]
2.748[18, 22, 21, 20, 24, 17, 20, 16]
2.771[17, 23, 22, 19, 22, 20, 20, 17]
2.794[16, 21, 22, 22, 21, 19, 21, 18]
2.808[17, 20, 23, 22, 22, 22, 22, 18]
2.83[16, 22, 20, 22, 22, 21, 22, 19]
2.853[19, 18, 21, 21, 20, 22, 21, 20]
2.876[20, 16, 21, 22, 21, 20, 20, 19]
2.898[20, 28, 21, 21, 20, 20, 18, 21]
2.913[19, 29, 22, 20, 18, 19, 15, 22]
2.936[21, 28, 22, 19, 20, 19, 16, 20]
2.957[20, 28, 22, 18, 21, 20, 18, 22]
2.974[19, 30, 22, 19, 21, 22, 18, 22]
2.995[19, 19, 21, 19, 24, 23, 19, 20]
3.017[19, 18, 21, 19, 25, 22, 19, 20]
3.034[18, 20, 21, 20, 23, 22, 19, 21]
3.055[16, 20, 20, 20, 23, 23, 18, 19]
3.077[17, 19, 20, 19, 24, 21, 20, 22]
3.094[19, 18, 21, 18, 20, 18, 21, 21]
3.115[20, 18, 21, 17, 20, 22, 20, 23]
3.137[19, 17, 21, 17, 20, 22, 19, 25]
3.154[19, 20, 21, 18, 19, 21, 19, 23]
3.175[19, 20, 21, 21, 19, 22, 17, 21]
3.198[18, 20, 19, 22, 19, 23, 18, 22]
3.214[18, 22, 20, 22, 21, 20, 18, 21]
3.235[18, 23, 21, 22, 20, 19, 19, 18]
3.257[19, 23, 20, 21, 21, 18, 18, 20]
3.274[18, 21, 21, 18, 22, 17, 18, 21]
3.295[17, 20, 24, 19, 22, 17, 17, 21]
3.318[17, 23, 22, 19, 21, 19, 17, 20]
3.334[18, 24, 21, 19, 21, 20, 20, 19]
3.355[16, 22, 22, 18, 24, 22, 21, 22]
3.379[18, 23, 20, 20, 23, 21, 21, 21]
3.394[20, 26, 20, 21, 23, 21, 21, 21]
3.415[20, 21, 20, 21, 24, 19, 20, 19]
3.437[19, 20, 19, 21, 25, 18, 17, 21]
3.454[21, 21, 21, 21, 21, 16, 18, 18]
3.475[20, 20, 21, 19, 22, 17, 17, 18]
3.497[20, 20, 20, 20, 22, 20, 17, 17]
3.514[20, 22, 22, 20, 22, 21, 17, 20]
3.535[20, 22, 25, 20, 20, 23, 18, 18]
3.557[18, 23, 24, 19, 23, 23, 16, 18]
3.574[21, 25, 26, 20, 22, 24, 17, 21]
3.595[20, 23, 25, 18, 23, 23, 17, 21]
3.617[20, 21, 24, 19, 21, 22, 17, 19]
3.634[22, 23, 23, 18, 21, 20, 17, 21]
3.655[22, 24, 23, 20, 19, 21, 18, 22]
3.677[22, 21, 23, 21, 23, 20, 17, 21]
3.694[22, 23, 24, 24, 23, 19, 18, 20]
3.715[21, 23, 25, 23, 23, 18, 19, 20]
3.737[19, 21, 25, 24, 24, 19, 19, 21]
3.754[20, 21, 24, 22, 24, 19, 17, 21]
3.782[19, 21, 22, 22, 20, 19, 17, 19]
3.797[18, 20, 21, 22, 21, 19, 18, 21]
3.814[18, 21, 22, 20, 21, 19, 17, 23]
3.835[19, 22, 23, 22, 22, 19, 18, 22]
3.857[18, 20, 24, 22, 21, 19, 19, 22]
3.88[19, 19, 24, 22, 22, 20, 20, 22]
3.895[21, 20, 26, 21, 20, 20, 20, 23]
3.917[23, 20, 24, 20, 22, 21, 20, 22]
3.94[23, 17, 22, 18, 21, 21, 19, 20]
3.955[25, 17, 19, 20, 22, 23, 21, 20]
3.977[23, 19, 20, 21, 22, 22, 20, 21]
4.0[24, 19, 18, 19, 22, 22, 19, 19]
4.015[23, 19, 16, 21, 22, 21, 20, 18]
4.037[21, 20, 18, 22, 23, 19, 20, 20]
4.06[21, 21, 21, 21, 23, 17, 21, 20]
4.075[22, 21, 20, 21, 22, 16, 21, 20]
4.097[21, 22, 20, 22, 23, 16, 22, 20]
4.122[20, 21, 22, 23, 21, 16, 21, 22]
4.135[21, 23, 20, 23, 21, 17, 21, 21]
4.157[21, 22, 20, 23, 20, 18, 19, 25]
4.18[22, 24, 20, 22, 19, 20, 19, 24]
4.195[20, 23, 20, 22, 18, 19, 17, 23]
4.218[22, 22, 21, 22, 19, 18, 20, 23]
4.24[21, 21, 21, 20, 20, 18, 20, 21]
4.255[21, 21, 20, 21, 21, 18, 17, 17]
4.277[21, 20, 21, 20, 22, 18, 18, 17]
4.3[20, 19, 20, 18, 25, 17, 19, 18]
4.315[17, 20, 23, 19, 23, 18, 18, 17]
4.338[19, 20, 22, 19, 23, 22, 19, 17]
4.36[20, 21, 25, 21, 22, 20, 19, 20]
4.375[20, 20, 26, 22, 22, 20, 18, 20]
4.406[20, 22, 26, 26, 17, 21, 16, 19]
4.42[20, 22, 23, 23, 19, 21, 15, 20]
4.435[19, 23, 25, 25, 19, 20, 15, 21]
4.457[18, 24, 24, 22, 18, 22, 16, 18]
4.48[17, 24, 22, 21, 19, 21, 15, 18]
4.495[19, 21, 22, 20, 19, 21, 18, 21]
4.517[20, 20, 21, 21, 17, 21, 18, 20]
4.54[20, 24, 20, 20, 19, 20, 18, 19]
4.555[20, 22, 19, 21, 20, 19, 18, 19]
4.577[20, 22, 18, 22, 20, 18, 20, 19]
4.6[17, 24, 17, 21, 20, 18, 18, 16]
4.615[17, 25, 17, 22, 21, 19, 17, 19]
4.638[19, 20, 22, 23, 20, 19, 17, 19]
4.66[17, 22, 21, 22, 20, 19, 16, 23]
4.675[17, 23, 22, 22, 20, 19, 15, 23]
4.697[20, 22, 23, 20, 21, 19, 16, 25]
4.72[20, 23, 25, 20, 21, 18, 19, 21]
4.735[17, 26, 21, 22, 21, 18, 18, 24]
4.757[18, 25, 23, 23, 21, 19, 19, 21]
4.78[18, 23, 22, 22, 20, 20, 18, 21]
4.803[18, 22, 21, 23, 20, 19, 18, 21]
4.817[18, 22, 22, 23, 19, 19, 17, 22]
4.84[19, 21, 23, 22, 20, 18, 18, 18]
4.862[20, 19, 21, 24, 20, 18, 18, 20]
4.877[21, 18, 22, 24, 21, 18, 19, 21]
4.9[19, 19, 23, 22, 22, 21, 21, 20]
4.922[20, 21, 21, 21, 23, 21, 21, 20]
4.937[21, 21, 20, 20, 21, 23, 21, 19]
4.96[21, 22, 21, 18, 22, 22, 22, 20]
4.982[21, 23, 21, 17, 21, 21, 21, 19]
4.997[21, 24, 20, 19, 22, 19, 18, 20]
5.02[20, 22, 20, 20, 21, 19, 17, 20]
5.042[19, 22, 19, 21, 22, 23, 16, 22]
5.057[18, 22, 18, 19, 23, 22, 16, 21]
5.08[18, 22, 18, 21, 23, 23, 16, 22]
5.102[20, 21, 19, 21, 22, 23, 14, 21]
5.117[20, 20, 19, 22, 21, 23, 16, 20]
5.14[19, 19, 19, 22, 20, 18, 18, 20]
5.162[20, 19, 20, 21, 20, 21, 19, 18]
5.177[21, 21, 20, 22, 20, 21, 19, 18]
5.2[19, 23, 18, 22, 20, 19, 21, 17]
5.222[20, 22, 18, 22, 22, 20, 20, 17]
5.237[20, 22, 19, 22, 22, 20, 18, 17]
5.26[20, 22, 20, 23, 21, 19, 17, 16]
5.282[18, 21, 19, 21, 21, 19, 18, 15]
5.297[17, 18, 19, 20, 19, 19, 16, 19]
5.32[19, 20, 19, 20, 21, 20, 16, 20]
5.342[19, 19, 19, 20, 20, 19, 16, 19]
5.357[19, 21, 19, 19, 21, 19, 17, 20]
5.38[18, 19, 20, 19, 20, 18, 16, 21]
5.403[18, 21, 20, 19, 21, 21, 19, 18]
5.417[17, 20, 19, 18, 20, 21, 19, 17]
5.44[17, 23, 19, 16, 21, 23, 19, 19]
5.462[18, 21, 18, 16, 19, 25, 17, 22]
5.477[20, 22, 17, 16, 20, 25, 20, 20]
5.5[22, 21, 19, 18, 20, 24, 18, 22]
5.522[22, 20, 21, 19, 16, 24, 20, 23]
5.539[21, 18, 24, 19, 17, 24, 21, 23]
5.56[21, 18, 24, 19, 18, 20, 23, 20]
5.582[20, 19, 24, 20, 17, 20, 22, 19]
5.597[21, 19, 23, 21, 19, 22, 22, 18]
5.62[20, 24, 23, 21, 22, 21, 20, 17]
5.643[22, 24, 21, 20, 22, 23, 20, 16]
5.657[22, 24, 23, 20, 22, 25, 19, 17]
5.68[23, 24, 22, 20, 23, 25, 18, 18]
5.703[21, 27, 22, 17, 22, 25, 17, 18]
5.717[21, 23, 20, 17, 21, 24, 17, 21]
5.74[19, 24, 23, 17, 21, 21, 20, 21]
5.763[20, 24, 21, 17, 21, 20, 20, 21]
5.786[19, 23, 21, 17, 19, 22, 19, 23]
5.8[17, 21, 24, 19, 19, 19, 20, 24]
5.831[22, 24, 24, 20, 18, 18, 20, 23]
5.846[20, 23, 24, 21, 19, 20, 15, 23]
5.86[22, 23, 26, 22, 19, 19, 17, 22]
5.882[22, 24, 26, 23, 19, 21, 18, 21]
5.906[25, 24, 23, 24, 18, 22, 21, 19]
5.92[24, 23, 22, 23, 16, 23, 21, 16]
5.943[24, 23, 20, 23, 15, 25, 22, 19]
5.966[24, 23, 19, 22, 15, 25, 22, 18]
5.98[24, 21, 19, 24, 17, 23, 22, 18]
6.002[22, 23, 21, 20, 17, 22, 18, 20]
6.025[21, 22, 21, 22, 19, 23, 18, 22]
6.04[26, 21, 22, 23, 19, 23, 21, 21]
6.063[25, 22, 22, 23, 20, 23, 19, 21]
6.085[25, 23, 22, 21, 19, 25, 20, 21]
6.1[25, 20, 23, 22, 20, 26, 22, 21]
6.123[22, 21, 23, 20, 19, 25, 22, 17]
6.145[16, 20, 21, 19, 20, 22, 19, 19]
6.161[14, 23, 20, 20, 21, 21, 20, 18]
6.183[16, 24, 21, 21, 22, 19, 20, 21]
6.205[16, 23, 21, 20, 23, 17, 21, 22]
6.22[17, 23, 23, 20, 24, 17, 28, 22]
6.243[20, 24, 23, 20, 25, 17, 27, 22]
6.265[20, 22, 23, 19, 22, 17, 26, 22]
6.28[20, 20, 23, 19, 22, 17, 26, 18]
6.303[20, 19, 20, 19, 20, 19, 25, 22]
6.326[23, 19, 21, 19, 21, 23, 17, 22]
6.34[22, 18, 19, 19, 19, 24, 17, 21]
6.363[24, 19, 21, 17, 19, 25, 21, 22]
6.386[23, 20, 20, 19, 20, 25, 20, 23]
6.4[25, 21, 21, 21, 21, 26, 20, 21]
6.423[24, 24, 21, 22, 21, 24, 21, 22]
6.445[22, 23, 22, 23, 24, 24, 21, 22]
6.46[23, 23, 21, 24, 26, 24, 21, 22]
6.483[23, 23, 20, 23, 26, 25, 21, 21]
6.505[21, 23, 21, 25, 24, 24, 23, 19]
6.52[18, 19, 19, 23, 23, 22, 23, 19]
6.543[20, 21, 19, 22, 21, 24, 24, 20]
6.566[18, 20, 22, 25, 19, 24, 22, 20]
6.58[18, 19, 21, 25, 18, 26, 22, 19]
6.603[20, 20, 20, 21, 19, 25, 20, 20]
6.625[21, 20, 19, 21, 22, 27, 18, 19]
6.64[20, 19, 18, 21, 21, 24, 21, 19]
6.663[21, 20, 16, 17, 23, 24, 21, 18]
6.686[21, 20, 18, 17, 24, 23, 22, 19]
6.709[18, 19, 21, 17, 22, 23, 23, 19]
6.723[20, 21, 20, 18, 19, 25, 29, 20]
6.745[19, 22, 21, 18, 20, 25, 27, 22]
6.768[19, 22, 22, 20, 19, 23, 29, 22]
6.783[19, 24, 22, 21, 19, 24, 29, 21]
6.806[21, 24, 22, 22, 20, 22, 28, 21]
6.828[22, 24, 24, 22, 20, 19, 22, 21]
6.843[23, 22, 24, 21, 20, 18, 21, 20]
6.865[23, 20, 24, 22, 20, 20, 18, 20]
6.888[23, 17, 23, 19, 20, 20, 20, 21]
6.904[25, 19, 20, 19, 20, 21, 23, 21]
6.925[21, 18, 19, 19, 20, 24, 24, 21]
6.948[21, 18, 21, 21, 19, 24, 23, 18]
6.963[21, 23, 19, 20, 21, 25, 24, 21]
6.985[20, 24, 21, 23, 23, 24, 23, 19]
7.008[20, 22, 22, 22, 22, 22, 20, 17]
7.023[19, 21, 22, 22, 25, 22, 21, 18]
7.045[20, 22, 21, 20, 26, 23, 21, 19]
7.068[19, 23, 22, 20, 24, 21, 21, 18]
7.083[20, 24, 19, 17, 21, 24, 19, 18]
7.106[19, 25, 19, 17, 22, 28, 19, 18]
7.129[20, 26, 20, 17, 21, 26, 19, 19]
7.143[19, 28, 20, 17, 21, 27, 20, 20]
7.166[20, 24, 21, 16, 22, 27, 19, 20]
7.188[21, 24, 23, 16, 22, 27, 21, 22]
7.202[19, 23, 23, 16, 23, 24, 22, 24]
7.225[18, 22, 21, 17, 22, 25, 22, 22]
7.248[19, 19, 20, 17, 20, 23, 21, 22]
7.263[20, 21, 19, 19, 19, 24, 21, 21]
7.285[20, 20, 17, 20, 19, 24, 22, 20]
7.308[21, 24, 18, 22, 20, 24, 22, 18]
7.323[20, 24, 18, 21, 19, 26, 21, 18]
7.345[20, 25, 20, 23, 20, 25, 22, 18]
7.369[19, 27, 19, 23, 21, 24, 21, 18]
7.382[17, 26, 19, 25, 22, 23, 20, 19]
7.406[20, 24, 19, 23, 19, 24, 19, 20]
7.428[21, 24, 20, 24, 21, 18, 18, 20]
7.442[21, 24, 19, 20, 21, 20, 16, 20]
7.465[21, 22, 20, 20, 20, 21, 20, 21]
7.488[21, 23, 20, 18, 19, 20, 20, 19]
7.502[20, 21, 20, 19, 20, 20, 20, 24]
7.525[20, 22, 19, 18, 20, 20, 20, 24]
7.548[19, 22, 18, 21, 22, 20, 20, 22]
7.562[19, 21, 17, 21, 22, 18, 20, 22]
7.586[19, 19, 20, 19, 22, 19, 20, 22]
7.608[18, 20, 19, 18, 23, 22, 22, 15]
7.622[18, 20, 22, 19, 23, 22, 22, 16]
7.646[19, 19, 23, 19, 21, 21, 23, 17]
7.668[22, 19, 24, 19, 23, 25, 22, 17]
7.691[21, 21, 22, 21, 23, 25, 22, 16]
7.713[20, 20, 22, 20, 22, 21, 20, 21]
7.735[20, 18, 19, 21, 21, 23, 19, 24]
7.75[18, 18, 20, 19, 21, 22, 20, 23]
7.765[17, 18, 19, 19, 20, 19, 21, 23]
7.788[18, 15, 20, 19, 20, 19, 20, 24]
7.81[19, 16, 22, 19, 20, 21, 21, 20]
7.825[20, 17, 21, 17, 19, 19, 22, 16]
7.848[23, 21, 21, 17, 19, 20, 23, 17]
7.871[22, 23, 20, 17, 20, 20, 21, 20]
7.885[23, 25, 19, 17, 20, 18, 21, 19]
7.907[23, 24, 19, 16, 19, 18, 23, 20]
7.93[23, 24, 23, 20, 20, 19, 23, 20]
7.946[20, 20, 23, 21, 22, 20, 21, 24]
7.967[21, 20, 23, 22, 21, 19, 23, 23]
7.99[22, 20, 23, 21, 21, 20, 23, 23]
8.006[22, 22, 23, 21, 21, 19, 20, 22]
8.027[23, 23, 19, 19, 22, 20, 20, 23]
8.05[22, 27, 18, 18, 23, 19, 20, 20]
8.066[20, 26, 19, 20, 22, 18, 17, 18]
8.087[19, 26, 19, 20, 23, 20, 23, 18]
8.111[19, 23, 19, 23, 22, 20, 25, 20]
8.126[17, 25, 22, 22, 23, 20, 24, 21]
8.148[20, 21, 21, 21, 21, 20, 24, 22]
8.17[23, 20, 21, 21, 20, 21, 25, 22]
8.186[23, 21, 20, 23, 20, 20, 20, 21]
8.207[21, 23, 20, 20, 20, 22, 20, 21]
8.23[21, 21, 16, 23, 19, 22, 19, 24]
8.246[22, 20, 20, 24, 18, 23, 19, 22]
8.268[21, 22, 19, 22, 20, 25, 17, 22]
8.29[21, 23, 19, 21, 18, 23, 17, 23]
8.306[24, 23, 20, 23, 18, 22, 18, 24]
8.327[24, 23, 21, 20, 18, 21, 19, 21]
8.351[23, 22, 20, 19, 18, 21, 21, 22]
8.366[21, 24, 21, 20, 19, 18, 20, 22]
8.387[21, 21, 22, 21, 18, 21, 21, 23]
8.41[20, 21, 22, 19, 19, 20, 18, 20]
8.426[20, 21, 22, 20, 19, 20, 19, 21]
8.447[18, 22, 20, 20, 23, 20, 18, 21]
8.47[18, 19, 22, 21, 23, 18, 18, 22]
8.486[20, 19, 22, 20, 23, 17, 17, 19]
8.507[19, 20, 21, 21, 23, 20, 19, 22]
8.53[18, 21, 21, 19, 24, 19, 18, 22]
8.546[20, 20, 22, 20, 21, 19, 18, 21]
8.569[21, 21, 18, 19, 19, 19, 18, 20]
8.591[20, 22, 18, 21, 19, 19, 22, 20]
8.612[19, 22, 19, 22, 21, 18, 21, 17]
8.627[19, 22, 21, 25, 21, 19, 21, 16]
8.65[19, 23, 22, 22, 19, 21, 22, 17]
8.672[18, 21, 22, 22, 21, 21, 21, 18]
8.687[16, 21, 21, 21, 22, 20, 20, 19]
8.71[19, 20, 21, 20, 19, 19, 19, 19]
8.733[18, 19, 20, 18, 18, 21, 19, 19]
8.747[18, 19, 20, 18, 20, 19, 19, 20]
8.77[20, 21, 19, 20, 25, 21, 18, 18]
8.794[21, 20, 22, 19, 25, 23, 18, 18]
8.807[19, 19, 21, 21, 25, 23, 20, 18]
8.83[20, 22, 21, 20, 30, 21, 20, 17]
8.852[19, 21, 21, 21, 29, 21, 19, 17]
8.867[16, 19, 20, 21, 24, 20, 24, 19]
8.89[18, 22, 17, 22, 25, 17, 22, 18]
8.912[21, 23, 17, 21, 25, 20, 21, 19]
8.927[20, 21, 17, 20, 19, 19, 20, 21]
8.95[20, 22, 17, 20, 19, 19, 21, 21]
8.972[21, 23, 19, 19, 19, 18, 19, 19]
8.987[23, 22, 19, 18, 19, 21, 18, 19]
9.01[21, 24, 20, 19, 18, 20, 20, 19]
9.033[22, 23, 19, 21, 20, 21, 21, 18]
9.047[22, 22, 20, 23, 19, 22, 20, 18]
9.07[24, 22, 18, 26, 20, 22, 22, 18]
9.092[21, 23, 17, 26, 20, 21, 22, 18]
9.107[21, 22, 17, 24, 22, 19, 20, 20]
9.13[19, 23, 18, 24, 20, 19, 19, 21]
9.152[19, 23, 18, 20, 23, 20, 21, 21]
9.167[46, 25, 21, 19, 24, 23, 19, 22]
9.19[51, 25, 21, 20, 21, 23, 20, 24]
9.212[53, 22, 22, 21, 20, 24, 20, 22]
9.227[55, 21, 21, 22, 23, 25, 22, 23]
9.25[56, 21, 21, 25, 20, 24, 20, 23]
9.272[36, 18, 20, 24, 21, 19, 19, 23]
9.287[29, 18, 21, 26, 23, 20, 21, 21]
9.311[25, 19, 18, 25, 22, 22, 20, 23]
9.332[21, 20, 19, 23, 20, 21, 19, 20]
9.355[18, 22, 19, 21, 21, 22, 19, 22]
9.377[18, 20, 20, 23, 19, 23, 21, 20]
9.392[16, 19, 19, 19, 19, 22, 18, 20]
9.415[17, 21, 20, 21, 21, 22, 19, 19]
9.43[18, 22, 21, 22, 20, 24, 20, 19]
9.452[19, 19, 22, 23, 21, 23, 20, 18]
9.467[20, 22, 22, 20, 21, 24, 19, 19]
9.49[19, 22, 24, 23, 23, 23, 21, 20]
9.512[17, 21, 24, 22, 22, 21, 21, 21]
9.535[19, 20, 24, 21, 23, 18, 21, 20]
9.55[22, 20, 23, 20, 22, 17, 20, 21]
9.58[22, 17, 21, 20, 23, 16, 20, 23]
9.595[22, 17, 18, 20, 19, 16, 19, 23]
9.61[23, 17, 20, 19, 21, 18, 19, 21]
9.632[22, 18, 19, 21, 22, 19, 19, 21]
9.655[19, 17, 23, 22, 23, 21, 19, 21]
9.67[18, 18, 25, 22, 22, 21, 20, 18]
9.692[18, 19, 25, 20, 22, 21, 19, 17]
9.715[17, 18, 24, 20, 21, 20, 19, 17]
9.73[16, 19, 25, 19, 21, 19, 19, 20]
9.752[16, 19, 21, 18, 20, 19, 19, 20]
9.775[18, 19, 18, 18, 21, 18, 17, 19]
9.79[17, 19, 18, 18, 22, 19, 17, 19]
9.812[19, 19, 20, 19, 22, 19, 17, 19]
9.835[20, 19, 20, 20, 21, 19, 17, 18]
9.851[20, 20, 19, 20, 22, 20, 19, 18]
9.872[20, 19, 22, 25, 23, 25, 19, 18]
9.895[21, 20, 24, 26, 26, 29, 20, 21]
9.911[20, 20, 23, 27, 27, 30, 23, 20]
9.932[21, 21, 22, 25, 27, 31, 23, 20]
9.955[21, 25, 25, 28, 31, 40, 26, 21]
9.97[23, 33, 26, 30, 45, 43, 27, 24]
9.992[21, 32, 27, 37, 98, 52, 29, 22]
10.015[23, 34, 30, 38, 106, 54, 29, 23]
10.03[22, 34, 29, 40, 106, 57, 29, 22]
10.052[22, 32, 27, 39, 106, 51, 26, 22]
10.075[20, 25, 27, 35, 103, 46, 26, 19]
10.09[21, 25, 24, 26, 54, 34, 23, 19]
10.112[22, 28, 25, 26, 41, 36, 21, 19]
10.135[21, 27, 28, 24, 42, 30, 20, 21]
10.15[21, 27, 28, 25, 40, 31, 22, 20]
10.18[24, 28, 26, 23, 35, 33, 20, 22]
10.212[24, 30, 30, 26, 37, 38, 24, 22]
10.213[22, 27, 27, 25, 33, 38, 25, 21]
10.232[23, 29, 25, 26, 33, 38, 25, 21]
10.255[21, 28, 25, 28, 38, 42, 24, 20]
10.27[23, 36, 28, 30, 42, 49, 26, 21]
10.292[25, 37, 31, 37, 71, 52, 27, 22]
10.323[27, 42, 40, 50, 147, 78, 37, 26]
10.33[30, 46, 43, 55, 164, 83, 39, 29]
10.352[32, 48, 45, 63, 171, 87, 43, 35]
10.375[45, 60, 71, 90, 215, 119, 77, 53]
10.39[58, 75, 81, 111, 267, 169, 98, 73]
10.412[86, 100, 108, 151, 351, 200, 113, 83]
10.443[97, 115, 148, 198, 441, 251, 130, 90]
10.45[123, 156, 237, 344, 533, 303, 154, 102]
10.472[165, 198, 332, 490, 590, 321, 154, 113]
10.495[176, 216, 364, 523, 619, 328, 149, 104]
10.518[178, 209, 372, 532, 602, 310, 138, 102]
10.532[199, 241, 456, 624, 558, 300, 135, 103]
10.555[217, 273, 511, 664, 534, 314, 131, 112]
10.578[196, 251, 464, 574, 473, 337, 146, 107]
10.592[213, 236, 446, 553, 422, 328, 144, 110]
10.615[234, 250, 454, 549, 387, 357, 155, 113]
10.638[231, 222, 378, 456, 374, 358, 151, 108]
10.653[233, 157, 247, 290, 283, 321, 137, 92]
10.675[252, 152, 232, 280, 283, 308, 122, 86]
10.698[235, 159, 249, 283, 271, 298, 122, 83]
10.712[208, 131, 214, 272, 267, 266, 113, 73]
10.75[212, 120, 188, 233, 271, 272, 116, 74]
10.765[200, 117, 177, 222, 293, 251, 111, 74]
10.772[166, 105, 170, 225, 296, 228, 97, 63]
10.795[160, 87, 124, 192, 324, 232, 94, 63]
10.818[164, 104, 152, 250, 321, 243, 99, 64]
10.832[254, 102, 146, 273, 335, 230, 94, 77]
10.855[273, 103, 158, 276, 352, 254, 99, 81]
10.878[277, 103, 167, 269, 333, 237, 99, 81]
10.893[285, 102, 169, 278, 324, 246, 105, 85]
10.915[302, 89, 138, 222, 326, 244, 101, 98]
10.938[225, 87, 136, 182, 314, 235, 97, 86]
10.952[210, 81, 122, 176, 273, 209, 93, 81]
10.975[207, 91, 115, 168, 266, 206, 89, 81]
10.998[198, 98, 159, 200, 251, 192, 84, 76]
11.012[212, 120, 218, 252, 260, 204, 96, 82]
11.035[220, 129, 243, 279, 269, 205, 93, 84]
11.058[221, 138, 260, 294, 280, 209, 95, 87]
11.072[222, 137, 263, 316, 288, 225, 102, 90]
11.095[232, 128, 238, 295, 291, 224, 99, 91]
11.118[194, 110, 198, 242, 276, 206, 85, 72]
11.132[173, 109, 190, 245, 273, 218, 105, 73]
11.155[175, 110, 196, 253, 272, 235, 109, 76]
11.178[201, 109, 188, 221, 263, 230, 108, 82]
11.192[202, 114, 191, 232, 278, 256, 116, 86]
11.215[219, 108, 180, 238, 280, 270, 118, 85]
11.238[224, 104, 157, 210, 261, 269, 109, 84]
11.252[198, 101, 150, 201, 253, 268, 111, 79]
11.275[173, 100, 162, 211, 264, 265, 107, 69]
11.298[162, 99, 169, 227, 260, 251, 101, 62]
11.313[156, 108, 188, 243, 260, 265, 108, 67]
11.335[153, 120, 204, 262, 318, 306, 122, 75]
11.358[155, 117, 191, 279, 364, 305, 115, 71]
11.38[165, 118, 190, 300, 380, 324, 120, 73]
11.396[172, 121, 191, 286, 360, 320, 121, 74]
11.418[178, 120, 187, 288, 371, 306, 117, 72]
11.441[200, 114, 181, 271, 339, 291, 103, 68]
11.456[215, 103, 167, 249, 304, 287, 103, 69]
11.478[213, 102, 180, 239, 272, 263, 96, 69]
11.5[227, 99, 173, 238, 283, 265, 94, 70]
11.516[213, 91, 152, 216, 279, 251, 86, 63]
11.538[195, 72, 132, 209, 263, 201, 75, 57]
11.56[203, 71, 134, 218, 284, 218, 76, 60]
11.576[191, 67, 120, 207, 310, 246, 83, 59]
11.598[162, 61, 114, 191, 307, 231, 78, 55]
11.621[181, 64, 136, 215, 288, 225, 77, 63]
11.643[228, 69, 143, 225, 270, 219, 79, 75]
11.658[207, 78, 161, 215, 234, 183, 75, 73]
11.68[207, 76, 154, 214, 199, 130, 63, 71]
11.695[263, 82, 170, 229, 224, 135, 65, 78]
11.718[264, 82, 160, 222, 215, 146, 67, 76]
11.74[219, 76, 150, 220, 242, 177, 71, 61]
11.755[227, 73, 140, 219, 240, 187, 72, 59]
11.778[239, 81, 149, 232, 265, 220, 82, 63]
11.8[184, 79, 144, 227, 287, 276, 95, 56]
11.816[155, 80, 145, 210, 321, 317, 109, 53]
11.839[154, 83, 155, 200, 329, 304, 103, 53]
11.86[137, 82, 159, 202, 331, 308, 104, 52]
11.875[128, 78, 146, 183, 333, 306, 104, 54]
11.898[108, 70, 133, 182, 286, 257, 92, 49]
11.921[137, 81, 140, 189, 267, 224, 86, 63]
11.935[147, 79, 133, 195, 263, 230, 88, 65]
11.958[147, 77, 125, 197, 259, 228, 91, 65]
11.98[163, 77, 131, 199, 258, 205, 83, 60]
11.995[177, 81, 136, 192, 253, 208, 86, 62]
12.018[165, 67, 123, 180, 244, 185, 74, 46]
12.04[163, 70, 129, 174, 239, 178, 74, 48]
12.054[188, 65, 116, 157, 267, 199, 75, 56]
12.078[168, 66, 126, 177, 271, 208, 79, 57]
12.1[174, 62, 115, 175, 301, 203, 75, 60]
12.123[166, 58, 111, 177, 305, 194, 71, 59]
12.138[173, 63, 115, 190, 300, 199, 72, 58]
12.16[147, 66, 119, 201, 302, 164, 63, 49]
12.175[159, 59, 99, 173, 285, 158, 59, 50]
12.198[151, 68, 128, 206, 273, 158, 64, 47]
12.22[150, 69, 124, 205, 275, 169, 68, 48]
12.235[143, 62, 110, 185, 262, 184, 72, 44]
12.258[144, 62, 111, 178, 228, 196, 81, 46]
12.28[122, 68, 125, 192, 241, 204, 85, 44]
12.295[102, 66, 118, 162, 242, 211, 84, 41]
12.318[115, 68, 119, 165, 230, 220, 87, 45]
12.34[148, 72, 121, 167, 234, 196, 83, 58]
12.355[139, 69, 117, 155, 234, 200, 78, 56]
12.378[145, 65, 111, 147, 282, 219, 78, 54]
12.4[167, 70, 117, 152, 277, 222, 85, 59]
12.43[160, 82, 148, 172, 285, 217, 81, 58]
12.438[127, 86, 155, 176, 292, 241, 90, 56]
12.461[139, 88, 154, 182, 297, 236, 88, 59]
12.483[142, 89, 150, 184, 251, 229, 89, 61]
12.498[126, 86, 143, 189, 243, 226, 84, 58]
12.521[130, 73, 114, 169, 241, 229, 86, 59]
12.543[121, 69, 110, 165, 223, 205, 75, 49]
12.558[113, 64, 110, 169, 226, 203, 74, 51]
12.58[109, 64, 110, 158, 208, 174, 71, 51]
12.603[101, 56, 91, 133, 195, 161, 68, 50]
12.618[95, 59, 92, 139, 194, 143, 63, 48]
12.64[107, 64, 113, 170, 206, 157, 68, 47]
12.663[105, 71, 126, 164, 197, 184, 78, 47]
12.678[104, 74, 147, 209, 204, 213, 89, 48]
12.7[106, 74, 150, 212, 224, 233, 93, 48]
12.723[110, 79, 161, 221, 227, 246, 99, 50]
12.738[107, 70, 149, 220, 229, 254, 100, 51]
12.76[103, 67, 150, 239, 271, 256, 98, 48]
12.783[97, 62, 129, 209, 262, 247, 93, 43]
12.798[94, 61, 129, 213, 284, 242, 87, 42]
12.82[84, 52, 120, 213, 279, 241, 83, 37]
12.843[69, 58, 121, 201, 301, 230, 78, 34]
12.858[83, 56, 107, 177, 275, 198, 70, 33]
12.881[99, 62, 122, 183, 279, 184, 60, 40]
12.902[95, 63, 120, 178, 263, 173, 60, 42]
12.919[95, 65, 116, 170, 258, 155, 59, 42]
12.941[94, 61, 113, 162, 217, 133, 54, 45]
12.962[96, 58, 111, 158, 196, 135, 51, 45]
12.978[88, 55, 101, 133, 174, 129, 53, 42]
13.007[86, 61, 116, 147, 148, 110, 53, 46]
13.022[87, 57, 110, 132, 136, 113, 51, 47]
13.038[91, 56, 101, 126, 145, 117, 50, 45]
13.061[98, 61, 108, 123, 139, 110, 49, 45]
13.082[95, 66, 116, 130, 147, 124, 53, 43]
13.098[98, 60, 107, 122, 149, 130, 53, 42]
13.121[98, 61, 111, 133, 178, 130, 55, 42]
13.142[94, 65, 130, 137, 180, 128, 57, 42]
13.158[78, 63, 129, 147, 222, 147, 59, 43]
13.181[78, 53, 112, 142, 220, 132, 53, 42]
13.202[79, 57, 109, 134, 216, 130, 56, 39]
13.218[92, 58, 119, 134, 202, 127, 54, 36]
13.24[93, 54, 100, 124, 206, 130, 52, 36]
13.262[99, 54, 98, 112, 173, 128, 54, 33]
13.278[97, 56, 101, 110, 186, 136, 63, 38]
13.299[91, 51, 96, 106, 179, 138, 62, 39]
13.322[80, 46, 79, 102, 194, 140, 62, 39]
13.345[91, 48, 76, 110, 210, 142, 63, 44]
13.359[79, 47, 70, 113, 216, 134, 60, 44]
13.382[85, 48, 87, 111, 208, 128, 50, 43]
13.404[91, 45, 84, 109, 214, 128, 47, 42]
13.42[95, 51, 93, 106, 198, 130, 49, 46]
13.442[83, 50, 96, 113, 195, 133, 47, 45]
13.464[86, 56, 104, 116, 198, 130, 49, 49]
13.479[78, 53, 91, 129, 204, 124, 47, 46]
13.51[91, 54, 94, 132, 193, 117, 43, 45]
13.541[91, 59, 90, 132, 182, 112, 41, 47]
13.542[92, 63, 102, 126, 157, 115, 46, 44]
13.562[97, 56, 92, 122, 143, 113, 42, 42]
13.586[97, 53, 84, 100, 152, 115, 43, 42]
13.6[79, 51, 82, 102, 161, 120, 47, 42]
13.622[71, 43, 77, 98, 155, 120, 47, 36]
13.644[71, 37, 63, 97, 161, 103, 40, 35]
13.66[77, 45, 73, 101, 165, 108, 43, 32]
13.682[76, 49, 85, 119, 154, 104, 41, 31]
13.704[89, 50, 84, 116, 167, 109, 40, 33]
13.72[98, 49, 81, 108, 195, 114, 39, 32]
13.742[101, 52, 77, 102, 197, 121, 42, 32]
13.764[90, 46, 86, 110, 188, 107, 37, 31]
13.78[101, 46, 88, 101, 193, 127, 46, 33]
13.802[117, 47, 92, 106, 195, 126, 46, 35]
13.832[127, 56, 100, 132, 198, 141, 54, 54]
13.841[125, 52, 99, 130, 203, 140, 54, 53]
13.862[130, 51, 89, 132, 204, 145, 57, 54]
13.884[126, 55, 86, 127, 219, 129, 53, 56]
13.9[105, 57, 94, 126, 221, 136, 54, 53]
13.922[88, 47, 83, 100, 206, 113, 47, 34]
13.944[121, 59, 98, 118, 224, 118, 50, 49]
13.96[132, 64, 98, 110, 236, 127, 52, 52]
13.982[131, 61, 92, 117, 240, 138, 51, 57]
14.004[134, 60, 84, 110, 232, 131, 53, 60]
14.02[135, 65, 90, 114, 225, 136, 55, 62]
14.049[108, 57, 75, 96, 210, 129, 53, 53]
14.065[83, 50, 70, 91, 199, 119, 48, 50]
14.08[86, 47, 68, 82, 180, 109, 46, 44]
14.102[89, 50, 71, 91, 189, 116, 48, 45]
14.124[81, 54, 88, 109, 200, 124, 48, 53]
14.141[76, 52, 88, 111, 191, 129, 49, 51]
14.17[76, 52, 87, 107, 183, 129, 48, 51]
14.184[82, 53, 90, 107, 201, 131, 46, 47]
14.2[71, 51, 96, 105, 199, 140, 41, 43]
14.222[78, 43, 89, 102, 209, 134, 38, 38]
14.244[86, 46, 90, 105, 225, 142, 42, 45]
14.267[90, 45, 89, 107, 253, 145, 44, 48]
14.282[80, 45, 85, 107, 232, 139, 45, 50]
14.305[94, 45, 78, 108, 228, 133, 46, 56]
14.327[118, 43, 65, 103, 239, 135, 47, 56]
14.342[116, 40, 62, 98, 219, 127, 46, 52]
14.364[114, 41, 72, 102, 206, 140, 49, 50]
14.387[114, 41, 79, 106, 247, 164, 54, 52]
14.402[109, 41, 80, 107, 240, 156, 52, 45]
14.433[82, 46, 89, 110, 222, 155, 54, 41]
14.447[78, 50, 96, 118, 239, 174, 61, 43]
14.462[87, 60, 104, 133, 254, 181, 62, 60]
14.484[84, 60, 103, 129, 225, 167, 61, 58]
14.507[71, 58, 98, 127, 235, 173, 64, 57]
14.523[66, 55, 93, 117, 235, 173, 63, 56]
14.544[61, 51, 104, 111, 221, 152, 56, 54]
14.567[53, 48, 93, 85, 182, 134, 55, 44]
14.582[61, 47, 91, 83, 175, 130, 50, 45]
14.604[69, 52, 95, 79, 162, 128, 52, 53]
14.627[70, 50, 90, 74, 152, 123, 51, 52]
14.642[94, 53, 72, 101, 156, 137, 59, 64]
14.664[103, 45, 68, 105, 156, 133, 58, 63]
14.687[99, 49, 75, 121, 156, 135, 62, 60]
14.702[100, 45, 74, 125, 164, 134, 63, 56]
14.724[106, 46, 77, 133, 263, 198, 73, 65]
14.747[91, 45, 82, 135, 294, 205, 72, 64]
14.762[109, 53, 85, 133, 311, 214, 74, 64]
14.784[113, 65, 97, 131, 313, 219, 78, 65]
14.807[109, 73, 104, 136, 322, 221, 79, 64]
14.822[108, 75, 111, 141, 245, 198, 83, 56]
14.844[112, 83, 118, 123, 209, 184, 80, 52]
14.867[82, 78, 122, 141, 223, 218, 88, 46]
14.89[74, 68, 108, 134, 230, 214, 85, 47]
14.904[73, 60, 98, 124, 221, 216, 84, 48]
14.927[76, 67, 97, 119, 235, 203, 78, 60]
14.942[75, 56, 81, 116, 232, 198, 74, 61]
14.965[108, 65, 81, 108, 210, 152, 65, 65]
14.987[110, 64, 87, 116, 212, 166, 70, 67]
15.01[118, 65, 94, 117, 212, 157, 70, 71]
15.024[112, 62, 105, 132, 248, 158, 69, 60]
15.055[124, 64, 111, 140, 258, 160, 68, 56]
15.062[96, 58, 115, 159, 266, 172, 68, 51]
15.085[109, 68, 136, 178, 288, 192, 72, 54]
15.107[103, 70, 138, 193, 310, 200, 74, 53]
15.122[110, 68, 127, 186, 290, 197, 74, 53]
15.153[95, 71, 133, 210, 287, 210, 83, 56]
15.167[112, 79, 145, 221, 303, 212, 85, 60]
15.182[105, 74, 125, 212, 303, 204, 85, 61]
15.205[107, 70, 120, 198, 275, 196, 81, 60]
15.227[112, 69, 119, 193, 263, 185, 78, 62]
15.251[114, 69, 114, 173, 266, 204, 81, 60]
15.264[98, 57, 84, 132, 231, 187, 76, 58]
15.295[91, 57, 91, 115, 192, 161, 66, 53]
15.31[87, 59, 99, 114, 187, 156, 64, 50]
15.324[71, 57, 98, 114, 176, 149, 61, 47]
15.347[103, 56, 93, 102, 166, 118, 54, 46]
15.37[111, 67, 103, 102, 170, 146, 56, 48]
15.385[133, 68, 99, 96, 174, 158, 57, 51]
15.407[200, 70, 88, 108, 184, 166, 60, 74]
15.43[206, 70, 87, 114, 198, 174, 63, 77]
15.444[190, 73, 91, 110, 245, 169, 60, 77]
15.467[187, 63, 79, 106, 259, 153, 62, 79]
15.49[180, 65, 76, 112, 247, 139, 60, 80]
15.504[102, 60, 77, 107, 257, 141, 60, 56]
15.535[95, 67, 98, 118, 260, 135, 58, 51]
15.55[91, 67, 106, 129, 216, 123, 54, 54]
15.564[103, 73, 114, 147, 219, 135, 59, 56]
15.587[109, 69, 116, 158, 233, 141, 61, 53]
15.61[127, 70, 123, 154, 227, 132, 60, 57]
15.624[137, 67, 111, 138, 215, 125, 57, 57]
15.647[141, 63, 107, 133, 267, 158, 63, 54]
15.67[129, 60, 106, 117, 243, 141, 55, 54]
15.684[120, 53, 99, 98, 231, 134, 52, 49]
15.707[99, 54, 93, 117, 253, 158, 64, 49]
15.731[81, 58, 103, 130, 256, 172, 71, 51]
15.744[77, 53, 101, 128, 207, 147, 69, 52]
15.767[92, 54, 101, 134, 209, 148, 70, 59]
15.79[84, 57, 104, 133, 244, 159, 71, 61]
15.805[87, 59, 113, 121, 213, 139, 60, 58]
15.827[89, 59, 125, 144, 211, 133, 59, 59]
15.85[92, 58, 119, 140, 199, 138, 57, 61]
15.864[94, 60, 119, 136, 215, 143, 55, 47]
15.887[100, 63, 124, 152, 223, 159, 64, 52]
15.91[100, 63, 116, 156, 227, 155, 63, 51]
15.924[104, 59, 101, 135, 234, 158, 61, 48]
15.947[115, 65, 107, 147, 276, 164, 61, 51]
15.97[102, 62, 102, 155, 266, 160, 58, 50]
15.984[92, 59, 98, 146, 225, 142, 57, 48]
16.007[94, 56, 95, 140, 243, 149, 56, 52]
16.03[90, 57, 86, 141, 233, 145, 59, 52]
16.044[67, 50, 79, 128, 183, 132, 60, 44]
16.075[75, 56, 105, 146, 193, 129, 61, 47]
16.09[112, 59, 106, 142, 196, 125, 53, 49]
16.104[123, 58, 108, 143, 182, 118, 52, 55]
16.127[124, 59, 114, 138, 221, 113, 44, 55]
16.15[128, 71, 141, 155, 241, 130, 46, 56]
16.173[127, 63, 124, 131, 242, 150, 51, 53]
16.187[97, 64, 139, 153, 248, 144, 50, 46]
16.21[81, 68, 151, 175, 274, 159, 59, 44]
16.233[87, 66, 148, 173, 249, 160, 60, 47]
16.247[91, 52, 122, 160, 229, 144, 57, 46]
16.27[93, 56, 126, 160, 223, 126, 54, 47]
16.293[103, 59, 115, 159, 210, 123, 56, 47]
16.307[132, 54, 92, 134, 196, 118, 51, 50]
16.33[125, 54, 88, 128, 182, 110, 49, 48]
16.353[122, 55, 89, 135, 180, 109, 48, 49]
16.367[124, 52, 75, 135, 193, 109, 47, 49]
16.39[121, 43, 54, 103, 194, 110, 43, 48]
16.413[95, 42, 75, 129, 165, 108, 44, 42]
16.427[102, 51, 89, 151, 188, 114, 45, 44]
16.45[101, 49, 86, 137, 182, 113, 46, 53]
16.473[106, 57, 98, 152, 163, 115, 48, 59]
16.487[101, 58, 102, 158, 172, 112, 49, 58]
16.51[106, 60, 92, 141, 185, 105, 48, 57]
16.54[118, 57, 89, 128, 179, 100, 46, 54]
16.547[129, 63, 99, 148, 197, 107, 46, 46]
16.57[121, 61, 95, 136, 209, 106, 48, 40]
16.593[122, 62, 92, 137, 214, 107, 46, 48]
16.607[113, 60, 90, 130, 210, 117, 48, 45]
16.63[100, 56, 81, 127, 198, 117, 51, 47]
16.653[89, 55, 85, 117, 184, 108, 47, 46]
16.667[81, 51, 83, 116, 169, 104, 46, 49]
16.69[85, 53, 87, 107, 162, 109, 47, 42]
16.713[83, 53, 88, 111, 166, 114, 43, 46]
16.727[76, 51, 86, 104, 166, 109, 41, 43]
16.75[81, 51, 79, 103, 181, 112, 47, 42]
16.773[97, 51, 72, 91, 192, 117, 44, 38]
16.787[107, 49, 73, 100, 187, 115, 46, 38]
16.81[105, 49, 74, 98, 194, 103, 48, 33]
16.833[106, 54, 77, 107, 201, 116, 51, 36]
16.847[101, 47, 70, 106, 186, 113, 47, 43]
16.87[87, 42, 67, 104, 190, 113, 46, 47]
16.893[66, 42, 67, 97, 188, 111, 44, 48]
16.907[69, 48, 80, 116, 174, 104, 40, 47]
16.938[68, 45, 80, 108, 169, 93, 35, 45]
16.96[70, 49, 79, 106, 180, 94, 36, 37]
16.967[73, 50, 87, 116, 169, 91, 36, 37]
16.99[72, 49, 81, 111, 166, 90, 36, 36]
17.013[70, 44, 72, 91, 157, 87, 36, 38]
17.027[65, 43, 70, 93, 151, 89, 36, 37]
17.05[52, 38, 67, 86, 160, 95, 40, 38]
17.073[43, 55, 107, 118, 162, 93, 40, 32]
17.095[58, 56, 109, 120, 175, 94, 41, 31]
17.11[58, 55, 106, 136, 181, 99, 43, 30]
17.133[59, 56, 106, 134, 194, 104, 44, 35]
17.155[62, 60, 116, 145, 181, 100, 41, 36]
17.17[69, 47, 84, 123, 194, 103, 40, 37]
17.193[72, 53, 88, 145, 192, 114, 45, 37]
17.215[74, 62, 97, 144, 224, 118, 44, 37]
17.23[85, 65, 118, 164, 218, 116, 43, 38]
17.253[86, 66, 113, 155, 217, 115, 45, 39]
17.276[105, 67, 112, 150, 198, 106, 44, 38]
17.291[94, 61, 108, 133, 196, 103, 39, 36]
17.313[94, 54, 102, 117, 147, 91, 38, 35]
17.335[84, 48, 80, 92, 194, 89, 37, 27]
17.35[81, 53, 101, 133, 202, 91, 37, 22]
17.373[57, 51, 97, 132, 199, 101, 45, 26]
17.395[59, 50, 97, 131, 201, 99, 44, 28]
17.41[60, 49, 94, 139, 208, 108, 46, 35]
17.433[70, 56, 107, 154, 173, 117, 52, 39]
17.455[88, 54, 84, 134, 206, 147, 59, 45]
17.47[88, 51, 83, 134, 210, 144, 55, 43]
17.493[89, 55, 89, 137, 221, 146, 59, 45]
17.515[91, 56, 88, 129, 212, 143, 60, 46]
17.529[85, 49, 73, 107, 206, 143, 62, 45]
17.553[66, 44, 82, 101, 182, 131, 56, 42]
17.575[71, 65, 138, 161, 206, 137, 57, 43]
17.59[74, 65, 137, 165, 187, 134, 55, 45]
17.613[80, 68, 144, 173, 201, 136, 55, 42]
17.636[84, 81, 159, 207, 236, 162, 68, 48]
17.649[88, 92, 177, 224, 228, 158, 68, 51]
17.673[81, 80, 142, 194, 213, 157, 69, 51]
17.695[82, 77, 141, 196, 223, 160, 72, 50]
17.709[86, 82, 142, 201, 224, 163, 75, 50]
17.733[84, 80, 139, 172, 213, 137, 60, 44]
17.755[86, 69, 114, 147, 206, 129, 63, 40]
17.769[86, 72, 116, 144, 198, 135, 63, 39]
17.793[95, 73, 113, 132, 191, 127, 62, 42]
17.815[86, 66, 105, 123, 199, 132, 60, 43]
17.837[100, 56, 91, 129, 181, 132, 62, 44]
17.853[114, 53, 83, 121, 182, 124, 56, 52]
17.875[114, 48, 72, 110, 212, 120, 56, 54]
17.897[105, 48, 72, 116, 217, 121, 55, 55]
17.913[107, 52, 82, 134, 213, 117, 52, 55]
17.935[96, 49, 77, 133, 209, 112, 50, 56]
17.957[73, 52, 87, 144, 209, 120, 56, 48]
17.973[67, 52, 88, 146, 176, 122, 58, 50]
17.995[75, 52, 85, 139, 160, 121, 57, 47]
18.017[73, 43, 71, 113, 140, 106, 52, 44]
18.033[80, 57, 91, 118, 149, 110, 54, 47]
18.054[85, 65, 111, 131, 157, 118, 53, 48]
18.077[89, 69, 124, 144, 164, 107, 48, 44]
18.094[84, 72, 128, 148, 189, 115, 52, 43]
18.114[87, 79, 135, 165, 194, 124, 52, 47]
18.137[81, 70, 124, 177, 232, 137, 52, 44]
18.153[77, 58, 99, 162, 231, 124, 48, 42]
18.182[82, 57, 83, 160, 234, 119, 48, 46]
18.197[77, 55, 87, 178, 230, 131, 48, 45]
18.214[72, 51, 86, 181, 238, 135, 56, 47]
18.234[67, 51, 91, 161, 203, 127, 54, 44]
18.258[69, 55, 96, 163, 201, 132, 56, 46]
18.273[58, 51, 95, 152, 196, 134, 56, 42]
18.295[56, 50, 88, 126, 194, 130, 49, 42]
18.317[56, 45, 80, 104, 179, 116, 40, 36]
18.333[78, 43, 67, 97, 161, 107, 37, 37]
18.355[78, 44, 78, 96, 162, 116, 41, 37]
18.384[80, 45, 78, 97, 158, 115, 43, 38]
18.393[108, 49, 91, 115, 153, 111, 47, 39]
18.415[120, 55, 104, 131, 158, 116, 51, 41]
18.437[129, 61, 105, 136, 181, 116, 55, 43]
18.453[137, 56, 99, 140, 178, 103, 54, 104]
18.475[144, 61, 110, 154, 222, 143, 61, 113]
18.497[139, 57, 102, 144, 236, 147, 63, 117]
18.513[131, 51, 86, 124, 244, 156, 66, 119]
18.535[112, 48, 86, 123, 234, 155, 68, 117]
18.557[129, 50, 83, 120, 243, 160, 68, 71]
18.58[191, 52, 75, 119, 224, 136, 64, 65]
18.594[187, 55, 74, 124, 210, 123, 63, 58]
18.617[189, 53, 73, 121, 204, 103, 57, 52]
18.632[209, 52, 76, 130, 220, 101, 53, 57]
18.655[295, 56, 89, 156, 227, 116, 56, 67]
18.678[272, 49, 89, 146, 228, 124, 55, 64]
18.693[274, 48, 90, 139, 236, 131, 52, 61]
18.715[285, 57, 104, 159, 268, 150, 57, 64]
18.737[295, 65, 114, 159, 271, 154, 58, 71]
18.752[210, 67, 108, 137, 263, 152, 65, 69]
18.775[198, 70, 106, 143, 284, 154, 66, 67]
18.797[266, 76, 112, 150, 283, 165, 73, 81]
18.812[253, 72, 111, 152, 263, 166, 76, 80]
18.834[231, 66, 100, 165, 268, 169, 77, 71]
18.857[227, 63, 99, 158, 292, 166, 68, 63]
18.872[235, 64, 96, 170, 288, 158, 70, 73]
18.894[168, 69, 111, 185, 285, 140, 65, 65]
18.917[183, 74, 110, 176, 284, 135, 63, 67]
18.932[178, 77, 118, 170, 285, 128, 60, 65]
18.954[170, 78, 133, 177, 255, 112, 57, 63]
18.977[226, 80, 138, 164, 226, 109, 54, 70]
19.0[241, 86, 136, 157, 226, 118, 61, 92]
19.015[251, 86, 136, 157, 222, 118, 58, 96]
19.037[259, 98, 156, 170, 206, 131, 66, 105]
19.06[284, 96, 141, 166, 206, 135, 68, 120]
19.075[258, 94, 142, 181, 207, 134, 68, 116]
19.097[241, 81, 127, 168, 194, 127, 60, 99]
19.119[229, 75, 118, 161, 196, 115, 58, 98]
19.134[236, 63, 85, 140, 176, 124, 59, 100]
19.157[201, 61, 86, 141, 181, 122, 58, 81]
19.179[172, 65, 103, 163, 236, 153, 71, 75]
19.194[184, 65, 111, 166, 243, 161, 77, 76]
19.217[172, 66, 112, 165, 241, 163, 78, 73]
19.24[173, 66, 113, 166, 265, 158, 74, 67]
19.254[178, 70, 125, 192, 286, 183, 83, 70]
19.277[177, 65, 115, 172, 282, 168, 70, 66]
19.299[157, 65, 108, 168, 296, 176, 66, 59]
19.314[165, 65, 110, 168, 287, 172, 64, 59]
19.337[146, 57, 107, 164, 269, 169, 63, 51]
19.359[145, 50, 85, 124, 242, 140, 53, 46]
19.374[130, 47, 72, 104, 192, 124, 54, 48]
19.397[117, 43, 66, 102, 156, 96, 53, 48]
19.42[103, 42, 59, 100, 160, 94, 51, 47]
19.434[86, 36, 48, 82, 141, 72, 43, 39]
19.457[71, 37, 48, 81, 124, 66, 41, 39]
19.479[66, 36, 40, 65, 94, 55, 34, 36]
19.494[55, 33, 35, 55, 84, 48, 30, 30]
19.517[44, 31, 36, 54, 63, 41, 27, 27]
19.539[34, 32, 35, 52, 63, 68, 35, 29]
19.554[28, 28, 34, 49, 59, 70, 34, 28]
19.577[24, 26, 32, 46, 59, 70, 33, 25]
19.599[24, 25, 31, 44, 55, 70, 31, 26]
19.616[21, 23, 28, 32, 46, 72, 32, 27]
19.637[20, 19, 26, 25, 35, 49, 29, 23]
19.661[21, 22, 25, 25, 32, 58, 28, 22]
19.674[17, 22, 23, 23, 27, 65, 30, 24]
19.697[18, 20, 24, 22, 24, 72, 31, 23]
19.72[21, 24, 22, 21, 24, 71, 31, 22]
19.734[24, 25, 20, 22, 23, 68, 25, 21]
19.757[39, 24, 20, 21, 22, 55, 24, 23]
19.78[60, 28, 20, 22, 24, 44, 26, 30]
19.794[67, 29, 21, 22, 23, 27, 24, 31]
19.817[108, 30, 21, 23, 22, 22, 23, 43]
19.848[131, 31, 21, 22, 20, 22, 23, 50]
19.854[142, 33, 21, 23, 21, 20, 24, 54]
19.877[145, 30, 21, 21, 20, 19, 21, 54]
19.9[151, 29, 21, 21, 22, 17, 20, 54]
19.914[127, 26, 21, 19, 23, 17, 23, 46]
19.937[113, 24, 21, 20, 22, 14, 22, 42]
19.96[95, 20, 23, 19, 22, 18, 21, 36]
19.982[88, 19, 22, 20, 20, 19, 20, 30]
19.997[76, 21, 21, 21, 18, 20, 20, 30]
20.02[73, 21, 20, 21, 21, 20, 17, 29]
20.042[56, 21, 21, 21, 22, 21, 18, 23]
20.057[54, 22, 22, 19, 22, 18, 18, 23]
20.08[36, 22, 21, 19, 24, 19, 18, 23]
20.102[27, 23, 22, 19, 24, 22, 19, 22]
20.117[22, 23, 22, 20, 21, 22, 18, 20]
20.148[18, 23, 22, 19, 20, 22, 18, 19]
20.162[19, 22, 20, 20, 21, 23, 18, 21]
20.177[19, 23, 20, 20, 20, 22, 18, 18]
20.2[18, 23, 21, 18, 19, 20, 17, 18]
20.222[18, 23, 21, 19, 21, 21, 17, 19]
20.237[21, 24, 23, 19, 20, 20, 17, 20]
20.26[21, 25, 22, 18, 20, 20, 19, 19]
20.282[21, 25, 22, 19, 20, 20, 16, 19]
20.297[20, 24, 21, 20, 22, 21, 17, 19]
20.32[21, 23, 22, 18, 21, 20, 18, 17]
20.342[19, 22, 20, 17, 22, 19, 20, 17]
20.357[18, 23, 20, 19, 23, 19, 20, 18]
20.38[18, 22, 20, 21, 22, 19, 20, 19]
20.403[18, 19, 19, 21, 22, 18, 21, 19]
20.417[17, 19, 17, 21, 21, 17, 20, 20]
20.44[18, 18, 20, 21, 21, 21, 18, 21]
20.462[20, 17, 19, 22, 22, 21, 18, 20]
20.477[19, 16, 20, 22, 23, 20, 17, 18]
20.5[20, 16, 20, 20, 23, 22, 16, 19]
20.524[21, 18, 20, 20, 25, 22, 18, 18]
20.537[21, 18, 19, 20, 26, 19, 19, 20]
20.559[19, 21, 18, 19, 25, 20, 18, 19]
20.583[22, 19, 20, 18, 23, 22, 21, 23]
20.597[21, 20, 19, 20, 22, 20, 22, 23]
20.62[22, 20, 21, 21, 21, 22, 20, 23]
20.643[21, 23, 19, 21, 19, 20, 20, 22]
20.657[23, 20, 22, 20, 18, 19, 19, 23]
20.679[21, 22, 19, 19, 19, 19, 18, 20]
20.703[22, 23, 21, 20, 20, 21, 18, 19]
20.717[20, 23, 19, 22, 21, 21, 18, 20]
20.74[20, 25, 22, 22, 22, 21, 18, 20]
20.763[18, 27, 19, 22, 22, 26, 20, 21]
20.777[19, 29, 22, 23, 21, 24, 18, 23]
20.8[20, 28, 22, 21, 20, 24, 19, 23]
20.823[19, 28, 22, 20, 19, 26, 19, 21]
20.837[19, 25, 20, 20, 18, 27, 20, 21]
20.86[17, 24, 21, 22, 21, 22, 19, 24]
20.882[18, 20, 19, 22, 21, 24, 19, 20]
20.905[18, 18, 17, 23, 22, 23, 17, 21]
20.919[19, 19, 17, 21, 22, 21, 16, 21]
20.943[20, 17, 18, 21, 22, 19, 17, 21]
20.973[19, 18, 18, 20, 20, 21, 18, 17]
20.979[20, 22, 17, 20, 19, 22, 20, 18]
21.01[19, 22, 19, 21, 18, 23, 21, 24]
21.025[19, 22, 22, 21, 22, 22, 21, 23]
21.048[20, 24, 22, 19, 22, 22, 21, 23]
21.063[21, 24, 24, 19, 23, 22, 21, 23]
21.085[21, 23, 24, 18, 23, 20, 21, 22]
21.108[20, 24, 26, 19, 24, 17, 19, 17]
21.123[20, 22, 24, 20, 23, 20, 19, 18]
21.145[17, 21, 24, 22, 24, 21, 17, 17]
21.16[17, 21, 21, 23, 22, 20, 20, 19]
21.183[18, 19, 21, 23, 23, 20, 21, 19]
21.205[19, 19, 17, 23, 23, 22, 23, 19]
21.22[19, 20, 21, 22, 21, 21, 23, 18]
21.242[19, 18, 22, 23, 20, 22, 25, 23]
21.265[20, 20, 24, 21, 19, 23, 22, 23]
21.279[18, 21, 25, 21, 18, 23, 20, 22]
21.303[17, 20, 27, 20, 17, 23, 18, 22]
21.325[18, 21, 23, 21, 18, 22, 19, 23]
21.357[17, 21, 22, 20, 19, 20, 18, 19]
21.364[17, 19, 20, 19, 21, 20, 17, 18]
21.385[21, 20, 20, 19, 21, 20, 19, 19]
21.399[20, 20, 22, 19, 19, 18, 20, 21]
21.422[20, 19, 22, 18, 18, 17, 20, 21]
21.445[20, 19, 22, 18, 21, 18, 20, 20]
21.459[19, 21, 23, 20, 21, 21, 20, 21]
21.483[16, 21, 21, 23, 21, 19, 19, 22]
21.505[16, 20, 19, 22, 22, 20, 18, 20]
21.52[15, 21, 19, 20, 22, 21, 19, 19]
21.542[17, 21, 17, 22, 18, 22, 19, 19]
21.565[17, 19, 19, 20, 17, 20, 19, 19]
21.58[17, 19, 20, 19, 19, 21, 18, 18]
21.603[19, 23, 19, 20, 21, 20, 18, 17]
21.625[20, 21, 21, 22, 22, 18, 18, 17]
21.64[19, 23, 22, 21, 23, 23, 19, 19]
21.663[20, 25, 21, 20, 22, 22, 19, 18]
21.685[20, 24, 21, 18, 22, 22, 19, 18]
21.699[19, 21, 20, 18, 20, 24, 19, 19]
21.723[18, 22, 18, 17, 19, 24, 17, 18]
21.745[18, 20, 19, 16, 19, 18, 16, 17]
21.759[18, 21, 19, 18, 20, 19, 17, 17]
21.783[17, 21, 20, 20, 21, 18, 16, 17]
21.805[17, 23, 21, 20, 21, 19, 16, 16]
21.819[20, 22, 22, 20, 22, 19, 16, 16]
21.843[20, 22, 22, 23, 22, 19, 15, 18]
21.865[18, 21, 22, 22, 23, 19, 16, 18]
21.887[19, 22, 22, 22, 19, 21, 17, 19]
21.911[22, 20, 23, 21, 21, 20, 18, 18]
21.925[21, 23, 23, 21, 20, 19, 20, 20]
21.948[20, 22, 21, 19, 18, 19, 21, 22]
21.97[21, 19, 21, 20, 19, 20, 21, 22]
21.985[22, 19, 21, 20, 20, 20, 21, 23]
22.008[21, 19, 21, 22, 20, 19, 21, 23]
22.023[21, 19, 20, 22, 20, 19, 19, 22]
22.045[21, 19, 20, 22, 20, 20, 19, 20]
22.068[22, 20, 18, 22, 20, 19, 18, 20]
22.083[19, 20, 18, 22, 20, 18, 20, 17]
22.113[20, 20, 17, 20, 18, 19, 20, 19]
22.128[19, 20, 17, 18, 19, 19, 21, 19]
22.143[20, 20, 18, 21, 20, 19, 20, 18]
22.165[20, 20, 19, 22, 23, 20, 20, 18]
22.188[20, 18, 19, 20, 24, 22, 19, 19]
22.203[21, 17, 20, 20, 25, 20, 19, 17]
22.225[20, 17, 21, 23, 24, 19, 20, 19]
22.248[19, 17, 19, 20, 24, 19, 21, 20]
22.263[18, 19, 19, 20, 22, 20, 21, 18]
22.285[18, 20, 21, 22, 21, 19, 20, 19]
22.308[18, 21, 20, 23, 20, 19, 20, 22]
22.323[18, 20, 20, 22, 19, 20, 18, 22]
22.345[18, 21, 21, 21, 21, 20, 17, 21]
22.368[18, 19, 24, 21, 20, 20, 18, 21]
22.382[19, 19, 21, 19, 22, 19, 22, 21]
22.405[19, 18, 21, 20, 21, 19, 20, 20]
22.428[18, 19, 22, 19, 23, 20, 21, 20]
22.442[19, 19, 21, 20, 22, 20, 21, 21]
22.465[19, 21, 19, 19, 22, 19, 21, 21]
22.488[22, 21, 19, 20, 22, 19, 18, 21]
22.502[23, 22, 18, 21, 23, 19, 18, 21]
22.525[24, 22, 17, 20, 23, 19, 18, 20]
22.548[22, 22, 20, 22, 22, 18, 18, 20]
22.562[23, 20, 20, 22, 23, 18, 17, 19]
22.585[19, 19, 20, 22, 22, 19, 17, 19]
22.608[18, 19, 23, 20, 21, 22, 17, 20]
22.623[17, 18, 24, 20, 20, 21, 16, 19]
22.645[18, 20, 23, 18, 22, 21, 17, 19]
22.668[19, 20, 23, 18, 20, 23, 18, 20]
22.682[19, 20, 24, 17, 20, 23, 18, 23]
22.705[19, 20, 24, 19, 20, 21, 20, 20]
22.728[20, 22, 23, 21, 20, 22, 20, 20]
22.742[22, 19, 22, 20, 19, 21, 19, 22]
22.766[21, 20, 24, 21, 19, 19, 19, 22]
22.787[21, 20, 24, 21, 19, 20, 19, 20]
22.809[19, 20, 21, 21, 19, 18, 17, 22]
22.826[20, 18, 19, 20, 21, 17, 18, 23]
22.847[26, 18, 20, 21, 20, 18, 18, 22]
22.869[26, 18, 16, 20, 20, 20, 19, 25]
22.886[26, 20, 18, 20, 19, 19, 19, 24]
22.907[28, 19, 18, 19, 20, 20, 19, 22]
22.93[28, 19, 20, 18, 19, 20, 18, 23]
22.946[21, 20, 20, 18, 18, 19, 19, 22]
22.967[20, 20, 20, 19, 18, 19, 19, 18]
22.997[21, 20, 20, 19, 19, 19, 20, 17]
23.006[18, 22, 20, 19, 18, 20, 22, 18]
23.027[16, 22, 19, 21, 20, 20, 23, 15]
23.049[17, 22, 19, 21, 19, 20, 23, 17]
23.066[18, 21, 18, 21, 19, 18, 22, 19]
23.087[18, 19, 19, 21, 20, 19, 22, 21]
23.109[17, 19, 18, 22, 21, 18, 20, 20]
23.126[18, 18, 18, 21, 18, 19, 19, 22]
23.147[17, 18, 19, 20, 22, 19, 18, 22]
23.169[18, 19, 20, 19, 22, 20, 18, 21]
23.186[19, 20, 17, 18, 21, 20, 18, 19]
23.207[20, 21, 18, 17, 22, 21, 18, 20]
23.229[20, 21, 20, 17, 23, 21, 18, 21]
23.252[21, 20, 20, 18, 21, 21, 19, 21]
23.267[19, 19, 21, 20, 22, 22, 18, 22]
23.289[17, 20, 22, 19, 22, 22, 18, 22]
23.306[17, 19, 22, 20, 21, 19, 18, 23]
23.327[18, 20, 20, 21, 22, 20, 18, 23]
23.349[17, 21, 18, 20, 20, 21, 18, 23]
23.366[18, 24, 19, 19, 19, 21, 19, 22]
23.387[18, 24, 21, 20, 18, 20, 18, 22]
23.409[21, 29, 19, 20, 20, 21, 20, 20]
23.426[20, 29, 21, 21, 19, 19, 20, 18]
23.447[19, 27, 22, 22, 19, 19, 19, 18]
23.469[18, 27, 22, 21, 21, 18, 19, 20]
23.486[21, 26, 21, 22, 21, 18, 19, 20]
23.507[19, 20, 22, 22, 21, 17, 19, 20]
23.529[22, 19, 24, 22, 20, 16, 18, 21]
23.547[23, 22, 24, 22, 22, 16, 19, 22]
23.567[24, 20, 23, 22, 22, 18, 18, 20]
23.589[21, 21, 23, 21, 21, 17, 19, 18]
23.607[22, 22, 22, 20, 22, 17, 17, 19]
23.627[20, 23, 22, 18, 24, 19, 17, 18]
23.649[19, 21, 21, 18, 22, 19, 17, 19]
23.666[18, 23, 21, 20, 23, 20, 18, 19]
23.687[19, 23, 21, 21, 26, 20, 19, 20]
23.709[19, 21, 22, 24, 24, 21, 20, 21]
23.726[20, 22, 22, 24, 23, 20, 20, 22]
23.747[22, 22, 22, 24, 24, 22, 20, 21]
23.769[23, 20, 21, 22, 23, 21, 19, 20]
23.792[21, 22, 23, 22, 19, 22, 18, 20]
23.807[20, 24, 24, 19, 21, 22, 17, 19]
23.831[20, 21, 23, 21, 22, 21, 17, 19]
23.853[18, 23, 23, 21, 21, 19, 18, 18]
23.867[17, 22, 23, 21, 20, 20, 19, 19]
23.89[21, 22, 21, 22, 22, 18, 21, 20]
23.912[23, 20, 20, 23, 20, 19, 21, 19]
23.927[20, 20, 21, 20, 19, 19, 22, 18]
23.951[21, 20, 23, 21, 19, 20, 22, 19]
23.972[22, 20, 23, 21, 20, 19, 21, 18]
23.987[18, 19, 25, 21, 21, 18, 18, 19]
24.009[17, 22, 24, 21, 21, 20, 19, 20]
24.032[18, 23, 23, 21, 22, 20, 20, 20]
24.047[19, 22, 22, 23, 21, 22, 21, 20]
24.069[19, 24, 23, 24, 20, 21, 20, 21]
24.092[19, 23, 20, 22, 19, 22, 20, 19]
24.107[22, 20, 22, 22, 18, 20, 21, 18]
24.13[22, 22, 23, 24, 20, 20, 19, 20]
24.152[21, 23, 21, 20, 21, 19, 19, 23]
24.167[21, 21, 20, 19, 22, 19, 20, 22]
24.189[22, 23, 21, 22, 22, 20, 20, 22]
24.212[19, 23, 20, 22, 22, 22, 19, 22]
24.227[19, 21, 18, 21, 20, 21, 19, 20]
24.251[19, 22, 20, 21, 17, 23, 20, 16]
24.272[20, 23, 22, 20, 18, 24, 18, 17]
24.287[18, 19, 21, 17, 17, 23, 18, 18]
24.309[19, 22, 21, 20, 17, 25, 19, 17]
24.332[20, 22, 22, 19, 18, 24, 18, 18]
24.347[20, 20, 21, 21, 20, 22, 19, 17]
24.369[18, 21, 20, 22, 19, 21, 21, 16]
24.4[20, 21, 20, 22, 21, 23, 20, 15]
24.407[18, 19, 20, 22, 22, 20, 20, 16]
24.429[18, 22, 22, 23, 22, 20, 22, 17]
24.452[20, 22, 23, 22, 20, 20, 21, 18]
24.468[21, 23, 24, 23, 21, 22, 21, 21]
24.489[19, 24, 24, 22, 19, 20, 23, 22]
24.512[20, 24, 25, 20, 22, 21, 22, 22]
24.527[21, 23, 24, 22, 22, 22, 21, 21]
24.549[19, 23, 23, 21, 24, 22, 20, 22]
24.572[20, 24, 22, 21, 24, 18, 19, 19]
24.587[20, 23, 23, 21, 26, 22, 18, 20]
24.609[19, 23, 23, 22, 24, 21, 18, 20]
24.632[17, 22, 23, 20, 24, 21, 19, 22]
24.647[18, 24, 21, 22, 24, 22, 18, 20]
24.669[17, 21, 22, 23, 23, 22, 19, 20]
24.7[18, 21, 22, 22, 20, 19, 18, 19]
24.714[19, 22, 22, 19, 22, 21, 21, 19]
24.729[20, 20, 21, 20, 20, 22, 20, 17]
24.752[20, 19, 22, 21, 20, 20, 22, 18]
24.775[19, 23, 22, 17, 22, 21, 22, 17]
24.791[20, 23, 22, 18, 23, 20, 22, 19]
24.812[19, 23, 21, 21, 20, 18, 20, 20]
24.834[21, 23, 21, 22, 22, 19, 21, 20]
24.849[21, 22, 22, 19, 19, 20, 19, 20]
24.872[22, 19, 22, 21, 17, 19, 19, 21]
24.894[20, 19, 20, 21, 18, 21, 21, 21]
24.911[20, 19, 20, 20, 19, 21, 21, 20]
24.932[18, 20, 20, 21, 18, 20, 19, 19]
24.954[17, 21, 18, 23, 18, 19, 19, 21]
24.969[17, 20, 19, 23, 18, 18, 18, 20]
24.992[17, 22, 21, 23, 19, 17, 19, 20]
25.014[17, 20, 23, 22, 19, 17, 21, 20]
25.029[16, 21, 22, 18, 19, 17, 21, 21]
25.052[16, 21, 23, 18, 22, 18, 23, 18]
25.075[18, 22, 22, 15, 24, 18, 22, 19]
25.089[21, 22, 21, 18, 23, 18, 21, 18]
25.112[21, 22, 23, 18, 24, 17, 20, 18]
25.134[21, 21, 24, 19, 25, 20, 20, 19]
25.151[22, 19, 22, 20, 23, 18, 18, 18]
25.172[22, 20, 20, 20, 20, 19, 19, 19]
25.194[21, 18, 21, 18, 21, 20, 17, 19]
25.209[21, 20, 18, 20, 20, 20, 16, 19]
25.232[21, 21, 18, 20, 20, 17, 17, 19]
25.254[20, 21, 20, 20, 22, 18, 18, 20]
25.269[20, 20, 22, 20, 23, 19, 18, 19]
25.292[18, 20, 21, 20, 21, 19, 17, 20]
25.314[18, 20, 22, 20, 21, 20, 20, 20]
25.331[18, 18, 20, 20, 22, 22, 20, 19]
25.352[21, 21, 20, 19, 23, 21, 20, 23]
25.374[21, 24, 18, 19, 22, 21, 18, 21]
25.391[22, 24, 21, 20, 23, 21, 20, 21]
25.412[22, 24, 22, 21, 24, 21, 19, 21]
25.434[21, 25, 23, 22, 23, 19, 21, 23]
25.449[19, 23, 23, 22, 20, 21, 21, 20]
25.472[18, 20, 22, 22, 20, 17, 23, 23]
25.494[18, 19, 19, 22, 22, 19, 26, 22]
25.518[17, 20, 17, 19, 20, 19, 25, 22]
25.532[18, 19, 20, 18, 19, 18, 22, 20]
25.555[19, 20, 21, 18, 18, 17, 23, 22]
25.569[19, 22, 22, 18, 20, 17, 22, 19]
25.6[19, 22, 23, 19, 19, 17, 20, 18]
25.615[19, 22, 24, 20, 19, 16, 20, 18]
25.637[18, 22, 22, 21, 19, 18, 21, 18]
25.652[16, 21, 20, 21, 18, 19, 20, 17]
25.674[18, 21, 20, 23, 18, 19, 22, 16]
25.697[16, 22, 20, 21, 21, 20, 19, 17]
25.712[18, 20, 20, 19, 21, 19, 21, 19]
25.736[18, 21, 20, 19, 23, 19, 21, 19]
25.757[18, 21, 22, 19, 24, 20, 21, 20]
25.773[18, 18, 21, 19, 25, 21, 19, 20]
25.796[19, 19, 23, 18, 22, 21, 22, 20]
25.817[21, 18, 22, 20, 23, 22, 20, 19]
25.832[20, 18, 22, 20, 21, 21, 21, 21]
25.855[21, 20, 21, 22, 22, 19, 21, 19]
25.877[21, 22, 21, 19, 20, 20, 21, 20]
25.892[21, 23, 19, 21, 20, 20, 18, 20]
25.915[19, 24, 19, 22, 19, 20, 19, 21]
25.938[20, 25, 20, 22, 20, 19, 17, 18]
25.952[20, 25, 21, 21, 21, 19, 17, 19]
25.975[20, 24, 23, 22, 22, 16, 16, 17]
25.997[21, 23, 22, 19, 22, 17, 18, 18]
26.012[21, 23, 23, 18, 21, 17, 18, 17]
26.036[20, 21, 23, 19, 20, 19, 19, 18]
26.065[22, 21, 23, 19, 20, 20, 19, 21]
26.072[21, 23, 20, 19, 18, 21, 20, 20]
26.095[20, 23, 21, 22, 19, 19, 19, 20]
26.117[20, 21, 22, 22, 19, 20, 20, 20]
26.132[20, 22, 20, 21, 19, 21, 19, 21]
26.155[17, 21, 19, 20, 19, 21, 19, 18]
26.177[18, 18, 21, 20, 20, 20, 19, 19]
26.192[16, 18, 20, 18, 18, 20, 19, 19]
26.215[15, 19, 19, 18, 18, 19, 18, 19]
26.237[18, 18, 19, 20, 20, 17, 18, 21]
26.252[19, 19, 19, 22, 18, 22, 20, 21]
26.275[19, 20, 20, 21, 20, 22, 20, 21]
26.297[20, 19, 22, 24, 19, 23, 19, 21]
26.312[22, 21, 23, 25, 19, 23, 21, 20]
26.335[21, 21, 24, 25, 19, 24, 21, 18]
26.365[19, 22, 24, 24, 20, 19, 19, 18]
26.372[21, 24, 23, 24, 17, 19, 19, 18]
26.395[21, 24, 20, 20, 21, 20, 20, 18]
26.417[19, 23, 21, 17, 21, 19, 19, 19]
26.432[17, 23, 22, 18, 20, 20, 19, 16]
26.455[21, 24, 22, 17, 20, 19, 18, 18]
26.477[20, 22, 22, 19, 20, 18, 18, 18]
26.492[19, 22, 22, 22, 17, 19, 19, 18]
26.515[20, 20, 19, 23, 16, 19, 19, 19]
26.538[21, 21, 20, 21, 18, 19, 19, 20]
26.552[18, 19, 20, 21, 20, 20, 21, 18]
26.575[19, 20, 20, 20, 21, 21, 20, 20]
26.598[21, 19, 20, 17, 21, 21, 20, 20]
26.62[21, 20, 22, 19, 24, 22, 20, 19]
26.635[20, 20, 21, 20, 24, 21, 20, 18]
26.658[20, 21, 22, 19, 22, 21, 21, 17]
26.68[19, 21, 24, 20, 21, 21, 23, 17]
26.695[18, 22, 24, 21, 20, 21, 22, 19]
26.717[17, 21, 22, 20, 18, 20, 22, 19]
26.74[19, 20, 22, 20, 19, 19, 22, 19]
26.755[19, 19, 22, 21, 18, 18, 20, 20]
26.778[18, 20, 21, 19, 18, 17, 19, 19]
26.8[17, 20, 21, 18, 18, 17, 18, 20]
26.815[16, 21, 21, 21, 18, 16, 18, 20]
26.837[17, 23, 21, 22, 17, 18, 18, 19]
26.86[17, 20, 20, 22, 18, 19, 18, 19]
26.875[18, 20, 19, 23, 18, 19, 18, 23]
26.897[18, 21, 19, 23, 19, 18, 19, 21]
26.92[18, 19, 19, 24, 20, 19, 17, 21]
26.936[17, 20, 20, 22, 19, 17, 16, 22]
26.957[18, 23, 19, 22, 22, 18, 18, 22]
26.988[19, 23, 18, 22, 21, 18, 19, 19]
26.995[18, 23, 19, 23, 21, 20, 18, 19]
27.017[21, 24, 19, 19, 22, 18, 18, 21]
27.04[20, 23, 19, 18, 23, 19, 20, 21]
27.055[20, 21, 19, 18, 19, 19, 18, 21]
27.077[19, 22, 20, 16, 22, 19, 16, 21]
27.1[19, 22, 19, 15, 21, 18, 17, 21]
27.114[17, 20, 20, 17, 19, 18, 19, 20]
27.137[19, 20, 19, 18, 19, 18, 17, 20]
27.16[18, 20, 19, 19, 20, 18, 19, 20]
27.174[18, 20, 19, 21, 18, 20, 21, 18]
27.197[18, 19, 20, 21, 19, 21, 20, 17]
27.22[19, 20, 19, 19, 20, 22, 19, 18]
27.234[18, 19, 21, 21, 21, 22, 20, 18]
27.257[19, 21, 22, 20, 21, 21, 19, 18]
27.28[19, 19, 21, 19, 19, 20, 19, 21]
27.294[19, 20, 20, 21, 19, 18, 20, 22]
27.317[18, 21, 21, 22, 20, 18, 20, 22]
27.34[18, 21, 20, 21, 18, 18, 19, 20]
27.354[18, 20, 21, 22, 17, 18, 19, 21]
27.377[18, 23, 22, 21, 18, 18, 18, 18]
27.4[18, 23, 22, 21, 19, 21, 19, 17]
27.414[18, 23, 23, 22, 18, 20, 20, 20]
27.437[18, 24, 22, 21, 19, 22, 21, 22]
27.46[17, 24, 21, 23, 20, 23, 19, 22]
27.474[17, 23, 21, 22, 19, 22, 19, 22]
27.497[18, 22, 20, 22, 21, 20, 19, 22]
27.52[20, 22, 18, 20, 21, 22, 19, 20]
27.543[20, 20, 19, 20, 21, 21, 18, 19]
27.557[22, 20, 19, 17, 20, 21, 18, 18]
27.58[21, 21, 18, 18, 20, 22, 18, 17]
27.602[21, 20, 17, 17, 19, 22, 17, 18]
27.617[20, 20, 19, 19, 18, 21, 16, 22]
27.64[19, 22, 19, 19, 19, 22, 18, 22]
27.662[18, 21, 17, 19, 22, 21, 19, 23]
27.677[18, 21, 20, 20, 22, 21, 20, 23]
27.7[16, 22, 21, 23, 21, 19, 19, 22]
27.722[16, 22, 19, 20, 21, 19, 19, 18]
27.738[16, 19, 18, 22, 21, 19, 19, 19]
27.76[15, 18, 20, 21, 19, 20, 20, 18]
27.782[14, 17, 18, 20, 18, 20, 17, 18]
27.798[15, 16, 19, 21, 20, 20, 19, 19]
27.819[15, 16, 19, 23, 21, 21, 21, 20]
27.842[15, 18, 22, 21, 20, 19, 21, 21]
27.858[17, 18, 20, 23, 20, 18, 21, 19]
27.879[17, 18, 20, 24, 24, 17, 21, 21]
27.902[16, 17, 24, 23, 25, 20, 22, 23]
27.918[17, 17, 24, 22, 25, 21, 21, 23]
27.947[18, 17, 25, 23, 28, 21, 21, 21]
27.962[17, 18, 28, 22, 27, 21, 20, 22]
27.978[19, 19, 28, 21, 24, 21, 22, 19]
28.007[20, 20, 25, 20, 21, 19, 22, 19]
28.022[21, 19, 24, 20, 20, 18, 20, 18]
28.038[21, 21, 22, 20, 16, 17, 19, 18]
28.059[20, 20, 19, 20, 20, 17, 21, 18]
28.082[20, 20, 21, 19, 20, 18, 19, 21]
28.098[19, 20, 22, 20, 21, 18, 18, 19]
28.119[18, 21, 23, 21, 23, 17, 19, 19]
28.142[18, 19, 24, 20, 22, 20, 20, 19]
28.158[19, 20, 23, 20, 21, 21, 18, 18]
28.179[21, 19, 24, 21, 22, 20, 19, 17]
28.202[20, 19, 24, 20, 23, 20, 21, 17]
28.218[22, 19, 23, 20, 22, 20, 21, 18]
28.239[22, 19, 21, 20, 23, 19, 20, 19]
28.262[23, 22, 23, 19, 22, 18, 21, 20]
28.278[21, 22, 22, 18, 22, 19, 20, 19]
28.299[21, 26, 22, 17, 20, 21, 20, 18]
28.322[20, 25, 22, 17, 19, 22, 19, 17]
28.338[19, 24, 22, 19, 18, 21, 22, 18]
28.359[19, 22, 21, 20, 18, 20, 22, 18]
28.382[20, 24, 20, 19, 17, 20, 22, 18]
28.398[20, 21, 22, 19, 18, 18, 21, 18]
28.42[19, 22, 23, 20, 19, 16, 21, 19]
28.442[21, 25, 26, 16, 18, 19, 17, 19]
28.458[22, 25, 26, 19, 19, 19, 16, 22]
28.479[21, 25, 25, 18, 19, 21, 15, 23]
28.502[22, 25, 25, 20, 21, 21, 16, 25]
28.524[22, 25, 23, 20, 22, 22, 16, 25]
28.547[21, 22, 23, 24, 24, 21, 17, 24]
28.563[20, 23, 24, 22, 24, 24, 16, 20]
28.592[21, 19, 24, 22, 25, 22, 18, 22]
28.6[21, 19, 22, 20, 24, 22, 19, 20]
28.622[21, 20, 22, 21, 24, 22, 20, 19]
28.644[19, 21, 21, 18, 22, 24, 18, 18]
28.659[21, 21, 20, 18, 21, 22, 20, 18]
28.682[23, 21, 19, 19, 22, 21, 18, 14]
28.704[21, 21, 20, 21, 21, 22, 17, 15]
28.727[22, 21, 24, 20, 20, 24, 18, 18]
28.742[23, 19, 24, 22, 23, 21, 19, 18]
28.764[20, 19, 24, 23, 23, 22, 18, 20]
28.78[17, 19, 24, 23, 21, 21, 18, 21]
28.802[17, 20, 23, 22, 23, 22, 17, 19]
28.824[18, 19, 19, 22, 20, 21, 17, 17]
28.839[18, 21, 17, 23, 19, 21, 18, 17]
28.862[20, 24, 19, 23, 19, 22, 18, 15]
28.884[20, 24, 19, 22, 18, 24, 19, 15]
28.9[22, 23, 19, 22, 17, 24, 21, 20]
28.922[22, 24, 18, 22, 20, 23, 21, 20]
28.944[24, 23, 19, 20, 19, 24, 20, 21]
28.959[22, 21, 17, 19, 19, 23, 19, 22]
28.982[22, 22, 18, 18, 21, 21, 20, 23]
29.004[21, 20, 19, 17, 22, 19, 18, 18]
29.019[23, 21, 20, 17, 20, 20, 17, 17]
29.042[22, 21, 19, 17, 21, 18, 18, 18]
29.064[23, 22, 19, 17, 22, 18, 18, 17]
29.079[22, 23, 20, 17, 22, 17, 17, 16]
29.102[21, 23, 20, 19, 19, 20, 17, 18]
29.124[20, 22, 19, 19, 19, 19, 17, 19]
29.139[18, 25, 21, 19, 18, 20, 16, 20]
29.162[20, 25, 21, 19, 19, 19, 17, 19]
29.184[18, 24, 21, 21, 18, 21, 18, 18]
29.199[18, 25, 21, 20, 18, 19, 20, 19]
29.222[19, 26, 22, 20, 18, 19, 18, 19]
29.244[20, 23, 22, 19, 18, 18, 21, 18]
29.26[18, 22, 22, 19, 16, 19, 20, 19]
29.282[19, 20, 22, 20, 15, 20, 20, 19]
29.304[21, 21, 22, 20, 18, 21, 17, 18]
29.319[20, 22, 21, 21, 18, 19, 18, 17]
29.341[19, 19, 21, 22, 20, 20, 16, 18]
29.364[21, 20, 20, 22, 21, 23, 15, 18]
29.379[21, 21, 20, 20, 20, 20, 16, 19]
29.403[20, 21, 19, 19, 19, 22, 16, 20]
29.424[19, 20, 20, 20, 18, 22, 16, 20]
29.447[18, 22, 20, 20, 16, 23, 15, 21]
29.462[18, 22, 20, 21, 17, 19, 17, 20]
29.484[19, 22, 20, 22, 18, 20, 16, 19]
29.507[20, 20, 20, 23, 18, 17, 16, 19]
29.522[20, 20, 20, 21, 19, 18, 16, 19]
29.544[21, 22, 19, 21, 19, 20, 16, 17]
29.567[20, 22, 19, 20, 19, 21, 16, 21]
29.582[20, 22, 20, 19, 20, 21, 17, 21]
29.604[20, 23, 20, 19, 19, 20, 19, 22]
29.627[19, 22, 20, 20, 22, 22, 20, 21]
29.65[20, 21, 22, 21, 21, 19, 21, 21]
29.664[19, 20, 21, 21, 21, 19, 20, 20]
29.687[18, 21, 19, 22, 21, 19, 21, 20]
29.702[19, 21, 20, 21, 23, 20, 20, 20]
29.724[21, 23, 22, 25, 21, 18, 22, 20]
29.747[20, 22, 19, 23, 22, 21, 21, 21]
29.762[20, 23, 20, 22, 21, 19, 21, 19]
29.784[22, 23, 22, 22, 20, 23, 22, 19]
29.807[21, 23, 22, 23, 20, 24, 22, 22]
29.822[21, 21, 19, 20, 21, 23, 20, 22]
29.844[20, 23, 20, 21, 23, 24, 21, 20]
29.867[19, 23, 20, 21, 24, 25, 20, 20]
29.89[19, 23, 19, 23, 26, 24, 24, 23]
29.904[19, 26, 22, 26, 62, 35, 28, 22]
29.935[22, 34, 32, 38, 102, 51, 34, 24]
29.95[28, 49, 60, 67, 126, 69, 43, 29]
29.964[40, 59, 89, 123, 158, 83, 48, 33]
29.987[50, 70, 120, 169, 194, 90, 49, 36]
30.002[138, 82, 126, 184, 262, 142, 60, 59]
30.024[206, 93, 132, 199, 279, 156, 69, 77]
30.047[220, 98, 136, 208, 310, 171, 73, 83]
30.062[237, 95, 127, 190, 317, 184, 76, 84]
30.084[293, 92, 109, 168, 367, 262, 101, 98]
30.107[300, 107, 132, 186, 369, 246, 99, 103]
30.122[264, 100, 139, 205, 387, 260, 102, 96]
30.144[261, 94, 136, 203, 443, 331, 127, 99]
30.167[274, 109, 147, 223, 447, 336, 135, 113]
30.181[221, 118, 163, 239, 420, 299, 126, 110]
30.204[171, 101, 151, 238, 388, 305, 128, 98]
30.227[170, 102, 146, 227, 366, 295, 123, 96]
30.241[199, 117, 172, 288, 278, 222, 100, 95]
30.264[190, 111, 171, 290, 294, 213, 91, 87]
30.287[250, 136, 196, 295, 282, 258, 104, 96]
30.302[274, 138, 202, 301, 281, 266, 105, 99]
30.324[284, 138, 213, 310, 289, 283, 111, 100]
30.347[278, 130, 187, 250, 301, 294, 114, 97]
30.37[264, 128, 189, 232, 280, 305, 119, 91]
30.384[243, 103, 156, 209, 302, 274, 110, 80]
30.407[239, 110, 169, 229, 296, 255, 108, 81]
30.43[230, 114, 175, 227, 314, 264, 108, 80]
30.444[222, 113, 199, 246, 307, 245, 103, 77]
30.467[219, 113, 202, 278, 313, 268, 111, 83]
30.49[197, 127, 229, 303, 353, 281, 114, 73]
30.512[184, 142, 273, 329, 360, 301, 121, 64]
30.527[178, 140, 264, 314, 336, 285, 118, 64]
30.55[174, 137, 254, 311, 357, 304, 129, 69]
30.573[175, 136, 254, 305, 366, 293, 123, 62]
30.587[165, 123, 244, 297, 338, 292, 117, 67]
30.61[159, 101, 182, 270, 340, 299, 119, 76]
30.624[212, 104, 174, 276, 353, 305, 123, 87]
30.647[227, 109, 170, 269, 345, 287, 113, 96]
30.67[229, 105, 156, 252, 374, 290, 123, 100]
30.684[226, 106, 144, 236, 345, 262, 125, 99]
30.707[222, 105, 143, 219, 359, 244, 115, 93]
30.73[186, 99, 146, 232, 374, 227, 106, 85]
30.744[261, 101, 148, 236, 373, 230, 109, 90]
30.767[268, 98, 147, 230, 322, 213, 99, 84]
30.79[281, 90, 138, 239, 327, 219, 94, 83]
30.804[303, 89, 146, 239, 328, 246, 100, 92]
30.827[326, 96, 171, 289, 348, 258, 104, 102]
30.85[260, 92, 203, 302, 335, 265, 109, 84]
30.872[257, 105, 213, 309, 350, 270, 106, 93]
30.887[240, 117, 233, 320, 345, 280, 110, 98]
30.91[242, 121, 225, 303, 336, 260, 106, 98]
30.924[210, 120, 212, 244, 277, 243, 102, 88]
30.947[211, 124, 180, 226, 277, 229, 94, 95]
30.97[197, 126, 193, 228, 290, 213, 89, 87]
30.984[194, 113, 169, 212, 305, 224, 97, 87]
31.007[166, 109, 166, 214, 293, 204, 95, 78]
31.03[162, 113, 171, 220, 310, 241, 110, 77]
31.044[139, 105, 165, 220, 302, 235, 106, 67]
31.066[188, 91, 136, 206, 258, 245, 107, 69]
31.09[196, 87, 128, 185, 213, 221, 93, 64]
31.104[203, 98, 143, 180, 225, 224, 91, 57]
31.127[213, 83, 126, 152, 187, 188, 75, 64]
31.15[226, 83, 124, 154, 197, 209, 84, 66]
31.164[211, 90, 132, 172, 253, 226, 94, 69]
31.188[205, 89, 149, 201, 293, 234, 98, 67]
31.21[199, 81, 141, 219, 299, 245, 102, 71]
31.224[184, 86, 160, 241, 323, 254, 103, 67]
31.247[187, 102, 185, 237, 306, 236, 95, 66]
31.27[172, 104, 202, 263, 302, 198, 83, 62]
31.284[178, 102, 185, 246, 278, 194, 83, 60]
31.308[188, 115, 198, 237, 248, 176, 79, 64]
31.33[215, 117, 194, 224, 214, 151, 75, 73]
31.352[210, 102, 171, 216, 299, 161, 74, 72]
31.368[202, 105, 160, 180, 357, 239, 98, 78]
31.39[216, 113, 161, 176, 356, 227, 97, 88]
31.412[212, 111, 175, 226, 380, 240, 105, 93]
31.427[184, 105, 162, 225, 391, 252, 106, 84]
31.45[208, 111, 171, 237, 361, 269, 112, 93]
31.472[210, 103, 161, 227, 325, 238, 99, 89]
31.488[191, 94, 157, 224, 326, 239, 92, 77]
31.51[182, 86, 124, 164, 306, 223, 84, 70]
31.532[198, 93, 126, 151, 304, 223, 86, 76]
31.547[171, 85, 111, 133, 284, 194, 77, 64]
31.57[192, 86, 122, 144, 246, 169, 71, 63]
31.593[194, 94, 148, 161, 240, 192, 85, 66]
31.607[188, 80, 139, 158, 236, 203, 85, 64]
31.63[178, 84, 162, 190, 238, 187, 77, 55]
31.652[183, 86, 160, 188, 213, 186, 78, 62]
31.668[166, 80, 150, 186, 225, 196, 85, 67]
31.69[177, 74, 131, 192, 231, 183, 78, 72]
31.713[175, 79, 132, 188, 223, 169, 74, 70]
31.728[191, 78, 113, 172, 236, 188, 77, 74]
31.75[173, 75, 118, 187, 258, 195, 79, 69]
31.773[199, 84, 134, 183, 212, 179, 70, 65]
31.788[202, 91, 148, 184, 203, 168, 66, 63]
31.81[204, 89, 150, 199, 208, 167, 65, 64]
31.832[186, 79, 140, 186, 191, 151, 66, 67]
31.855[195, 86, 148, 181, 178, 145, 66, 69]
31.87[217, 79, 129, 165, 180, 125, 63, 71]
31.892[224, 78, 113, 145, 184, 119, 62, 72]
31.907[223, 76, 100, 118, 182, 138, 65, 70]
31.93[222, 81, 109, 122, 185, 154, 61, 70]
31.952[234, 73, 97, 113, 185, 154, 58, 71]
31.967[189, 93, 170, 199, 205, 159, 61, 67]
31.99[165, 87, 175, 195, 212, 162, 60, 61]
32.012[162, 89, 181, 196, 206, 146, 58, 63]
32.027[230, 89, 176, 194, 187, 124, 61, 73]
32.05[214, 90, 180, 197, 209, 131, 62, 69]
32.072[214, 78, 142, 164, 205, 129, 61, 68]
32.087[235, 76, 127, 162, 187, 134, 64, 71]
32.11[238, 74, 123, 175, 209, 141, 68, 71]
32.132[192, 78, 127, 175, 249, 166, 70, 61]
32.146[242, 86, 125, 184, 248, 185, 75, 74]
32.17[241, 78, 88, 139, 240, 188, 75, 76]
32.192[223, 77, 93, 137, 271, 188, 73, 78]
32.215[234, 87, 112, 135, 278, 208, 80, 83]
32.23[220, 91, 131, 147, 252, 200, 81, 77]
32.252[182, 89, 133, 145, 241, 185, 80, 75]
32.275[172, 93, 144, 159, 250, 184, 80, 70]
32.29[160, 95, 154, 177, 249, 189, 82, 67]
32.312[156, 88, 140, 169, 231, 167, 74, 58]
32.335[161, 78, 129, 160, 231, 152, 70, 63]
32.35[156, 75, 138, 180, 315, 194, 82, 55]
32.372[172, 70, 127, 173, 308, 191, 80, 60]
32.395[171, 65, 114, 156, 288, 192, 79, 60]
32.41[163, 71, 121, 170, 299, 208, 83, 68]
32.432[150, 70, 109, 170, 299, 210, 81, 69]
32.455[148, 70, 93, 139, 200, 157, 63, 70]
32.47[134, 77, 109, 139, 199, 156, 61, 63]
32.492[138, 83, 124, 141, 204, 145, 66, 67]
32.515[175, 100, 161, 155, 194, 138, 68, 66]
32.53[168, 103, 167, 157, 197, 150, 69, 62]
32.552[174, 100, 165, 162, 219, 166, 70, 68]
32.575[185, 93, 153, 158, 244, 186, 75, 71]
32.59[189, 95, 154, 167, 238, 193, 74, 65]
32.612[161, 69, 111, 130, 230, 182, 68, 60]
32.635[167, 74, 109, 136, 254, 172, 71, 61]
32.65[155, 74, 106, 127, 245, 168, 71, 57]
32.672[147, 86, 122, 143, 247, 193, 74, 62]
32.701[206, 85, 117, 128, 254, 192, 72, 72]
32.716[204, 85, 115, 157, 313, 201, 73, 70]
32.733[218, 74, 119, 191, 297, 207, 70, 76]
32.754[222, 79, 132, 194, 308, 204, 69, 75]
32.77[233, 72, 124, 190, 295, 177, 72, 79]
32.793[203, 74, 128, 207, 318, 170, 71, 79]
32.814[206, 82, 138, 213, 315, 189, 78, 82]
32.831[187, 86, 132, 187, 316, 216, 94, 81]
32.853[175, 91, 132, 190, 315, 237, 103, 80]
32.874[151, 91, 132, 195, 324, 285, 114, 72]
32.89[110, 84, 125, 197, 315, 328, 130, 70]
32.911[90, 87, 117, 194, 293, 336, 131, 76]
32.935[86, 92, 113, 185, 291, 320, 120, 71]
32.95[102, 87, 103, 179, 266, 303, 115, 69]
32.972[145, 92, 108, 174, 246, 252, 98, 75]
32.994[148, 95, 112, 163, 223, 205, 80, 75]
33.011[150, 90, 105, 137, 186, 166, 73, 68]
33.032[149, 83, 114, 145, 194, 173, 76, 66]
33.054[179, 82, 113, 157, 225, 201, 83, 68]
33.076[149, 76, 102, 150, 229, 202, 82, 61]
33.092[156, 74, 103, 156, 233, 195, 79, 54]
33.114[172, 78, 125, 161, 232, 206, 80, 54]
33.13[172, 77, 117, 162, 229, 211, 82, 52]
33.152[124, 68, 117, 164, 222, 208, 74, 45]
33.174[130, 69, 121, 162, 236, 228, 80, 47]
33.197[115, 62, 114, 156, 250, 249, 90, 49]
33.212[85, 63, 93, 157, 251, 278, 102, 49]
33.236[82, 68, 100, 154, 258, 308, 113, 55]
33.256[79, 72, 103, 141, 295, 313, 116, 57]
33.272[68, 83, 135, 162, 281, 305, 116, 58]
33.294[71, 84, 141, 168, 309, 318, 114, 63]
33.316[87, 83, 145, 160, 305, 279, 99, 61]
33.332[129, 85, 140, 156, 299, 253, 86, 66]
33.354[131, 85, 143, 164, 254, 243, 87, 67]
33.376[127, 73, 120, 164, 264, 247, 86, 66]
33.392[139, 85, 130, 161, 239, 223, 85, 63]
33.414[134, 77, 125, 173, 251, 242, 90, 66]
33.437[119, 75, 127, 176, 270, 274, 101, 69]
33.452[123, 72, 118, 163, 259, 264, 97, 66]
33.474[122, 72, 112, 138, 245, 256, 94, 63]
33.498[109, 64, 105, 127, 210, 237, 85, 65]
33.513[109, 64, 101, 123, 205, 226, 85, 64]
33.536[87, 61, 103, 130, 246, 187, 75, 56]
33.557[104, 62, 103, 132, 258, 186, 71, 56]
33.579[112, 61, 97, 127, 262, 187, 70, 57]
33.594[135, 60, 85, 121, 266, 189, 70, 57]
33.616[127, 62, 93, 117, 261, 185, 66, 55]
33.632[133, 63, 94, 110, 221, 188, 65, 54]
33.654[144, 67, 101, 106, 203, 176, 66, 62]
33.677[138, 68, 110, 113, 202, 167, 66, 63]
33.692[119, 68, 112, 117, 206, 189, 80, 60]
33.714[123, 73, 114, 114, 197, 193, 86, 62]
33.745[113, 81, 139, 129, 179, 169, 81, 63]
33.752[81, 103, 180, 160, 180, 169, 82, 57]
33.774[93, 103, 184, 162, 216, 171, 79, 59]
33.798[92, 101, 181, 169, 215, 157, 69, 55]
33.811[103, 100, 184, 164, 211, 145, 61, 55]
33.834[126, 96, 159, 145, 194, 140, 57, 51]
33.858[126, 69, 102, 123, 215, 154, 60, 48]
33.872[131, 72, 96, 116, 187, 144, 64, 49]
33.902[135, 73, 106, 119, 227, 133, 62, 59]
33.916[133, 76, 106, 130, 232, 128, 61, 61]
33.932[116, 71, 106, 129, 232, 115, 59, 60]
33.954[114, 71, 109, 123, 247, 120, 61, 59]
33.976[97, 67, 102, 130, 251, 119, 58, 55]
33.992[99, 64, 96, 121, 205, 117, 61, 45]
34.014[97, 53, 83, 122, 230, 133, 65, 49]
34.037[100, 54, 86, 130, 223, 145, 68, 55]
34.052[103, 49, 80, 124, 207, 154, 76, 55]
34.074[104, 53, 86, 133, 211, 164, 80, 57]
34.098[100, 46, 82, 130, 222, 168, 80, 57]
34.112[99, 48, 83, 129, 225, 173, 83, 49]
34.134[91, 54, 100, 123, 227, 163, 79, 45]
34.156[89, 72, 138, 155, 215, 139, 64, 47]
34.179[104, 72, 134, 146, 219, 130, 58, 51]
34.194[115, 83, 136, 152, 203, 121, 56, 54]
34.218[119, 85, 140, 144, 171, 111, 49, 53]
34.24[120, 86, 137, 156, 197, 120, 54, 53]
34.254[118, 74, 103, 134, 227, 126, 55, 50]
34.277[116, 88, 133, 174, 330, 206, 86, 52]
34.299[119, 82, 128, 164, 336, 208, 84, 61]
34.314[117, 83, 131, 172, 338, 207, 86, 66]
34.336[112, 77, 121, 167, 338, 206, 84, 64]
34.359[111, 78, 123, 168, 325, 201, 84, 63]
34.374[102, 57, 94, 129, 192, 118, 54, 58]
34.396[90, 51, 92, 134, 193, 133, 61, 50]
34.419[87, 51, 100, 142, 205, 139, 66, 55]
34.441[103, 61, 114, 152, 193, 146, 74, 57]
34.456[109, 73, 134, 156, 174, 145, 75, 65]
34.479[110, 81, 146, 168, 197, 147, 77, 69]
34.494[135, 83, 151, 174, 206, 144, 73, 67]
34.517[150, 79, 139, 161, 197, 139, 69, 62]
34.539[144, 75, 135, 150, 199, 134, 64, 61]
34.554[139, 64, 121, 149, 211, 134, 61, 53]
34.576[153, 53, 103, 128, 194, 131, 62, 50]
34.599[130, 66, 115, 125, 178, 122, 62, 47]
34.614[123, 66, 113, 121, 161, 112, 58, 44]
34.637[125, 67, 107, 119, 150, 116, 61, 53]
34.667[128, 70, 99, 105, 142, 119, 63, 55]
34.674[129, 79, 111, 131, 191, 150, 67, 52]
34.696[139, 75, 95, 123, 202, 165, 72, 58]
34.719[130, 81, 106, 133, 217, 185, 80, 61]
34.734[124, 79, 106, 140, 278, 192, 80, 53]
34.756[122, 79, 113, 151, 280, 193, 82, 53]
34.779[108, 74, 104, 129, 257, 185, 82, 56]
34.794[82, 71, 118, 142, 255, 171, 77, 51]
34.816[88, 67, 117, 152, 301, 182, 76, 45]
34.839[92, 67, 121, 150, 249, 184, 81, 46]
34.854[93, 62, 118, 144, 253, 187, 82, 47]
34.876[85, 57, 113, 143, 281, 184, 78, 45]
34.899[84, 56, 98, 139, 287, 192, 81, 46]
34.915[81, 56, 96, 118, 237, 165, 76, 51]
34.936[82, 66, 117, 115, 235, 151, 67, 49]
34.967[90, 79, 135, 134, 254, 146, 63, 46]
34.975[92, 83, 138, 134, 217, 136, 62, 43]
34.996[121, 81, 135, 135, 212, 131, 61, 42]
35.019[129, 83, 139, 145, 231, 145, 64, 38]
35.034[128, 91, 139, 149, 245, 151, 69, 43]
35.056[120, 87, 128, 127, 215, 154, 73, 44]
35.079[123, 99, 152, 144, 219, 169, 75, 54]
35.102[134, 106, 157, 135, 205, 161, 74, 61]
35.116[124, 118, 187, 144, 186, 152, 72, 62]
35.139[123, 105, 176, 145, 187, 149, 71, 61]
35.162[126, 104, 173, 152, 197, 145, 68, 63]
35.176[151, 95, 158, 137, 191, 122, 63, 59]
35.199[135, 88, 153, 137, 202, 122, 59, 54]
35.222[161, 67, 102, 118, 204, 128, 59, 65]
35.236[166, 69, 98, 116, 194, 118, 54, 65]
35.259[163, 68, 100, 128, 218, 126, 59, 61]
35.282[135, 60, 92, 125, 227, 136, 61, 58]
35.296[121, 60, 93, 122, 226, 129, 59, 55]
35.319[92, 59, 92, 116, 219, 111, 53, 42]
35.342[84, 69, 123, 134, 222, 134, 61, 42]
35.356[88, 69, 119, 129, 192, 134, 59, 44]
35.379[102, 73, 117, 134, 191, 125, 57, 45]
35.402[99, 72, 126, 137, 224, 138, 59, 43]
35.416[91, 80, 147, 166, 228, 147, 64, 55]
35.439[89, 76, 130, 168, 239, 135, 61, 60]
35.462[93, 75, 144, 166, 237, 122, 54, 58]
35.476[108, 83, 163, 170, 243, 123, 54, 59]
35.507[110, 91, 173, 181, 207, 114, 55, 60]
35.523[122, 89, 167, 166, 227, 117, 50, 48]
35.536[133, 94, 185, 165, 203, 103, 44, 44]
35.559[172, 108, 189, 159, 209, 106, 47, 55]
35.59[170, 104, 180, 156, 196, 106, 49, 58]
35.596[173, 94, 161, 142, 202, 101, 45, 56]
35.619[167, 92, 156, 133, 188, 97, 44, 55]
35.642[173, 89, 134, 113, 199, 109, 44, 60]
35.656[133, 74, 122, 111, 185, 106, 41, 49]
35.679[137, 82, 152, 129, 233, 138, 45, 52]
35.702[146, 113, 219, 201, 251, 141, 47, 59]
35.716[145, 117, 227, 209, 239, 132, 46, 59]
35.739[135, 115, 231, 229, 243, 137, 50, 53]
35.762[144, 119, 232, 234, 249, 135, 50, 55]
35.776[118, 109, 213, 225, 198, 103, 47, 49]
35.799[101, 90, 151, 186, 164, 100, 48, 41]
35.822[101, 85, 139, 177, 172, 102, 47, 40]
35.837[98, 84, 131, 150, 192, 89, 42, 38]
35.867[115, 70, 111, 139, 191, 98, 41, 46]
35.882[151, 79, 103, 148, 187, 96, 39, 56]
35.897[160, 66, 89, 119, 185, 97, 37, 57]
35.919[159, 63, 85, 116, 172, 98, 41, 57]
35.942[162, 61, 72, 116, 144, 92, 41, 62]
35.956[178, 71, 97, 131, 140, 85, 45, 58]
35.979[157, 70, 108, 126, 162, 92, 42, 50]
36.002[150, 76, 120, 132, 202, 96, 41, 51]
36.016[147, 74, 116, 131, 200, 93, 37, 53]
36.039[143, 73, 116, 126, 177, 88, 35, 47]
36.062[113, 81, 120, 124, 200, 109, 38, 52]
36.085[123, 74, 110, 115, 218, 119, 41, 55]
36.1[118, 69, 101, 113, 195, 120, 44, 52]
36.122[121, 70, 104, 111, 203, 120, 45, 56]
36.145[124, 73, 111, 131, 212, 124, 47, 57]
36.159[118, 67, 100, 129, 189, 104, 40, 49]
36.182[104, 76, 110, 130, 152, 79, 37, 44]
36.205[126, 91, 124, 145, 130, 66, 35, 49]
36.219[174, 113, 154, 158, 139, 85, 42, 54]
36.242[193, 112, 155, 153, 170, 95, 42, 57]
36.265[194, 112, 157, 153, 174, 103, 54, 67]
36.279[193, 108, 150, 152, 196, 104, 55, 66]
36.302[185, 98, 149, 136, 209, 107, 54, 76]
36.332[149, 70, 124, 130, 195, 96, 51, 71]
36.339[149, 72, 129, 149, 196, 106, 55, 76]
36.362[141, 67, 130, 149, 201, 106, 45, 68]
36.385[143, 74, 154, 156, 190, 112, 46, 76]
36.399[140, 73, 152, 163, 188, 111, 50, 65]
36.422[133, 86, 167, 172, 194, 108, 49, 61]
36.452[109, 85, 173, 163, 185, 101, 48, 52]
36.459[121, 81, 170, 160, 190, 94, 48, 53]
36.482[138, 77, 151, 161, 188, 97, 47, 51]
36.505[165, 84, 148, 162, 212, 96, 47, 55]
36.52[196, 76, 133, 179, 232, 105, 49, 62]
36.542[235, 74, 118, 171, 225, 111, 51, 66]
36.565[291, 72, 109, 165, 217, 118, 54, 88]
36.579[281, 77, 124, 190, 209, 112, 53, 86]
36.602[280, 65, 117, 185, 203, 135, 58, 85]
36.625[275, 74, 120, 163, 236, 150, 60, 84]
36.639[251, 81, 124, 157, 232, 147, 60, 91]
36.662[176, 81, 131, 167, 253, 150, 57, 67]
36.685[188, 74, 133, 167, 289, 157, 60, 73]
36.699[168, 77, 132, 167, 283, 148, 59, 71]
36.722[168, 63, 117, 159, 240, 133, 56, 71]
36.745[147, 52, 107, 161, 237, 121, 51, 60]
36.759[154, 51, 103, 155, 229, 110, 50, 64]
36.782[160, 46, 75, 120, 195, 105, 49, 58]
36.805[170, 57, 102, 123, 235, 148, 57, 62]
36.819[142, 67, 118, 129, 245, 154, 60, 59]
36.842[144, 75, 128, 128, 277, 168, 63, 59]
36.865[137, 75, 124, 125, 276, 171, 64, 56]
36.879[147, 86, 140, 129, 290, 176, 66, 61]
36.902[140, 78, 123, 126, 280, 141, 59, 56]
36.925[163, 74, 115, 139, 279, 160, 64, 62]
36.939[176, 75, 114, 135, 250, 150, 63, 64]
36.962[196, 80, 122, 160, 245, 157, 65, 66]
36.985[176, 74, 115, 182, 328, 183, 69, 61]
37.007[180, 83, 126, 210, 349, 194, 72, 65]
37.022[167, 79, 122, 201, 348, 176, 66, 73]
37.045[180, 80, 135, 207, 348, 178, 68, 73]
37.068[164, 73, 127, 189, 340, 177, 67, 68]
37.082[165, 70, 119, 160, 279, 144, 62, 69]
37.105[159, 62, 112, 119, 222, 126, 56, 70]
37.128[153, 67, 135, 132, 230, 134, 58, 60]
37.15[123, 64, 117, 130, 238, 138, 57, 59]
37.165[122, 68, 122, 152, 269, 155, 62, 73]
37.187[125, 72, 130, 164, 275, 171, 67, 79]
37.202[127, 72, 129, 169, 295, 181, 68, 79]
37.225[192, 71, 104, 157, 315, 181, 65, 92]
37.248[207, 68, 101, 154, 319, 175, 63, 95]
37.262[207, 70, 104, 134, 315, 170, 59, 84]
37.285[222, 74, 106, 146, 317, 165, 58, 83]
37.307[230, 78, 114, 151, 303, 164, 63, 81]
37.322[194, 77, 113, 148, 292, 159, 66, 78]
37.352[190, 74, 116, 150, 317, 168, 66, 74]
37.367[189, 76, 115, 148, 303, 152, 65, 78]
37.382[183, 70, 111, 154, 292, 153, 66, 73]
37.405[177, 63, 101, 139, 282, 148, 62, 80]
37.427[182, 66, 102, 141, 256, 143, 59, 72]
37.449[173, 69, 103, 152, 232, 133, 61, 72]
37.464[176, 62, 95, 164, 236, 136, 63, 72]
37.487[176, 63, 97, 140, 222, 127, 58, 74]
37.501[170, 69, 111, 148, 227, 115, 53, 72]
37.525[142, 65, 113, 146, 225, 118, 55, 63]
37.547[138, 62, 116, 127, 211, 120, 50, 62]
37.561[127, 71, 133, 122, 218, 119, 46, 57]
37.585[115, 65, 120, 120, 185, 117, 48, 55]
37.607[121, 62, 107, 113, 190, 126, 51, 48]
37.622[208, 72, 102, 110, 205, 124, 53, 64]
37.645[215, 78, 111, 122, 204, 129, 58, 63]
37.667[213, 75, 91, 125, 213, 128, 61, 66]
37.689[202, 75, 94, 127, 231, 120, 61, 64]
37.705[201, 76, 90, 126, 220, 110, 59, 61]
37.728[115, 65, 98, 139, 215, 104, 54, 52]
37.749[98, 61, 84, 131, 199, 89, 49, 51]
37.765[111, 62, 95, 115, 194, 83, 47, 55]
37.788[127, 65, 104, 123, 177, 92, 48, 59]
37.809[127, 73, 142, 191, 248, 142, 61, 58]
37.825[141, 90, 152, 194, 302, 167, 68, 57]
37.846[146, 91, 155, 210, 313, 170, 68, 59]
37.869[134, 88, 152, 211, 306, 174, 69, 51]
37.886[126, 92, 149, 214, 303, 173, 71, 47]
37.907[121, 91, 139, 182, 250, 136, 58, 50]
37.929[113, 79, 138, 181, 200, 104, 50, 51]
37.946[124, 76, 134, 161, 200, 104, 49, 48]
37.966[151, 74, 132, 176, 224, 121, 49, 52]
37.989[145, 67, 130, 171, 240, 127, 49, 63]
38.006[146, 56, 109, 151, 250, 143, 58, 62]
38.027[134, 52, 90, 139, 230, 149, 61, 57]
38.049[117, 57, 97, 149, 239, 158, 65, 62]
38.065[128, 78, 121, 142, 214, 147, 68, 69]
38.088[128, 79, 117, 134, 196, 145, 67, 63]
38.117[132, 82, 118, 142, 182, 138, 63, 67]
38.125[140, 84, 117, 138, 173, 133, 61, 71]
38.146[152, 80, 112, 130, 171, 118, 55, 70]
38.169[122, 63, 98, 130, 171, 107, 50, 64]
38.185[127, 71, 121, 160, 197, 106, 49, 63]
38.214[122, 68, 124, 157, 212, 114, 51, 55]
38.231[133, 70, 125, 160, 221, 120, 52, 62]
38.26[121, 74, 124, 162, 209, 143, 58, 63]
38.267[115, 77, 111, 152, 198, 150, 61, 63]
38.289[109, 74, 107, 127, 194, 144, 57, 60]
38.304[108, 72, 98, 115, 172, 134, 52, 61]
38.326[81, 67, 94, 110, 171, 126, 48, 44]
38.349[79, 62, 94, 103, 196, 99, 41, 51]
38.365[85, 64, 117, 111, 197, 107, 45, 57]
38.387[89, 60, 97, 108, 190, 110, 48, 62]
38.409[106, 60, 99, 127, 200, 126, 49, 61]
38.424[119, 63, 100, 126, 195, 129, 53, 66]
38.446[118, 65, 100, 129, 228, 137, 52, 57]
38.469[128, 66, 96, 122, 247, 126, 45, 53]
38.485[126, 69, 115, 132, 244, 132, 52, 57]
38.507[118, 73, 124, 138, 262, 111, 54, 62]
38.529[111, 72, 128, 150, 264, 111, 53, 61]
38.544[128, 71, 131, 152, 214, 108, 58, 65]
38.566[122, 72, 129, 159, 198, 108, 60, 65]
38.597[116, 72, 126, 147, 184, 92, 51, 55]
38.604[113, 70, 124, 133, 151, 92, 47, 48]
38.627[109, 67, 120, 123, 157, 93, 45, 44]
38.649[88, 67, 113, 115, 150, 83, 37, 38]
38.664[95, 60, 106, 110, 143, 89, 36, 33]
38.686[95, 55, 104, 125, 190, 101, 36, 33]
38.709[92, 53, 92, 118, 189, 101, 41, 47]
38.724[107, 53, 106, 140, 196, 106, 42, 55]
38.746[122, 55, 112, 144, 219, 102, 40, 55]
38.769[120, 63, 111, 150, 214, 91, 37, 54]
38.784[126, 68, 120, 154, 193, 84, 37, 58]
38.808[133, 73, 125, 157, 208, 87, 38, 61]
38.829[122, 77, 125, 147, 196, 82, 38, 55]
38.844[110, 84, 145, 169, 171, 84, 40, 56]
38.867[120, 82, 149, 165, 177, 82, 41, 58]
38.889[124, 90, 147, 153, 179, 85, 50, 60]
38.912[111, 85, 148, 158, 179, 82, 47, 45]
38.927[106, 85, 143, 165, 171, 71, 45, 44]
38.949[110, 81, 125, 145, 167, 69, 45, 49]
38.971[121, 78, 118, 147, 169, 86, 47, 50]
38.986[110, 63, 117, 149, 149, 80, 41, 52]
39.009[128, 65, 118, 174, 186, 89, 49, 59]
39.032[160, 79, 135, 173, 192, 94, 51, 67]
39.046[168, 78, 138, 186, 229, 111, 55, 65]
39.069[150, 72, 133, 180, 236, 102, 53, 70]
39.092[157, 76, 125, 175, 247, 110, 51, 66]
39.107[148, 90, 150, 157, 214, 106, 47, 63]
39.129[124, 89, 151, 159, 227, 105, 49, 57]
39.152[116, 90, 159, 160, 203, 93, 46, 54]
39.166[118, 91, 160, 158, 198, 91, 48, 44]
39.189[120, 91, 155, 157, 194, 94, 51, 46]
39.212[118, 77, 124, 146, 193, 95, 50, 50]
39.226[116, 64, 103, 135, 187, 100, 49, 50]
39.249[114, 66, 104, 136, 172, 98, 47, 49]
39.271[149, 70, 111, 144, 170, 102, 45, 55]
39.286[146, 68, 113, 147, 186, 96, 40, 51]
39.31[141, 68, 113, 141, 181, 95, 39, 47]
39.332[145, 76, 118, 133, 184, 96, 40, 55]
39.347[149, 71, 94, 104, 193, 98, 45, 62]
39.369[111, 65, 87, 96, 198, 96, 46, 59]
39.392[120, 63, 84, 100, 184, 96, 46, 64]
39.406[125, 70, 103, 104, 193, 95, 46, 66]
39.429[124, 68, 105, 110, 177, 84, 42, 61]
39.452[108, 74, 134, 112, 179, 95, 39, 55]
39.467[129, 75, 135, 120, 166, 112, 49, 58]
39.489[124, 73, 138, 108, 148, 108, 48, 63]
39.511[131, 68, 127, 107, 137, 111, 46, 60]
39.527[124, 58, 121, 108, 139, 113, 46, 58]
39.549[130, 67, 120, 143, 171, 103, 44, 59]
39.58[130, 80, 153, 160, 184, 84, 36, 56]
39.587[152, 81, 160, 182, 202, 91, 39, 51]
39.617[149, 87, 176, 197, 219, 96, 42, 51]
39.64[148, 87, 173, 194, 229, 95, 41, 51]
39.646[144, 73, 151, 170, 206, 97, 40, 49]
39.669[135, 59, 121, 149, 202, 103, 39, 43]
39.691[96, 57, 110, 128, 192, 99, 37, 34]
39.708[85, 41, 70, 93, 158, 84, 33, 33]
39.73[80, 40, 64, 88, 137, 80, 32, 32]
39.752[73, 37, 59, 76, 112, 76, 31, 28]
39.766[39, 30, 44, 57, 92, 153, 48, 28]
39.789[35, 27, 31, 33, 71, 155, 48, 26]
39.812[27, 26, 29, 32, 73, 174, 54, 24]
39.827[25, 25, 29, 29, 66, 182, 59, 25]
39.849[24, 26, 28, 27, 63, 183, 61, 26]
39.871[20, 26, 26, 26, 51, 118, 46, 27]
39.902[20, 26, 26, 27, 49, 110, 44, 25]
39.909[24, 26, 27, 24, 35, 78, 35, 25]
39.933[24, 25, 25, 24, 29, 55, 31, 22]
39.954[22, 22, 24, 25, 28, 42, 25, 21]
39.969[22, 24, 24, 24, 26, 34, 25, 19]
39.992[23, 22, 21, 21, 22, 31, 24, 19]
40.014[21, 22, 21, 21, 22, 25, 24, 21]
40.029[20, 22, 20, 21, 23, 24, 20, 20]
40.052[22, 21, 22, 20, 22, 22, 18, 20]
40.074[23, 19, 21, 21, 21, 20, 18, 20]
40.089[45, 20, 22, 21, 23, 21, 17, 21]
40.112[53, 22, 21, 22, 23, 21, 17, 20]
40.134[61, 22, 22, 22, 23, 21, 18, 24]
40.157[84, 26, 20, 22, 23, 22, 19, 31]
40.18[88, 27, 22, 21, 22, 22, 19, 32]
40.194[84, 26, 21, 19, 20, 19, 19, 32]
40.21[79, 25, 21, 22, 21, 19, 19, 32]
40.241[80, 26, 21, 21, 21, 20, 18, 29]
40.262[59, 24, 22, 21, 23, 20, 16, 20]
40.269[55, 23, 21, 21, 24, 20, 16, 20]
40.291[49, 23, 23, 21, 24, 21, 15, 19]
40.314[48, 23, 23, 19, 24, 21, 17, 19]
40.329[38, 20, 25, 19, 23, 19, 17, 19]
40.351[36, 20, 24, 20, 22, 21, 18, 22]
40.374[34, 20, 26, 20, 22, 20, 18, 23]
40.389[33, 19, 23, 21, 22, 19, 21, 23]
40.412[33, 18, 22, 20, 20, 20, 20, 23]
40.434[32, 19, 22, 19, 21, 21, 21, 23]
40.457[24, 18, 23, 17, 21, 21, 21, 23]
40.471[23, 20, 22, 17, 22, 21, 23, 20]
40.495[22, 22, 23, 18, 21, 22, 20, 19]
40.517[21, 21, 22, 18, 22, 21, 24, 23]
40.532[18, 21, 21, 18, 21, 20, 24, 22]
40.555[18, 21, 20, 19, 19, 20, 23, 22]
40.569[18, 21, 19, 18, 18, 20, 23, 21]
40.592[15, 20, 17, 17, 19, 21, 24, 24]
40.615[16, 22, 18, 17, 19, 20, 20, 21]
40.629[15, 24, 17, 19, 20, 21, 20, 21]
40.651[18, 23, 15, 19, 21, 20, 20, 21]
40.675[18, 22, 18, 21, 20, 20, 18, 21]
40.689[18, 22, 18, 23, 23, 19, 17, 18]
40.712[18, 21, 18, 23, 22, 19, 18, 18]
40.734[19, 21, 19, 22, 21, 19, 18, 18]
40.749[18, 22, 20, 22, 21, 21, 20, 15]
40.78[20, 23, 19, 22, 20, 20, 20, 15]
40.796[21, 23, 19, 21, 18, 20, 19, 16]
40.817[21, 23, 20, 21, 18, 20, 18, 18]
40.831[20, 21, 19, 22, 19, 21, 19, 19]
40.855[22, 20, 21, 21, 19, 21, 18, 19]
40.877[22, 20, 21, 18, 20, 21, 18, 22]
40.892[22, 20, 23, 19, 21, 20, 19, 23]
40.915[22, 20, 22, 19, 21, 22, 20, 22]
40.937[21, 19, 22, 18, 21, 20, 18, 21]
40.951[17, 19, 22, 21, 21, 18, 17, 22]
40.975[15, 18, 22, 22, 21, 20, 18, 21]
40.997[16, 18, 21, 24, 21, 21, 19, 19]
41.011[16, 18, 21, 24, 22, 20, 18, 19]
41.035[16, 19, 19, 24, 22, 23, 19, 24]
41.057[18, 21, 17, 25, 22, 23, 19, 23]
41.072[20, 21, 16, 23, 21, 23, 19, 23]
41.094[19, 21, 19, 21, 21, 22, 19, 25]
41.117[19, 21, 19, 21, 20, 20, 18, 24]
41.139[21, 20, 20, 20, 20, 19, 18, 20]
41.155[19, 19, 19, 19, 18, 18, 17, 20]
41.177[18, 20, 22, 20, 20, 16, 17, 18]
41.192[17, 21, 20, 22, 19, 16, 17, 17]
41.215[20, 23, 21, 23, 19, 18, 17, 18]
41.237[18, 22, 21, 23, 19, 19, 16, 19]
41.252[19, 24, 24, 23, 18, 18, 19, 21]
41.275[18, 24, 21, 23, 15, 20, 20, 22]
41.297[18, 22, 21, 21, 16, 20, 19, 23]
41.312[17, 21, 22, 22, 16, 22, 23, 23]
41.335[19, 24, 22, 23, 17, 20, 23, 23]
41.357[19, 22, 21, 23, 18, 22, 22, 24]
41.372[18, 20, 21, 24, 18, 23, 21, 22]
41.394[19, 20, 21, 24, 21, 23, 20, 22]
41.417[19, 19, 19, 26, 20, 20, 18, 21]
41.431[19, 21, 20, 24, 19, 21, 19, 21]
41.455[18, 20, 18, 23, 19, 21, 18, 20]
41.477[20, 22, 19, 21, 22, 20, 17, 22]
41.491[20, 23, 20, 22, 20, 20, 20, 22]
41.515[19, 23, 20, 19, 20, 22, 19, 22]
41.537[20, 19, 18, 21, 21, 21, 18, 21]
41.552[19, 20, 22, 21, 20, 22, 19, 23]
41.574[19, 17, 22, 23, 19, 21, 19, 21]
41.597[22, 19, 20, 21, 18, 21, 17, 21]
41.611[22, 19, 24, 20, 20, 20, 18, 21]
41.634[20, 19, 24, 21, 20, 20, 19, 23]
41.657[19, 19, 23, 22, 20, 19, 17, 21]
41.671[20, 19, 23, 20, 20, 19, 17, 22]
41.694[18, 18, 23, 21, 21, 20, 18, 21]
41.717[18, 18, 22, 21, 20, 20, 17, 22]
41.74[20, 19, 22, 18, 18, 21, 18, 21]
41.754[22, 19, 21, 17, 19, 21, 18, 21]
41.777[20, 19, 23, 18, 20, 21, 17, 19]
41.8[21, 20, 23, 17, 19, 22, 18, 21]
41.815[20, 21, 23, 18, 18, 21, 18, 20]
41.844[20, 21, 23, 17, 20, 20, 17, 18]
41.86[19, 19, 23, 19, 18, 19, 18, 19]
41.882[20, 20, 20, 18, 16, 18, 19, 20]
41.897[18, 19, 22, 19, 19, 20, 18, 18]
41.927[20, 20, 20, 23, 20, 20, 18, 19]
41.934[18, 20, 22, 23, 21, 20, 17, 19]
41.957[17, 20, 21, 23, 22, 20, 19, 17]
41.98[17, 20, 21, 24, 23, 22, 18, 19]
41.995[19, 22, 21, 24, 20, 18, 19, 21]
42.017[17, 20, 22, 20, 22, 19, 21, 21]
42.047[19, 20, 19, 20, 21, 20, 22, 21]
42.055[19, 20, 19, 20, 21, 22, 20, 22]
42.077[19, 19, 19, 18, 20, 21, 21, 23]
42.1[18, 19, 17, 19, 21, 21, 21, 21]
42.115[18, 19, 18, 19, 20, 21, 18, 22]
42.137[18, 21, 19, 18, 20, 23, 21, 22]
42.168[18, 21, 19, 20, 19, 22, 20, 21]
42.182[18, 21, 19, 22, 21, 22, 21, 19]
42.197[20, 18, 19, 20, 22, 23, 22, 21]
42.22[19, 18, 18, 19, 21, 22, 22, 19]
42.234[19, 17, 22, 21, 22, 20, 22, 19]
42.257[20, 18, 24, 20, 21, 19, 22, 19]
42.28[20, 18, 23, 18, 20, 19, 21, 19]
42.294[17, 18, 24, 18, 22, 19, 21, 16]
42.317[19, 20, 24, 21, 21, 19, 20, 18]
42.339[20, 18, 20, 19, 20, 19, 18, 18]
42.354[18, 20, 18, 21, 21, 19, 18, 20]
42.377[20, 22, 20, 21, 21, 18, 18, 19]
42.4[20, 22, 19, 23, 18, 19, 14, 19]
42.422[20, 21, 19, 22, 19, 18, 15, 17]
42.438[19, 22, 20, 23, 19, 20, 16, 20]
42.46[19, 19, 19, 20, 19, 20, 17, 19]
42.474[16, 16, 19, 22, 18, 21, 18, 21]
42.497[18, 18, 20, 20, 18, 20, 19, 21]
42.521[19, 17, 21, 20, 20, 21, 21, 22]
42.534[17, 17, 22, 19, 20, 20, 20, 18]
42.557[18, 19, 21, 20, 20, 18, 19, 22]
42.58[19, 20, 21, 18, 20, 18, 19, 20]
42.601[21, 20, 21, 18, 21, 19, 18, 20]
42.618[20, 21, 23, 22, 19, 19, 18, 20]
42.639[20, 22, 23, 22, 19, 20, 19, 20]
42.661[20, 20, 24, 23, 18, 21, 21, 17]
42.678[19, 20, 22, 24, 20, 21, 21, 18]
42.699[19, 20, 22, 23, 20, 20, 23, 18]
42.723[18, 20, 18, 21, 19, 19, 22, 21]
42.738[19, 19, 16, 20, 20, 17, 21, 21]
42.759[20, 19, 18, 19, 20, 18, 20, 20]
42.781[20, 20, 19, 17, 19, 18, 20, 20]
42.798[19, 19, 20, 20, 17, 18, 20, 20]
42.819[22, 19, 20, 19, 19, 20, 22, 17]
42.841[20, 18, 21, 19, 21, 21, 22, 17]
42.858[23, 19, 20, 22, 20, 19, 23, 18]
42.879[23, 20, 19, 23, 22, 19, 22, 21]
42.901[21, 21, 19, 20, 22, 20, 21, 20]
42.932[19, 22, 18, 21, 20, 18, 18, 21]
42.939[20, 21, 20, 24, 19, 19, 17, 21]
42.961[16, 20, 20, 21, 21, 19, 19, 21]
42.978[17, 18, 20, 21, 20, 19, 18, 20]
42.999[18, 19, 21, 21, 21, 19, 20, 22]
43.021[19, 18, 21, 22, 21, 19, 21, 21]
43.038[18, 19, 17, 21, 22, 18, 21, 24]
43.059[20, 19, 17, 22, 22, 19, 19, 23]
43.081[19, 17, 17, 23, 21, 21, 20, 23]
43.098[18, 17, 15, 24, 22, 20, 19, 21]
43.119[18, 18, 15, 23, 22, 20, 21, 20]
43.141[18, 18, 16, 24, 22, 20, 20, 18]
43.158[17, 19, 17, 23, 22, 19, 22, 18]
43.18[20, 20, 19, 23, 22, 20, 21, 17]
43.201[19, 19, 18, 22, 22, 21, 21, 17]
43.218[21, 20, 19, 21, 22, 20, 20, 17]
43.239[20, 19, 20, 20, 19, 21, 21, 18]
43.269[22, 20, 20, 20, 19, 22, 21, 18]
43.278[19, 20, 18, 20, 18, 20, 21, 19]
43.299[20, 21, 21, 20, 17, 19, 19, 18]
43.321[17, 20, 21, 20, 18, 19, 18, 18]
43.338[17, 18, 21, 20, 18, 18, 17, 21]
43.359[16, 18, 20, 21, 18, 17, 17, 22]
43.389[18, 18, 21, 19, 18, 17, 15, 22]
43.398[17, 19, 21, 20, 19, 17, 18, 24]
43.419[19, 19, 24, 18, 17, 18, 18, 24]
43.441[20, 21, 22, 16, 21, 17, 19, 20]
43.464[21, 20, 24, 18, 21, 17, 19, 21]
43.479[21, 20, 25, 20, 23, 18, 19, 21]
43.501[21, 20, 24, 20, 22, 18, 18, 21]
43.518[22, 20, 20, 21, 23, 19, 16, 21]
43.539[21, 19, 21, 22, 20, 20, 16, 21]
43.57[19, 20, 23, 19, 20, 21, 15, 21]
43.578[21, 19, 25, 20, 20, 19, 17, 19]
43.599[18, 22, 24, 21, 19, 18, 18, 17]
43.621[17, 21, 24, 22, 20, 18, 19, 21]
43.644[18, 21, 24, 21, 20, 18, 18, 20]
43.659[20, 23, 24, 22, 21, 17, 21, 20]
43.681[20, 23, 21, 21, 20, 17, 19, 20]
43.704[21, 21, 23, 21, 22, 17, 18, 20]
43.719[21, 23, 24, 18, 22, 17, 19, 19]
43.741[20, 22, 22, 20, 21, 17, 18, 18]
43.764[19, 21, 23, 20, 20, 16, 16, 19]
43.788[18, 19, 23, 19, 20, 17, 18, 20]
43.801[18, 20, 23, 18, 18, 17, 18, 21]
43.824[17, 18, 23, 20, 19, 17, 18, 18]
43.839[17, 19, 24, 19, 20, 18, 20, 19]
43.861[19, 18, 21, 17, 20, 18, 20, 18]
43.884[19, 19, 21, 18, 20, 18, 19, 17]
43.899[18, 18, 21, 19, 21, 18, 20, 21]
43.921[21, 18, 21, 19, 20, 18, 19, 20]
43.944[21, 18, 21, 21, 19, 18, 19, 20]
43.959[21, 19, 22, 23, 19, 19, 18, 20]
43.982[21, 18, 22, 22, 18, 19, 20, 20]
44.004[23, 19, 22, 22, 18, 19, 20, 17]
44.019[21, 20, 23, 20, 17, 18, 20, 18]
44.041[20, 22, 21, 18, 18, 17, 18, 18]
44.065[18, 21, 19, 19, 20, 20, 19, 18]
44.086[20, 22, 20, 20, 21, 20, 17, 18]
44.101[18, 22, 21, 20, 21, 19, 18, 17]
44.124[18, 23, 21, 20, 22, 22, 17, 19]
44.139[19, 21, 20, 21, 22, 22, 17, 18]
44.161[22, 21, 22, 18, 20, 19, 18, 17]
44.184[20, 20, 19, 20, 20, 18, 17, 21]
44.199[18, 22, 17, 19, 19, 20, 17, 21]
44.221[19, 19, 18, 20, 19, 17, 17, 20]
44.244[21, 20, 19, 20, 16, 20, 17, 20]
44.259[19, 22, 21, 21, 17, 19, 16, 22]
44.282[18, 23, 21, 21, 18, 24, 17, 18]
44.304[18, 21, 22, 21, 18, 22, 16, 18]
44.319[19, 21, 21, 21, 19, 25, 15, 18]
44.344[17, 22, 23, 19, 21, 23, 16, 18]
44.364[15, 21, 19, 21, 21, 23, 17, 17]
44.379[17, 20, 20, 20, 19, 19, 15, 17]
44.401[19, 21, 21, 20, 19, 22, 17, 17]
44.424[18, 21, 21, 18, 21, 22, 18, 17]
44.439[19, 20, 20, 19, 23, 24, 17, 18]
44.461[20, 21, 19, 16, 22, 24, 16, 18]
44.484[20, 21, 19, 15, 24, 23, 17, 17]
44.499[21, 20, 19, 17, 23, 22, 16, 17]
44.521[23, 19, 20, 18, 22, 19, 17, 18]
44.544[22, 20, 21, 18, 19, 21, 18, 17]
44.566[23, 18, 23, 19, 20, 20, 19, 17]
44.59[22, 18, 23, 20, 20, 20, 18, 18]
44.604[20, 21, 22, 21, 20, 24, 21, 18]
44.626[18, 22, 24, 20, 19, 25, 20, 21]
44.642[18, 21, 23, 20, 19, 21, 19, 20]
44.665[16, 22, 22, 20, 17, 22, 20, 21]
44.686[19, 22, 23, 19, 16, 23, 21, 21]
44.703[20, 20, 22, 16, 15, 17, 18, 22]
44.726[20, 18, 22, 18, 16, 17, 18, 20]
44.747[20, 21, 23, 19, 18, 19, 19, 20]
44.761[20, 22, 23, 18, 18, 19, 20, 19]
44.784[18, 21, 24, 20, 19, 19, 19, 19]
44.807[16, 21, 24, 20, 21, 19, 19, 19]
44.821[16, 23, 22, 21, 21, 20, 18, 20]
44.844[17, 22, 22, 19, 21, 17, 18, 21]
44.866[19, 22, 22, 22, 22, 17, 16, 21]
44.881[17, 22, 20, 20, 22, 19, 17, 20]
44.904[17, 22, 21, 21, 22, 20, 18, 18]
44.926[17, 20, 21, 19, 21, 20, 18, 16]
44.942[15, 20, 19, 20, 19, 21, 18, 16]
44.964[15, 22, 21, 18, 21, 22, 20, 15]
44.986[16, 23, 23, 18, 21, 19, 18, 16]
45.001[16, 22, 21, 18, 21, 21, 18, 17]
45.024[16, 21, 22, 20, 21, 21, 19, 18]
45.046[17, 20, 23, 19, 21, 21, 20, 21]
45.061[18, 18, 20, 20, 20, 21, 17, 23]
45.084[16, 17, 18, 20, 18, 21, 18, 22]
45.106[17, 18, 19, 20, 16, 18, 19, 23]
45.123[19, 20, 18, 19, 16, 17, 19, 24]
45.152[21, 21, 19, 18, 16, 19, 18, 21]
45.166[20, 19, 19, 17, 19, 19, 19, 18]
45.189[21, 21, 22, 19, 20, 19, 19, 19]
45.204[21, 21, 22, 19, 20, 18, 18, 17]
45.226[21, 22, 22, 20, 19, 18, 18, 17]
45.241[20, 21, 21, 20, 22, 18, 18, 17]
45.264[19, 21, 20, 20, 22, 17, 17, 17]
45.286[19, 22, 19, 18, 22, 19, 16, 17]
45.301[20, 21, 22, 19, 23, 20, 17, 19]
45.324[18, 20, 22, 20, 23, 19, 18, 18]
45.346[19, 20, 22, 19, 20, 23, 18, 17]
45.361[21, 20, 24, 19, 19, 23, 19, 17]
45.384[22, 19, 24, 18, 20, 21, 19, 18]
45.406[21, 20, 21, 18, 20, 24, 19, 18]
45.431[21, 18, 23, 15, 19, 24, 24, 18]
45.444[20, 19, 22, 19, 19, 21, 24, 19]
45.467[17, 21, 22, 21, 19, 21, 23, 20]
45.489[19, 19, 23, 21, 19, 21, 24, 20]
45.504[18, 19, 24, 22, 20, 20, 23, 21]
45.527[19, 19, 21, 22, 22, 21, 18, 22]
45.549[18, 19, 23, 21, 22, 20, 20, 21]
45.564[21, 18, 22, 21, 20, 19, 20, 19]
45.587[20, 20, 21, 22, 21, 18, 23, 20]
45.609[21, 19, 21, 21, 20, 18, 22, 19]
45.624[20, 20, 20, 23, 19, 18, 21, 19]
45.647[21, 24, 20, 21, 19, 21, 20, 20]
45.67[20, 24, 20, 21, 20, 23, 21, 20]
45.684[21, 23, 19, 23, 19, 24, 17, 21]
45.707[21, 23, 21, 24, 19, 24, 19, 21]
45.729[21, 24, 23, 22, 19, 23, 19, 20]
45.744[25, 21, 20, 22, 24, 22, 19, 21]
45.768[23, 19, 21, 24, 23, 21, 20, 23]
45.789[22, 21, 20, 21, 31, 22, 20, 21]
45.804[24, 23, 20, 19, 33, 26, 19, 20]
45.834[25, 24, 18, 21, 35, 26, 19, 19]
45.849[21, 25, 19, 21, 36, 26, 19, 17]
45.864[21, 25, 21, 18, 37, 26, 18, 17]
45.887[21, 24, 21, 20, 30, 25, 19, 16]
45.909[17, 23, 22, 22, 27, 22, 18, 15]
45.932[17, 20, 23, 22, 25, 24, 18, 18]
45.947[17, 19, 23, 22, 17, 22, 17, 17]
45.969[17, 19, 20, 24, 17, 22, 19, 17]
45.984[17, 18, 20, 22, 20, 23, 20, 18]
46.007[18, 20, 18, 21, 27, 22, 21, 19]
46.03[20, 19, 17, 20, 32, 19, 21, 17]
46.052[23, 19, 18, 20, 32, 21, 21, 19]
46.067[24, 19, 19, 16, 31, 21, 19, 18]
46.089[25, 20, 20, 17, 30, 22, 20, 18]
46.104[24, 18, 21, 18, 25, 21, 19, 18]
46.127[24, 19, 21, 20, 17, 22, 22, 18]
46.15[21, 22, 21, 23, 17, 21, 22, 18]
46.164[20, 23, 19, 23, 22, 20, 22, 21]
46.187[19, 22, 20, 23, 22, 17, 20, 21]
46.209[20, 21, 20, 23, 22, 17, 20, 21]
46.224[20, 20, 21, 22, 24, 20, 17, 20]
46.254[20, 17, 19, 19, 24, 19, 17, 21]
46.277[19, 19, 21, 20, 22, 19, 18, 18]
46.284[18, 20, 21, 20, 21, 22, 17, 19]
46.307[17, 19, 21, 22, 22, 21, 19, 19]
46.329[16, 21, 23, 21, 21, 18, 20, 19]
46.344[17, 21, 23, 21, 20, 18, 20, 20]
46.367[17, 21, 21, 21, 21, 22, 19, 19]
46.389[19, 21, 21, 21, 23, 20, 22, 18]
46.412[21, 22, 22, 19, 24, 21, 21, 17]
46.427[21, 20, 20, 21, 20, 22, 19, 18]
46.449[21, 21, 20, 20, 21, 23, 21, 17]
46.472[22, 18, 21, 20, 21, 19, 22, 18]
46.487[22, 19, 21, 19, 20, 19, 20, 18]
46.51[23, 19, 21, 21, 19, 18, 19, 22]
46.532[21, 19, 20, 18, 22, 19, 20, 20]
46.554[21, 19, 21, 21, 23, 20, 18, 21]
46.569[19, 19, 20, 20, 23, 24, 16, 21]
46.592[20, 18, 20, 22, 23, 23, 16, 21]
46.608[20, 17, 21, 20, 24, 23, 20, 18]
46.63[20, 18, 21, 22, 22, 21, 20, 19]
46.652[20, 19, 21, 20, 21, 20, 20, 17]
46.667[22, 20, 21, 20, 21, 15, 20, 19]
46.689[21, 21, 18, 20, 21, 18, 21, 19]
46.712[19, 20, 21, 21, 20, 22, 18, 18]
46.727[19, 19, 21, 20, 19, 22, 18, 18]
46.749[19, 19, 21, 20, 20, 25, 20, 20]
46.772[19, 17, 22, 21, 19, 25, 21, 17]
46.787[19, 18, 23, 19, 19, 23, 20, 17]
46.817[18, 19, 19, 17, 19, 20, 19, 17]
46.832[17, 19, 20, 17, 20, 21, 19, 19]
46.856[17, 21, 19, 18, 19, 18, 19, 16]
46.869[16, 21, 19, 18, 20, 19, 18, 18]
46.892[17, 20, 19, 21, 20, 20, 21, 18]
46.907[18, 21, 20, 22, 21, 19, 22, 20]
46.929[18, 21, 20, 23, 22, 19, 22, 18]
46.952[17, 18, 19, 23, 23, 20, 21, 19]
46.966[20, 19, 20, 23, 22, 21, 23, 18]
46.989[18, 20, 18, 22, 21, 20, 21, 19]
47.012[17, 19, 19, 22, 20, 21, 20, 17]
47.026[19, 20, 20, 20, 19, 20, 19, 21]
47.05[20, 22, 22, 19, 18, 21, 21, 20]
47.072[19, 21, 22, 18, 18, 19, 18, 20]
47.095[19, 21, 21, 16, 19, 20, 19, 21]
47.11[20, 23, 20, 17, 18, 20, 22, 21]
47.132[20, 22, 20, 19, 17, 20, 22, 19]
47.146[20, 21, 21, 18, 19, 18, 20, 18]
47.169[20, 21, 22, 21, 21, 20, 20, 18]
47.192[20, 22, 23, 22, 21, 20, 19, 16]
47.206[21, 22, 24, 21, 22, 19, 16, 17]
47.229[21, 23, 24, 21, 23, 18, 18, 16]
47.252[20, 22, 22, 20, 21, 20, 18, 16]
47.266[19, 21, 21, 19, 19, 19, 18, 15]
47.289[20, 21, 23, 19, 20, 20, 18, 18]
47.313[19, 18, 22, 18, 19, 20, 20, 16]
47.326[19, 18, 22, 19, 18, 21, 17, 17]
47.349[21, 19, 22, 21, 20, 21, 18, 18]
47.372[23, 19, 22, 20, 20, 20, 18, 19]
47.386[22, 18, 20, 21, 22, 19, 19, 19]
47.409[22, 19, 22, 21, 21, 21, 17, 21]
47.432[22, 20, 22, 19, 22, 21, 17, 19]
47.455[20, 19, 22, 18, 22, 20, 20, 18]
47.469[20, 21, 23, 19, 22, 19, 20, 18]
47.492[20, 21, 22, 19, 23, 20, 19, 16]
47.514[19, 19, 19, 21, 23, 20, 20, 16]
47.53[20, 20, 18, 22, 22, 20, 22, 17]
47.553[18, 21, 18, 21, 21, 20, 19, 19]
47.574[16, 20, 17, 23, 20, 21, 22, 20]
47.59[18, 20, 18, 21, 21, 22, 22, 22]
47.612[18, 21, 19, 19, 20, 21, 20, 21]
47.634[17, 19, 20, 20, 21, 22, 18, 21]
47.65[17, 19, 19, 22, 23, 24, 20, 19]
47.671[16, 18, 19, 18, 24, 24, 18, 21]
47.694[17, 18, 19, 20, 23, 22, 19, 20]
47.71[17, 19, 20, 20, 24, 23, 20, 20]
47.731[18, 20, 19, 19, 26, 22, 22, 21]
47.754[18, 18, 20, 21, 24, 20, 22, 22]
47.77[23, 22, 19, 21, 23, 19, 21, 21]
47.799[22, 23, 21, 21, 23, 21, 21, 21]
47.814[22, 25, 20, 21, 22, 20, 21, 22]
47.83[22, 24, 20, 22, 20, 19, 20, 21]
47.851[22, 26, 20, 21, 20, 18, 21, 20]
47.874[17, 24, 21, 23, 20, 20, 21, 20]
47.89[19, 22, 20, 22, 19, 17, 20, 20]
47.911[18, 20, 20, 23, 19, 18, 19, 19]
47.934[18, 22, 23, 21, 18, 19, 17, 20]
47.95[19, 21, 24, 22, 18, 20, 15, 20]
47.971[19, 21, 24, 21, 18, 19, 16, 20]
47.994[19, 22, 24, 21, 18, 20, 16, 18]
48.01[18, 22, 23, 21, 20, 19, 17, 20]
48.031[18, 23, 20, 23, 20, 20, 17, 20]
48.054[19, 21, 18, 21, 19, 21, 18, 19]
48.07[19, 21, 18, 21, 20, 20, 20, 23]
48.092[18, 20, 20, 20, 21, 20, 21, 24]
48.114[19, 21, 22, 21, 18, 20, 22, 23]
48.13[18, 20, 23, 20, 19, 39, 22, 22]
48.151[17, 20, 23, 21, 19, 54, 22, 24]
48.174[17, 20, 23, 21, 21, 57, 20, 20]
48.19[17, 21, 24, 21, 20, 57, 19, 19]
48.212[17, 20, 22, 21, 21, 57, 19, 20]
48.234[17, 19, 23, 19, 22, 46, 20, 20]
48.251[17, 20, 24, 20, 22, 27, 19, 18]
48.272[17, 20, 24, 24, 19, 21, 20, 17]
48.294[17, 21, 23, 23, 22, 21, 21, 17]
48.31[20, 21, 24, 23, 22, 24, 19, 16]
48.331[19, 21, 23, 24, 20, 23, 18, 16]
48.354[21, 21, 23, 24, 20, 22, 19, 15]
48.376[21, 22, 23, 22, 21, 22, 19, 15]
48.391[20, 22, 22, 22, 20, 23, 18, 16]
48.414[19, 23, 21, 21, 20, 22, 18, 16]
48.436[21, 22, 19, 21, 21, 22, 18, 16]
48.453[21, 25, 19, 21, 21, 22, 17, 18]
48.474[21, 24, 19, 21, 22, 23, 18, 18]
48.497[21, 23, 19, 21, 21, 24, 17, 19]
48.511[21, 24, 22, 21, 22, 21, 18, 21]
48.534[20, 24, 22, 24, 23, 21, 19, 21]
48.556[17, 22, 25, 21, 23, 22, 20, 20]
48.571[20, 22, 25, 19, 21, 21, 18, 20]
48.594[20, 21, 25, 20, 21, 19, 19, 17]
48.616[20, 18, 22, 22, 21, 18, 18, 20]
48.633[20, 18, 21, 21, 20, 18, 17, 21]
48.654[22, 18, 18, 22, 20, 18, 18, 21]
48.676[19, 18, 19, 24, 20, 18, 19, 21]
48.691[19, 18, 21, 23, 23, 18, 20, 23]
48.714[19, 19, 21, 21, 22, 19, 21, 19]
48.737[18, 20, 23, 20, 22, 19, 20, 17]
48.751[18, 20, 24, 19, 22, 19, 20, 19]
48.774[19, 20, 23, 19, 23, 17, 21, 19]
48.796[18, 21, 21, 21, 20, 19, 21, 19]
48.811[18, 21, 22, 20, 20, 19, 20, 20]
48.834[18, 21, 22, 21, 19, 19, 21, 20]
48.856[19, 23, 20, 21, 19, 18, 19, 18]
48.871[20, 22, 20, 20, 15, 22, 17, 18]
48.894[19, 22, 22, 19, 18, 19, 16, 18]
48.916[19, 22, 20, 20, 18, 20, 16, 20]
48.931[20, 20, 18, 19, 19, 21, 20, 19]
48.954[18, 20, 21, 18, 18, 21, 20, 21]
48.976[17, 20, 21, 20, 19, 20, 20, 24]
48.991[17, 19, 20, 18, 17, 22, 21, 23]
49.014[16, 20, 20, 20, 19, 21, 21, 23]
49.036[15, 21, 21, 21, 21, 20, 17, 24]
49.059[17, 21, 18, 21, 21, 21, 20, 22]
49.074[18, 22, 19, 21, 21, 18, 21, 20]
49.097[20, 23, 17, 22, 22, 16, 21, 20]
49.119[19, 23, 18, 20, 20, 17, 21, 17]
49.134[19, 23, 17, 19, 17, 17, 22, 19]
49.156[21, 21, 20, 20, 17, 17, 19, 18]
49.172[21, 23, 21, 22, 18, 19, 19, 17]
49.194[21, 22, 21, 21, 17, 18, 18, 17]
49.216[21, 22, 21, 21, 20, 18, 19, 18]
49.232[23, 21, 23, 22, 20, 19, 18, 18]
49.254[19, 22, 21, 19, 22, 20, 18, 21]
49.276[20, 20, 21, 16, 22, 18, 19, 20]
49.291[20, 20, 22, 21, 22, 19, 19, 20]
49.314[21, 21, 22, 21, 20, 18, 19, 20]
49.336[19, 21, 21, 22, 20, 18, 18, 18]
49.359[20, 20, 21, 22, 20, 18, 17, 17]
49.382[22, 20, 19, 24, 19, 19, 16, 16]
49.396[22, 19, 21, 22, 19, 19, 17, 16]
49.419[20, 18, 22, 23, 18, 19, 18, 18]
49.434[21, 20, 22, 22, 20, 18, 18, 17]
49.456[21, 22, 21, 22, 19, 18, 19, 16]
49.479[17, 21, 22, 19, 19, 19, 20, 18]
49.494[17, 22, 20, 18, 19, 21, 18, 18]
49.516[17, 23, 19, 17, 19, 21, 19, 16]
49.539[17, 23, 19, 18, 18, 22, 19, 18]
49.554[17, 25, 20, 19, 20, 21, 20, 19]
49.576[19, 25, 20, 20, 21, 21, 19, 19]
49.599[19, 24, 23, 20, 22, 19, 22, 19]
49.614[19, 25, 23, 22, 22, 20, 19, 20]
49.637[21, 24, 24, 21, 21, 18, 20, 20]
49.659[21, 20, 26, 21, 18, 19, 20, 20]
49.675[19, 20, 26, 20, 17, 18, 19, 20]
49.696[20, 20, 23, 22, 16, 18, 18, 21]
49.719[21, 18, 24, 20, 17, 20, 19, 20]
49.734[21, 18, 22, 21, 20, 20, 20, 19]
49.756[21, 19, 20, 21, 21, 20, 18, 18]
49.779[21, 20, 20, 21, 23, 21, 19, 18]
49.794[20, 20, 20, 19, 23, 20, 17, 18]
49.816[21, 21, 19, 20, 21, 19, 17, 19]
49.839[20, 21, 21, 19, 19, 19, 17, 19]
49.862[18, 22, 21, 19, 19, 19, 16, 22]
49.876[20, 21, 21, 18, 18, 18, 17, 21]
49.899[20, 20, 21, 18, 17, 20, 17, 21]
49.914[22, 21, 20, 19, 21, 20, 20, 19]
49.936[21, 20, 20, 20, 20, 19, 22, 21]
49.959[22, 18, 22, 20, 21, 19, 23, 18]
49.974[22, 23, 23, 21, 22, 18, 23, 19]
49.996[21, 22, 23, 20, 22, 18, 23, 19]
50.019[18, 21, 24, 20, 18, 17, 22, 20]
50.034[18, 22, 23, 19, 20, 18, 20, 19]
50.056[17, 23, 21, 19, 19, 19, 20, 19]
50.079[15, 19, 20, 19, 18, 19, 21, 19]
50.094[17, 21, 23, 20, 21, 20, 20, 20]
50.116[18, 22, 21, 18, 23, 20, 19, 20]
50.14[19, 21, 20, 18, 23, 19, 19, 22]
50.169[19, 19, 18, 17, 23, 19, 19, 23]
50.176[19, 20, 20, 18, 22, 19, 18, 21]
50.199[18, 20, 19, 17, 20, 17, 18, 22]
50.214[18, 21, 21, 19, 21, 18, 18, 21]
50.236[19, 21, 22, 21, 20, 18, 20, 17]
50.259[19, 22, 22, 21, 18, 18, 20, 17]
50.282[20, 21, 21, 22, 21, 18, 20, 19]
50.296[21, 22, 19, 23, 21, 18, 20, 17]
50.327[20, 21, 17, 22, 18, 16, 21, 18]
50.342[20, 21, 18, 22, 18, 18, 18, 19]
50.356[19, 21, 20, 22, 19, 18, 18, 19]
50.379[21, 22, 21, 21, 18, 17, 18, 18]
50.402[20, 22, 22, 21, 18, 16, 18, 19]
50.416[20, 20, 22, 20, 19, 17, 17, 19]
50.439[19, 21, 21, 23, 19, 17, 18, 19]
50.462[23, 21, 20, 24, 19, 16, 18, 19]
50.476[22, 22, 20, 23, 17, 17, 18, 20]
50.499[22, 21, 19, 23, 18, 20, 20, 18]
50.522[21, 21, 21, 23, 19, 21, 19, 17]
50.536[21, 22, 22, 20, 19, 19, 19, 17]
50.559[18, 22, 20, 19, 19, 19, 19, 16]
50.582[18, 20, 19, 18, 20, 23, 20, 16]
50.596[18, 20, 20, 16, 21, 20, 18, 16]
50.619[21, 20, 18, 20, 20, 20, 20, 18]
50.642[23, 20, 16, 19, 21, 22, 19, 18]
50.656[22, 21, 18, 19, 21, 22, 18, 20]
50.679[22, 21, 21, 20, 21, 19, 19, 21]
50.702[22, 21, 20, 22, 20, 25, 19, 22]
50.716[19, 22, 21, 19, 21, 24, 20, 22]
50.739[17, 20, 21, 21, 21, 23, 19, 22]
50.762[18, 19, 21, 21, 21, 24, 19, 22]
50.784[19, 23, 17, 22, 23, 23, 19, 22]
50.799[22, 23, 19, 19, 23, 17, 19, 21]
50.822[21, 22, 21, 22, 23, 19, 17, 20]
50.836[21, 22, 21, 21, 23, 22, 18, 19]
50.86[20, 23, 21, 21, 23, 22, 21, 18]
50.882[20, 20, 21, 21, 20, 23, 19, 18]
50.896[17, 21, 20, 22, 19, 22, 21, 18]
50.92[18, 20, 18, 21, 19, 21, 21, 18]
50.949[20, 20, 18, 20, 19, 20, 21, 17]
50.956[20, 19, 19, 20, 19, 19, 18, 17]
50.979