[21, 20, 18, 19, 20, 30, 21, 18]
1.704[21, 19, 17, 19, 20, 33, 27, 24]
1.728[20, 19, 17, 18, 22, 31, 28, 27]
1.75[21, 26, 24, 20, 26, 30, 28, 28]
1.764[24, 30, 26, 21, 29, 34, 31, 30]
1.787[25, 31, 28, 21, 29, 35, 32, 29]
1.81[28, 33, 30, 23, 31, 34, 28, 28]
1.828[29, 34, 31, 23, 29, 32, 27, 26]
1.859[27, 29, 28, 22, 28, 31, 26, 27]
1.87[22, 25, 27, 22, 24, 28, 23, 26]
1.884[21, 24, 25, 21, 24, 34, 23, 29]
1.907[17, 20, 22, 20, 22, 34, 25, 26]
1.93[17, 19, 22, 20, 22, 35, 22, 28]
1.944[17, 18, 19, 21, 18, 36, 23, 25]
1.967[19, 19, 18, 21, 19, 34, 24, 24]
1.99[20, 19, 17, 21, 21, 27, 24, 23]
2.004[21, 18, 21, 22, 21, 26, 26, 26]
2.027[21, 19, 23, 22, 21, 28, 26, 25]
2.05[21, 22, 22, 23, 22, 29, 23, 24]
2.064[20, 25, 23, 24, 24, 34, 24, 23]
2.087[19, 24, 24, 23, 22, 34, 24, 23]
2.11[18, 24, 23, 24, 22, 34, 22, 20]
2.124[18, 25, 20, 23, 21, 32, 23, 22]
2.147[18, 22, 20, 22, 22, 30, 23, 24]
2.17[19, 18, 22, 21, 22, 27, 24, 27]
2.184[19, 17, 21, 22, 21, 26, 22, 26]
2.206[19, 17, 20, 20, 23, 31, 18, 25]
2.23[18, 15, 21, 22, 24, 32, 19, 26]
2.244[20, 15, 21, 22, 23, 32, 20, 26]
2.267[18, 17, 20, 21, 23, 31, 19, 24]
2.29[17, 17, 18, 21, 24, 30, 20, 26]
2.304[17, 19, 18, 22, 24, 27, 22, 28]
2.327[19, 19, 18, 22, 25, 26, 23, 26]
2.357[15, 21, 18, 22, 24, 30, 25, 24]
2.365[17, 20, 18, 23, 22, 31, 24, 24]
2.386[18, 20, 19, 22, 21, 30, 25, 22]
2.41[19, 21, 21, 22, 20, 31, 23, 21]
2.424[18, 21, 20, 21, 18, 31, 24, 24]
2.447[20, 22, 20, 21, 18, 28, 23, 25]
2.47[19, 22, 19, 21, 20, 29, 22, 26]
2.484[20, 24, 19, 21, 20, 31, 21, 26]
2.507[20, 23, 18, 21, 22, 30, 22, 26]
2.53[22, 21, 17, 21, 23, 31, 23, 29]
2.552[21, 19, 17, 21, 24, 31, 24, 30]
2.566[21, 19, 17, 20, 23, 30, 24, 28]
2.59[20, 18, 18, 20, 22, 32, 27, 29]
2.612[20, 21, 18, 20, 21, 33, 24, 26]
2.635[20, 22, 20, 19, 23, 32, 23, 19]
2.649[20, 23, 22, 19, 22, 31, 21, 20]
2.672[21, 24, 24, 20, 25, 31, 21, 19]
2.695[21, 24, 25, 20, 27, 29, 18, 19]
2.709[21, 21, 24, 20, 27, 25, 19, 19]
2.733[19, 20, 23, 21, 25, 26, 19, 22]
2.756[20, 20, 22, 21, 25, 24, 19, 23]
2.769[20, 17, 21, 23, 22, 23, 19, 24]
2.792[20, 17, 20, 22, 24, 26, 18, 25]
2.815[21, 19, 21, 21, 21, 27, 19, 23]
2.829[22, 22, 21, 20, 23, 28, 19, 23]
2.852[21, 24, 22, 22, 23, 29, 19, 21]
2.875[20, 25, 21, 21, 25, 30, 20, 19]
2.889[20, 26, 21, 21, 22, 29, 24, 19]
2.912[20, 25, 20, 20, 24, 29, 24, 19]
2.935[19, 22, 23, 23, 25, 27, 23, 16]
2.949[19, 20, 23, 22, 24, 27, 25, 18]
2.972[19, 22, 24, 21, 24, 26, 25, 19]
2.995[18, 23, 25, 21, 25, 23, 22, 20]
3.009[17, 23, 26, 22, 24, 26, 21, 20]
3.034[20, 25, 23, 20, 23, 26, 20, 23]
3.055[19, 26, 24, 21, 23, 25, 20, 21]
3.077[18, 26, 23, 21, 22, 25, 19, 20]
3.092[19, 24, 22, 22, 23, 29, 22, 21]
3.114[21, 25, 21, 21, 22, 28, 23, 21]
3.137[19, 25, 22, 21, 23, 29, 26, 18]
3.152[19, 23, 23, 20, 23, 29, 23, 19]
3.175[21, 23, 22, 20, 22, 32, 24, 22]
3.197[20, 23, 23, 21, 21, 28, 24, 26]
3.212[19, 21, 23, 22, 22, 29, 24, 26]
3.235[19, 19, 22, 22, 20, 27, 22, 27]
3.257[21, 19, 21, 22, 20, 28, 23, 26]
3.272[21, 16, 23, 21, 20, 24, 22, 25]
3.295[24, 17, 22, 20, 23, 26, 19, 20]
3.317[23, 17, 23, 19, 22, 24, 20, 20]
3.332[23, 22, 23, 23, 23, 27, 21, 22]
3.355[21, 24, 22, 23, 25, 27, 22, 21]
3.377[19, 24, 21, 23, 25, 28, 22, 21]
3.392[16, 24, 21, 23, 24, 28, 22, 20]
3.422[18, 25, 20, 23, 25, 34, 24, 21]
3.437[19, 21, 19, 20, 25, 33, 22, 20]
3.453[18, 18, 20, 20, 22, 33, 20, 22]
3.475[20, 19, 20, 22, 24, 33, 24, 23]
3.497[20, 19, 19, 23, 23, 32, 24, 25]
3.52[19, 18, 19, 24, 25, 29, 23, 25]
3.534[16, 18, 19, 25, 23, 29, 22, 24]
3.557[17, 20, 22, 25, 24, 31, 23, 22]
3.573[15, 20, 22, 23, 23, 31, 22, 20]
3.594[17, 19, 22, 23, 24, 34, 23, 22]
3.617[17, 20, 25, 22, 24, 32, 26, 24]
3.633[17, 22, 24, 21, 24, 33, 28, 24]
3.654[17, 21, 22, 22, 25, 37, 27, 26]
3.677[16, 24, 22, 23, 24, 36, 26, 27]
3.693[17, 24, 23, 22, 24, 36, 24, 24]
3.715[18, 23, 21, 21, 21, 33, 20, 21]
3.737[19, 23, 21, 22, 24, 35, 24, 26]
3.753[19, 22, 20, 20, 23, 29, 23, 26]
3.776[21, 19, 22, 19, 22, 30, 22, 26]
3.797[19, 18, 20, 19, 23, 27, 24, 25]
3.813[19, 18, 21, 20, 25, 34, 26, 24]
3.834[20, 18, 21, 19, 24, 37, 21, 19]
3.857[22, 19, 22, 20, 24, 40, 21, 21]
3.873[21, 22, 19, 21, 24, 39, 22, 19]
3.894[21, 23, 20, 22, 23, 40, 20, 20]
3.916[23, 23, 19, 22, 24, 36, 18, 21]
3.933[21, 24, 18, 23, 24, 30, 18, 22]
3.954[20, 24, 18, 22, 23, 25, 19, 18]
3.977[19, 23, 19, 22, 23, 26, 18, 18]
3.999[19, 21, 18, 21, 23, 25, 19, 19]
4.014[16, 22, 18, 22, 22, 24, 20, 22]
4.037[17, 20, 21, 21, 23, 24, 20, 21]
4.059[15, 22, 20, 21, 23, 23, 21, 22]
4.074[16, 21, 20, 20, 25, 24, 23, 24]
4.098[16, 23, 21, 21, 25, 25, 22, 24]
4.119[17, 23, 21, 20, 23, 26, 21, 20]
4.134[18, 23, 19, 21, 21, 25, 22, 20]
4.157[20, 20, 18, 21, 22, 28, 21, 21]
4.179[20, 20, 19, 21, 21, 27, 19, 25]
4.194[22, 21, 20, 21, 20, 26, 20, 26]
4.217[21, 20, 20, 21, 19, 24, 20, 26]
4.239[21, 20, 21, 20, 19, 25, 19, 27]
4.254[20, 21, 22, 21, 19, 31, 18, 25]
4.277[22, 19, 23, 21, 21, 31, 18, 21]
4.3[21, 19, 22, 21, 23, 32, 21, 21]
4.314[21, 19, 23, 20, 23, 32, 20, 21]
4.337[20, 20, 25, 21, 22, 32, 19, 21]
4.359[20, 21, 25, 20, 22, 24, 20, 20]
4.374[19, 23, 23, 20, 22, 25, 20, 20]
4.396[19, 22, 24, 20, 22, 25, 16, 18]
4.419[18, 24, 23, 20, 25, 25, 17, 19]
4.434[18, 25, 22, 19, 26, 23, 18, 18]
4.456[18, 23, 22, 19, 26, 25, 19, 21]
4.479[19, 23, 23, 22, 25, 25, 21, 21]
4.494[20, 22, 24, 20, 24, 23, 23, 23]
4.517[20, 19, 25, 21, 22, 22, 24, 22]
4.539[22, 18, 24, 23, 22, 23, 24, 23]
4.554[23, 18, 23, 23, 21, 23, 24, 23]
4.577[21, 18, 24, 22, 22, 23, 21, 23]
4.599[20, 20, 22, 21, 23, 23, 20, 21]
4.614[21, 21, 21, 21, 24, 25, 19, 22]
4.637[20, 22, 22, 20, 22, 29, 19, 20]
4.659[19, 23, 22, 21, 24, 29, 22, 21]
4.674[20, 22, 20, 21, 22, 28, 24, 23]
4.697[22, 21, 20, 22, 22, 28, 23, 24]
4.719[22, 21, 21, 20, 21, 26, 23, 23]
4.734[22, 21, 19, 23, 21, 25, 22, 23]
4.758[22, 20, 19, 21, 22, 24, 18, 20]
4.779[21, 21, 18, 21, 22, 26, 18, 18]
4.795[19, 23, 19, 22, 22, 25, 18, 17]
4.817[18, 23, 19, 22, 22, 26, 18, 18]
4.839[17, 23, 21, 24, 25, 33, 19, 20]
4.854[17, 24, 20, 25, 25, 32, 21, 21]
4.877[18, 23, 22, 25, 25, 32, 22, 20]
4.899[19, 22, 21, 25, 28, 33, 23, 21]
4.914[20, 21, 22, 25, 27, 33, 21, 20]
4.937[20, 20, 20, 23, 25, 26, 22, 19]
4.959[20, 19, 21, 23, 25, 27, 22, 18]
4.981[19, 19, 21, 22, 24, 26, 23, 17]
4.997[19, 20, 21, 20, 21, 26, 24, 16]
5.028[21, 20, 20, 23, 27, 28, 25, 17]
5.042[21, 20, 21, 20, 26, 31, 25, 18]
5.057[21, 23, 22, 19, 24, 29, 23, 18]
5.08[22, 22, 21, 19, 25, 27, 22, 19]
5.101[20, 22, 22, 20, 27, 27, 22, 21]
5.117[17, 23, 21, 17, 23, 23, 23, 21]
5.14[17, 24, 23, 17, 24, 19, 22, 21]
5.161[19, 20, 22, 18, 25, 19, 22, 21]
5.177[17, 20, 23, 19, 26, 20, 23, 22]
5.199[20, 22, 22, 21, 22, 19, 23, 23]
5.222[20, 22, 22, 21, 23, 22, 24, 22]
5.236[19, 24, 20, 21, 20, 24, 23, 21]
5.259[17, 28, 22, 21, 21, 22, 25, 26]
5.29[18, 29, 20, 21, 19, 23, 25, 24]
5.296[16, 28, 19, 17, 20, 26, 23, 25]
5.327[16, 28, 18, 17, 19, 24, 23, 27]
5.342[17, 25, 19, 17, 21, 24, 25, 27]
5.357[19, 22, 17, 17, 21, 25, 22, 22]
5.381[19, 21, 17, 16, 23, 26, 21, 22]
5.402[19, 21, 17, 19, 22, 24, 22, 21]
5.416[20, 20, 18, 21, 22, 24, 20, 19]
5.439[20, 20, 20, 21, 23, 23, 18, 22]
5.461[20, 21, 20, 20, 22, 27, 22, 21]
5.476[19, 20, 21, 22, 23, 29, 24, 24]
5.499[19, 19, 21, 20, 25, 30, 25, 23]
5.522[19, 21, 20, 21, 24, 34, 25, 25]
5.536[19, 23, 20, 23, 23, 36, 25, 23]
5.559[18, 21, 20, 24, 23, 33, 23, 22]
5.581[19, 23, 22, 23, 21, 31, 21, 20]
5.598[21, 24, 21, 24, 17, 30, 22, 20]
5.619[31, 23, 25, 22, 19, 25, 22, 19]
5.641[31, 22, 24, 21, 21, 22, 21, 20]
5.657[31, 23, 24, 20, 21, 24, 21, 19]
5.679[31, 23, 24, 21, 22, 25, 22, 19]
5.701[31, 23, 24, 21, 23, 28, 21, 19]
5.717[20, 22, 22, 20, 24, 27, 23, 19]
5.739[21, 21, 24, 20, 23, 25, 24, 19]
5.762[21, 20, 24, 20, 22, 23, 24, 21]
5.777[21, 16, 24, 19, 22, 22, 24, 20]
5.807[21, 17, 23, 20, 22, 22, 25, 21]
5.821[21, 22, 25, 20, 20, 23, 26, 20]
5.837[20, 28, 22, 20, 19, 23, 25, 20]
5.859[19, 31, 21, 22, 20, 27, 24, 21]
5.882[18, 35, 23, 23, 23, 27, 25, 23]
5.905[16, 35, 25, 24, 21, 25, 21, 23]
5.919[17, 32, 22, 23, 23, 25, 17, 26]
5.942[17, 27, 23, 23, 24, 23, 20, 24]
5.965[17, 24, 23, 22, 22, 22, 21, 24]
5.979[18, 21, 22, 22, 21, 21, 20, 22]
6.001[17, 18, 21, 19, 22, 23, 23, 25]
6.025[15, 17, 22, 20, 20, 22, 25, 22]
6.039[17, 16, 24, 19, 18, 25, 23, 23]
6.061[17, 20, 22, 18, 18, 26, 22, 22]
6.085[16, 22, 22, 18, 18, 28, 23, 22]
6.099[17, 23, 23, 18, 17, 26, 22, 18]
6.122[19, 24, 22, 19, 16, 26, 21, 20]
6.145[17, 27, 20, 19, 17, 25, 23, 21]
6.159[18, 27, 22, 20, 19, 26, 24, 23]
6.181[18, 25, 22, 20, 19, 26, 23, 22]
6.205[19, 26, 22, 19, 19, 28, 23, 25]
6.219[17, 27, 24, 18, 19, 27, 23, 24]
6.242[19, 26, 23, 19, 19, 26, 23, 28]
6.265[19, 24, 23, 21, 17, 26, 23, 26]
6.287[19, 23, 21, 20, 19, 26, 25, 28]
6.301[18, 22, 21, 20, 21, 23, 24, 27]
6.324[18, 18, 18, 20, 22, 24, 23, 27]
6.339[17, 19, 18, 19, 22, 24, 25, 21]
6.361[19, 20, 20, 18, 23, 23, 27, 26]
6.385[20, 22, 24, 20, 22, 21, 25, 27]
6.399[21, 23, 24, 21, 21, 22, 26, 27]
6.421[20, 23, 24, 22, 22, 22, 27, 26]
6.445[22, 23, 25, 23, 21, 27, 26, 28]
6.459[20, 26, 29, 22, 22, 28, 22, 22]
6.482[19, 25, 28, 24, 24, 29, 22, 20]
6.505[18, 24, 29, 25, 25, 31, 18, 22]
6.519[19, 27, 31, 24, 25, 32, 18, 22]
6.542[20, 28, 31, 22, 24, 30, 17, 21]
6.565[21, 27, 26, 23, 24, 29, 17, 23]
6.579[21, 25, 26, 19, 22, 27, 17, 22]
6.602[22, 26, 25, 16, 21, 24, 17, 20]
6.625[21, 24, 23, 17, 22, 27, 23, 21]
6.639[19, 22, 22, 18, 23, 25, 23, 23]
6.662[19, 21, 24, 19, 24, 30, 23, 23]
6.685[19, 25, 22, 19, 22, 30, 23, 22]
6.699[19, 25, 22, 20, 23, 31, 24, 25]
6.73[19, 23, 22, 20, 21, 27, 19, 25]
6.745[20, 21, 23, 19, 19, 27, 20, 22]
6.759[20, 21, 20, 19, 19, 24, 20, 20]
6.781[21, 25, 21, 20, 19, 25, 20, 20]
6.805[22, 25, 21, 20, 19, 27, 25, 24]
6.819[21, 35, 23, 21, 20, 28, 23, 24]
6.841[21, 35, 22, 22, 20, 27, 24, 25]
6.865[20, 36, 21, 22, 20, 25, 25, 26]
6.887[20, 33, 21, 21, 22, 25, 25, 26]
6.901[19, 33, 22, 20, 22, 22, 21, 24]
6.925[21, 24, 20, 23, 21, 21, 21, 24]
6.947[19, 25, 21, 22, 22, 23, 18, 25]
6.962[21, 23, 24, 22, 22, 26, 20, 23]
6.985[19, 20, 24, 24, 22, 25, 21, 25]
7.007[20, 20, 23, 23, 21, 26, 21, 21]
7.022[19, 20, 25, 20, 21, 27, 21, 18]
7.045[19, 19, 24, 21, 20, 27, 22, 21]
7.067[17, 20, 22, 21, 19, 26, 22, 21]
7.082[18, 21, 22, 19, 18, 27, 20, 21]
7.105[18, 31, 21, 20, 18, 27, 21, 24]
7.127[17, 31, 19, 21, 20, 25, 23, 25]
7.141[18, 31, 20, 22, 20, 25, 24, 23]
7.165[19, 30, 20, 22, 20, 22, 24, 24]
7.187[18, 31, 21, 22, 22, 23, 24, 23]
7.201[16, 20, 22, 22, 22, 24, 24, 24]
7.225[17, 20, 21, 19, 20, 24, 22, 24]
7.247[18, 21, 21, 17, 19, 22, 21, 27]
7.262[19, 22, 22, 18, 22, 25, 20, 27]
7.285[18, 23, 21, 19, 21, 23, 21, 27]
7.307[18, 25, 21, 21, 21, 24, 21, 24]
7.323[19, 24, 24, 21, 23, 25, 21, 29]
7.345[18, 24, 23, 22, 25, 25, 22, 25]
7.367[17, 22, 21, 21, 23, 24, 22, 27]
7.381[17, 24, 21, 24, 23, 26, 20, 25]
7.405[20, 21, 21, 24, 23, 25, 22, 27]
7.428[20, 25, 19, 25, 23, 27, 22, 22]
7.442[20, 25, 20, 24, 22, 27, 21, 21]
7.465[19, 27, 21, 24, 21, 25, 23, 21]
7.487[20, 24, 22, 23, 21, 25, 24, 23]
7.501[18, 24, 22, 22, 21, 25, 21, 22]
7.525[17, 21, 21, 22, 23, 22, 22, 22]
7.547[18, 23, 21, 21, 24, 25, 24, 24]
7.561[21, 22, 23, 21, 23, 27, 22, 23]
7.585[19, 22, 22, 21, 23, 27, 26, 22]
7.608[20, 23, 22, 21, 26, 28, 27, 20]
7.622[20, 23, 25, 22, 23, 27, 28, 23]
7.645[20, 22, 24, 24, 23, 24, 25, 22]
7.667[18, 21, 23, 24, 23, 23, 27, 20]
7.681[18, 19, 21, 24, 26, 22, 23, 21]
7.705[20, 22, 21, 24, 25, 24, 23, 18]
7.727[21, 20, 19, 22, 25, 26, 21, 20]
7.742[20, 19, 22, 21, 26, 27, 21, 21]
7.765[19, 24, 22, 21, 26, 28, 23, 26]
7.787[20, 25, 23, 20, 22, 28, 23, 26]
7.81[18, 22, 24, 19, 21, 28, 22, 25]
7.826[17, 25, 25, 18, 20, 27, 24, 25]
7.847[18, 23, 24, 17, 20, 25, 26, 25]
7.87[18, 20, 24, 18, 18, 24, 25, 21]
7.884[18, 20, 24, 18, 20, 25, 24, 21]
7.907[20, 21, 24, 17, 20, 27, 27, 23]
7.93[21, 21, 23, 19, 21, 26, 24, 19]
7.945[20, 22, 21, 20, 21, 27, 24, 22]
7.967[20, 22, 23, 19, 23, 27, 25, 23]
7.99[19, 23, 22, 19, 23, 26, 24, 23]
8.005[18, 24, 21, 18, 23, 25, 22, 25]
8.027[17, 24, 21, 20, 23, 28, 23, 24]
8.05[17, 24, 22, 19, 25, 27, 21, 20]
8.065[17, 22, 21, 17, 23, 28, 19, 23]
8.087[18, 23, 20, 17, 22, 30, 21, 22]
8.11[18, 21, 21, 20, 22, 29, 20, 23]
8.125[19, 20, 19, 18, 23, 27, 21, 23]
8.147[21, 21, 21, 22, 22, 29, 23, 24]
8.17[22, 22, 19, 22, 23, 35, 22, 20]
8.185[20, 24, 22, 24, 22, 35, 23, 23]
8.207[22, 24, 21, 22, 21, 34, 22, 21]
8.237[22, 24, 24, 23, 20, 36, 21, 24]
8.245[19, 22, 22, 21, 19, 37, 19, 24]
8.268[20, 22, 25, 21, 21, 31, 20, 24]
8.29[20, 22, 22, 20, 22, 34, 20, 26]
8.304[21, 22, 23, 20, 23, 35, 21, 26]
8.327[20, 21, 21, 17, 23, 33, 20, 23]
8.35[22, 23, 23, 17, 25, 31, 22, 24]
8.364[20, 24, 22, 18, 25, 35, 22, 24]
8.387[19, 21, 22, 20, 26, 30, 20, 20]
8.41[18, 21, 22, 20, 26, 33, 21, 19]
8.424[21, 23, 21, 22, 26, 34, 23, 19]
8.448[20, 22, 24, 26, 26, 38, 24, 22]
8.469[22, 22, 24, 27, 26, 39, 24, 23]
8.492[22, 23, 24, 26, 26, 40, 25, 23]
8.508[23, 22, 24, 27, 26, 38, 26, 25]
8.529[19, 22, 24, 27, 27, 36, 26, 25]
8.552[20, 22, 20, 24, 26, 34, 24, 24]
8.569[19, 24, 20, 22, 25, 30, 23, 24]
8.589[18, 22, 22, 22, 24, 33, 26, 25]
8.611[18, 22, 23, 22, 22, 30, 24, 24]
8.628[20, 21, 22, 23, 23, 30, 25, 23]
8.649[19, 21, 24, 22, 23, 26, 26, 22]
8.672[18, 21, 22, 21, 23, 27, 26, 22]
8.688[20, 21, 22, 23, 23, 27, 24, 21]
8.709[19, 22, 22, 22, 24, 30, 24, 19]
8.732[20, 23, 21, 22, 25, 30, 24, 22]
8.748[20, 23, 19, 23, 23, 30, 22, 22]
8.769[21, 23, 20, 24, 24, 30, 23, 24]
8.799[20, 21, 18, 22, 24, 28, 20, 23]
8.808[20, 22, 18, 23, 24, 30, 20, 25]
8.829[18, 23, 18, 24, 24, 31, 20, 22]
8.851[20, 24, 18, 24, 25, 30, 21, 21]
8.868[20, 24, 18, 25, 24, 30, 22, 18]
8.889[21, 27, 20, 26, 24, 34, 20, 19]
8.911[21, 26, 20, 25, 25, 34, 22, 17]
8.928[22, 27, 21, 25, 24, 34, 20, 24]
8.949[21, 27, 21, 24, 24, 35, 21, 25]
8.972[22, 42, 27, 29, 28, 34, 20, 26]
8.988[41, 161, 109, 44, 73, 31, 29, 29]
9.009[63, 263, 167, 89, 79, 32, 34, 36]
9.032[66, 280, 176, 124, 102, 38, 35, 33]
9.048[67, 284, 178, 152, 138, 44, 34, 34]
9.069[67, 288, 180, 245, 176, 47, 37, 35]
9.092[60, 252, 155, 259, 186, 54, 32, 32]
9.108[37, 154, 91, 251, 188, 53, 32, 25]
9.129[35, 128, 82, 255, 227, 57, 39, 31]
9.151[37, 123, 86, 255, 230, 66, 43, 32]
9.168[36, 112, 86, 205, 234, 66, 45, 32]
9.189[41, 108, 110, 221, 249, 73, 47, 36]
9.211[42, 102, 146, 244, 257, 86, 47, 39]
9.228[44, 99, 205, 276, 300, 141, 46, 38]
9.249[51, 110, 229, 382, 360, 167, 51, 42]
9.271[65, 125, 241, 412, 362, 170, 50, 45]
9.288[103, 114, 233, 440, 380, 192, 61, 44]
9.309[135, 132, 257, 517, 455, 203, 68, 49]
9.332[164, 139, 223, 514, 452, 183, 74, 54]
9.348[164, 149, 232, 569, 512, 193, 80, 53]
9.37[163, 140, 231, 643, 566, 234, 83, 56]
9.391[143, 154, 241, 653, 578, 245, 85, 60]
9.408[122, 151, 244, 636, 537, 252, 82, 66]
9.429[89, 192, 270, 666, 558, 264, 88, 76]
9.452[177, 256, 301, 609, 529, 264, 90, 82]
9.468[312, 267, 320, 610, 563, 320, 124, 113]
9.489[366, 261, 321, 582, 544, 317, 129, 150]
9.511[389, 260, 289, 536, 535, 317, 131, 152]
9.528[398, 234, 270, 531, 504, 305, 123, 148]
9.549[377, 154, 224, 541, 444, 288, 116, 147]
9.572[288, 140, 200, 443, 351, 197, 79, 124]
9.586[228, 148, 191, 433, 346, 168, 63, 86]
9.609[183, 134, 187, 440, 335, 145, 56, 75]
9.631[160, 129, 184, 482, 339, 160, 63, 75]
9.646[136, 126, 188, 421, 321, 161, 67, 70]
9.669[167, 117, 182, 412, 295, 166, 63, 79]
9.692[161, 107, 195, 439, 299, 164, 57, 66]
9.714[166, 123, 214, 485, 364, 161, 57, 65]
9.73[164, 119, 211, 430, 344, 151, 49, 60]
9.751[182, 106, 186, 427, 350, 144, 43, 60]
9.774[146, 113, 193, 440, 356, 139, 44, 48]
9.789[136, 104, 169, 431, 353, 155, 46, 50]
9.811[129, 88, 149, 373, 302, 154, 52, 53]
9.835[129, 86, 136, 352, 312, 148, 53, 53]
9.849[99, 84, 134, 336, 295, 145, 53, 46]
9.872[59, 72, 103, 300, 255, 119, 48, 42]
9.894[50, 77, 99, 265, 229, 93, 44, 36]
9.909[40, 73, 93, 254, 205, 88, 33, 28]
9.932[36, 89, 123, 261, 214, 83, 32, 25]
9.954[46, 95, 123, 258, 220, 83, 31, 31]
9.969[48, 93, 127, 241, 227, 83, 31, 33]
9.991[48, 87, 127, 242, 226, 98, 33, 34]
10.014[50, 90, 125, 267, 251, 116, 40, 37]
10.029[49, 80, 120, 297, 290, 118, 41, 40]
10.051[42, 80, 139, 345, 353, 124, 43, 40]
10.074[42, 83, 145, 398, 396, 151, 46, 39]
10.089[44, 84, 144, 410, 404, 146, 45, 38]
10.112[39, 80, 142, 433, 395, 132, 40, 36]
10.134[44, 80, 131, 392, 344, 124, 35, 33]
10.149[42, 78, 113, 366, 282, 120, 32, 32]
10.172[39, 75, 105, 315, 235, 104, 27, 30]
10.194[39, 72, 107, 303, 213, 100, 29, 31]
10.217[38, 74, 121, 257, 219, 105, 29, 28]
10.231[31, 71, 102, 235, 207, 104, 28, 25]
10.254[29, 72, 100, 219, 210, 103, 31, 22]
10.269[29, 82, 96, 219, 193, 96, 29, 22]
10.292[33, 88, 98, 253, 201, 101, 29, 22]
10.314[36, 83, 82, 271, 197, 126, 33, 27]
10.337[36, 73, 92, 291, 212, 125, 36, 28]
10.352[36, 66, 88, 283, 204, 127, 34, 28]
10.374[37, 54, 97, 294, 250, 130, 35, 31]
10.389[33, 71, 102, 298, 290, 136, 36, 30]
10.411[31, 76, 99, 297, 283, 107, 30, 29]
10.434[30, 79, 97, 286, 273, 111, 29, 29]
10.449[43, 106, 118, 314, 294, 119, 33, 33]
10.487[50, 124, 123, 303, 267, 121, 35, 32]
10.494[50, 113, 116, 288, 230, 122, 37, 33]
10.509[65, 112, 136, 317, 247, 145, 40, 75]
10.531[101, 117, 138, 323, 258, 147, 42, 130]
10.554[100, 100, 123, 315, 276, 150, 43, 133]
10.569[98, 84, 118, 341, 293, 153, 44, 135]
10.592[99, 86, 128, 365, 293, 155, 46, 137]
10.614[96, 84, 107, 325, 284, 138, 45, 132]
10.637[72, 88, 123, 360, 293, 142, 46, 87]
10.652[71, 80, 121, 344, 251, 134, 43, 84]
10.674[72, 74, 115, 320, 212, 119, 39, 81]
10.697[79, 74, 129, 339, 229, 121, 37, 78]
10.712[73, 77, 139, 341, 233, 118, 37, 55]
10.734[63, 65, 126, 286, 214, 127, 37, 46]
10.765[57, 71, 129, 294, 220, 126, 36, 52]
10.771[57, 81, 142, 318, 261, 135, 39, 54]
10.794[150, 88, 130, 300, 251, 133, 39, 54]
10.817[264, 105, 120, 313, 249, 131, 40, 59]
10.84[273, 105, 119, 348, 255, 124, 39, 56]
10.854[277, 104, 125, 355, 269, 128, 41, 51]
10.876[284, 97, 116, 336, 243, 124, 39, 51]
10.893[251, 98, 126, 306, 230, 115, 36, 49]
10.914[134, 84, 133, 308, 241, 122, 36, 47]
10.937[116, 87, 132, 281, 225, 127, 38, 51]
10.959[112, 91, 144, 296, 253, 139, 40, 73]
10.974[137, 98, 148, 302, 271, 134, 41, 85]
10.997[182, 101, 131, 292, 280, 138, 49, 110]
11.012[197, 99, 137, 265, 269, 136, 54, 207]
11.034[200, 100, 170, 302, 287, 132, 52, 216]
11.057[206, 117, 231, 278, 277, 157, 57, 210]
11.071[194, 128, 265, 262, 251, 157, 59, 237]
11.094[191, 130, 267, 255, 239, 152, 56, 242]
11.117[198, 135, 267, 267, 232, 163, 54, 178]
11.131[215, 141, 294, 314, 206, 154, 59, 179]
11.154[210, 130, 248, 320, 211, 123, 52, 190]
11.177[213, 119, 213, 349, 254, 137, 49, 166]
11.191[182, 112, 219, 402, 277, 145, 48, 148]
11.214[190, 114, 224, 393, 283, 141, 47, 139]
11.236[178, 107, 165, 326, 279, 140, 40, 126]
11.251[182, 105, 151, 308, 241, 127, 39, 109]
11.274[165, 100, 145, 293, 204, 106, 37, 83]
11.297[161, 102, 130, 259, 171, 89, 32, 77]
11.311[158, 93, 111, 269, 168, 87, 34, 88]
11.334[157, 104, 117, 270, 167, 80, 37, 91]
11.357[150, 101, 129, 280, 181, 80, 38, 89]
11.371[151, 103, 129, 281, 158, 86, 38, 90]
11.394[161, 98, 127, 252, 170, 93, 40, 149]
11.417[127, 101, 130, 253, 163, 77, 37, 141]
11.431[110, 83, 112, 288, 177, 77, 32, 144]
11.454[115, 80, 95, 283, 183, 78, 34, 152]
11.477[120, 72, 101, 280, 187, 77, 36, 157]
11.492[94, 101, 130, 317, 224, 108, 37, 101]
11.514[88, 117, 153, 312, 231, 117, 39, 97]
11.538[92, 123, 171, 294, 229, 120, 40, 92]
11.559[115, 126, 191, 338, 264, 135, 44, 100]
11.574[124, 131, 185, 336, 269, 143, 47, 106]
11.604[134, 177, 206, 311, 249, 141, 49, 117]
11.62[136, 174, 190, 343, 257, 138, 53, 146]
11.634[146, 176, 177, 320, 251, 140, 54, 149]
11.657[123, 175, 157, 280, 220, 131, 50, 144]
11.68[112, 182, 171, 263, 234, 128, 49, 139]
11.694[113, 129, 143, 282, 279, 120, 49, 135]
11.717[108, 119, 138, 264, 269, 119, 43, 115]
11.747[90, 119, 142, 308, 282, 125, 47, 109]
11.754[92, 116, 147, 312, 275, 121, 46, 98]
11.777[100, 104, 129, 312, 274, 115, 42, 100]
11.8[86, 109, 127, 283, 236, 103, 37, 115]
11.814[82, 106, 125, 261, 232, 105, 37, 104]
11.837[81, 98, 133, 239, 221, 96, 30, 104]
11.86[74, 104, 147, 239, 217, 97, 31, 104]
11.874[66, 97, 150, 245, 208, 104, 33, 96]
11.897[77, 74, 134, 239, 186, 101, 33, 77]
11.92[100, 85, 138, 253, 196, 96, 36, 99]
11.934[112, 96, 130, 243, 215, 100, 41, 113]
11.957[111, 91, 108, 227, 202, 94, 38, 113]
11.979[111, 102, 123, 279, 238, 104, 38, 125]
11.994[103, 108, 142, 335, 269, 121, 38, 121]
12.017[79, 98, 156, 337, 269, 126, 35, 99]
12.039[63, 94, 157, 339, 262, 137, 35, 81]
12.054[71, 104, 163, 369, 271, 140, 42, 82]
12.077[57, 97, 149, 325, 225, 135, 63, 57]
12.1[61, 95, 124, 261, 192, 117, 69, 70]
12.114[65, 108, 122, 270, 213, 128, 69, 73]
12.137[67, 104, 112, 247, 231, 114, 67, 71]
12.159[58, 103, 108, 207, 224, 110, 63, 68]
12.174[58, 106, 113, 217, 252, 127, 44, 72]
12.197[51, 102, 118, 228, 250, 138, 37, 56]
12.227[56, 91, 93, 181, 243, 125, 40, 53]
12.234[56, 86, 105, 196, 253, 134, 40, 52]
12.257[58, 75, 107, 213, 262, 137, 43, 54]
12.28[56, 65, 101, 210, 272, 117, 41, 45]
12.294[56, 71, 94, 209, 280, 106, 38, 43]
12.317[54, 77, 100, 213, 258, 98, 33, 41]
12.34[50, 80, 89, 199, 221, 84, 33, 55]
12.354[48, 81, 89, 182, 217, 81, 29, 51]
12.377[47, 84, 97, 172, 184, 77, 26, 53]
12.399[48, 74, 101, 179, 178, 84, 27, 53]
12.414[49, 67, 102, 183, 202, 88, 27, 56]
12.437[46, 63, 100, 176, 195, 87, 25, 37]
12.459[45, 62, 90, 163, 186, 87, 26, 38]
12.474[43, 57, 82, 152, 178, 83, 28, 35]
12.504[52, 74, 99, 176, 218, 82, 32, 36]
12.519[46, 73, 97, 189, 203, 80, 31, 31]
12.542[49, 77, 102, 199, 217, 89, 33, 39]
12.557[48, 91, 113, 215, 236, 97, 33, 40]
12.58[55, 92, 116, 221, 239, 101, 33, 42]
12.602[49, 79, 97, 179, 183, 90, 30, 40]
12.617[48, 85, 92, 164, 173, 93, 32, 40]
12.64[42, 85, 85, 156, 154, 82, 30, 30]
12.662[42, 73, 76, 131, 116, 71, 29, 29]
12.677[53, 85, 93, 126, 104, 67, 29, 39]
12.7[50, 92, 95, 139, 127, 66, 29, 38]
12.722[50, 88, 100, 156, 156, 75, 29, 37]
12.737[52, 85, 103, 163, 164, 81, 28, 41]
12.76[56, 87, 100, 169, 163, 83, 29, 44]
12.782[40, 81, 93, 164, 162, 80, 28, 35]
12.797[39, 94, 122, 177, 164, 86, 27, 35]
12.819[43, 99, 120, 160, 136, 77, 25, 37]
12.842[43, 103, 122, 154, 130, 79, 25, 32]
12.857[38, 105, 123, 147, 132, 76, 25, 29]
12.879[38, 111, 114, 148, 139, 78, 26, 26]
12.902[38, 99, 77, 114, 121, 68, 26, 25]
12.917[33, 94, 76, 104, 147, 67, 29, 22]
12.939[33, 90, 73, 116, 166, 55, 31, 23]
12.962[32, 96, 80, 154, 178, 69, 32, 26]
12.977[32, 103, 100, 171, 190, 69, 30, 25]
13.0[35, 129, 145, 174, 187, 74, 31, 26]
13.022[38, 135, 158, 195, 174, 75, 28, 26]
13.037[36, 142, 166, 206, 164, 76, 29, 24]
13.06[41, 135, 180, 193, 157, 69, 26, 22]
13.083[40, 133, 180, 203, 161, 82, 46, 27]
13.096[38, 122, 149, 220, 167, 79, 50, 27]
13.119[34, 123, 132, 227, 174, 78, 50, 26]
13.142[34, 118, 126, 227, 171, 79, 50, 25]
13.156[32, 117, 115, 256, 173, 73, 50, 26]
13.18[33, 122, 103, 240, 159, 55, 33, 24]
13.202[44, 119, 109, 230, 158, 57, 31, 25]
13.216[47, 126, 109, 205, 147, 55, 32, 25]
13.24[47, 140, 105, 204, 151, 59, 30, 27]
13.27[46, 147, 84, 180, 175, 71, 30, 25]
13.276[45, 129, 77, 180, 175, 78, 29, 26]
13.3[33, 121, 79, 181, 168, 76, 23, 25]
13.322[30, 105, 87, 197, 167, 81, 23, 25]
13.337[32, 87, 92, 177, 155, 80, 26, 24]
13.36[28, 73, 98, 191, 155, 72, 28, 25]
13.382[33, 86, 102, 205, 178, 77, 31, 26]
13.396[31, 79, 108, 200, 180, 80, 33, 24]
13.419[32, 83, 109, 189, 175, 76, 32, 23]
13.442[29, 79, 102, 189, 180, 78, 30, 25]
13.464[33, 84, 97, 150, 152, 76, 30, 25]
13.48[29, 80, 101, 127, 115, 67, 26, 24]
13.501[32, 87, 94, 143, 156, 78, 24, 25]
13.524[33, 86, 96, 163, 165, 81, 26, 23]
13.54[35, 93, 113, 166, 164, 75, 24, 22]
13.561[35, 98, 121, 165, 165, 70, 23, 22]
13.584[38, 132, 123, 163, 165, 74, 25, 22]
13.6[36, 129, 114, 145, 134, 62, 25, 23]
13.629[35, 130, 108, 113, 130, 59, 24, 24]
13.644[32, 126, 86, 107, 126, 60, 26, 24]
13.66[30, 118, 85, 130, 148, 62, 25, 24]
13.681[26, 75, 74, 136, 146, 53, 23, 24]
13.704[31, 116, 89, 139, 146, 48, 23, 25]
13.72[31, 119, 85, 138, 143, 45, 22, 26]
13.741[32, 121, 93, 151, 150, 44, 21, 26]
13.764[30, 122, 87, 140, 134, 42, 23, 26]
13.78[34, 127, 108, 144, 132, 43, 22, 27]
13.801[28, 91, 98, 139, 119, 40, 23, 23]
13.824[31, 97, 111, 147, 126, 42, 24, 24]
13.84[30, 105, 110, 129, 118, 40, 26, 23]
13.861[31, 110, 104, 119, 101, 45, 25, 23]
13.884[31, 106, 84, 142, 123, 46, 26, 25]
13.9[34, 129, 94, 149, 125, 46, 26, 27]
13.929[33, 122, 82, 151, 118, 45, 25, 27]
13.944[36, 133, 79, 163, 133, 52, 27, 29]
13.966[34, 126, 79, 190, 176, 51, 27, 28]
13.983[33, 123, 78, 173, 165, 58, 27, 27]
14.004[32, 99, 74, 174, 165, 65, 25, 25]
14.02[31, 94, 82, 175, 163, 65, 25, 27]
14.041[30, 66, 85, 190, 162, 64, 20, 24]
14.064[31, 65, 98, 176, 117, 65, 22, 26]
14.08[31, 104, 99, 187, 144, 79, 21, 24]
14.101[31, 108, 91, 187, 154, 77, 25, 26]
14.124[31, 109, 84, 181, 179, 80, 25, 24]
14.14[30, 119, 101, 167, 176, 80, 25, 25]
14.161[33, 134, 100, 168, 185, 77, 24, 24]
14.184[34, 131, 107, 177, 179, 60, 26, 25]
14.2[33, 131, 106, 173, 183, 60, 23, 23]
14.221[32, 134, 116, 199, 169, 62, 24, 22]
14.244[34, 129, 104, 194, 170, 62, 25, 21]
14.26[35, 149, 91, 185, 179, 63, 24, 21]
14.281[32, 131, 81, 171, 174, 59, 24, 20]
14.304[34, 129, 89, 182, 164, 62, 25, 23]
14.328[35, 131, 77, 161, 161, 55, 25, 24]
14.341[32, 124, 67, 210, 157, 58, 26, 26]
14.364[36, 93, 73, 210, 137, 58, 27, 27]
14.38[44, 89, 78, 204, 119, 56, 26, 26]
14.401[59, 103, 74, 198, 136, 48, 28, 26]
14.424[58, 94, 70, 201, 130, 50, 28, 26]
14.448[59, 98, 85, 165, 127, 45, 26, 23]
14.461[54, 87, 89, 182, 143, 52, 29, 22]
14.484[48, 84, 94, 188, 146, 55, 27, 21]
14.506[44, 114, 104, 199, 139, 62, 24, 18]
14.529[42, 121, 120, 211, 144, 66, 24, 18]
14.544[43, 122, 114, 200, 146, 64, 24, 19]
14.568[42, 122, 110, 187, 133, 59, 22, 19]
14.581[45, 126, 107, 188, 151, 67, 24, 19]
14.604[32, 98, 110, 185, 184, 82, 27, 21]
14.626[35, 123, 101, 174, 187, 82, 27, 20]
14.641[36, 121, 101, 189, 183, 83, 28, 22]
14.664[36, 121, 101, 196, 182, 86, 28, 22]
14.686[32, 119, 96, 186, 179, 81, 27, 23]
14.701[28, 110, 76, 170, 134, 59, 24, 22]
14.724[24, 68, 64, 161, 124, 57, 27, 24]
14.746[25, 75, 62, 150, 128, 60, 28, 22]
14.761[24, 84, 63, 134, 146, 58, 26, 23]
14.784[23, 87, 59, 130, 128, 57, 26, 22]
14.806[25, 79, 59, 129, 142, 62, 27, 20]
14.821[27, 80, 60, 124, 148, 59, 24, 19]
14.843[27, 73, 62, 147, 152, 54, 23, 19]
14.866[26, 53, 68, 149, 127, 56, 24, 19]
14.881[33, 100, 78, 153, 135, 56, 25, 20]
14.904[34, 109, 85, 159, 128, 52, 26, 21]
14.926[33, 108, 84, 170, 121, 53, 27, 20]
14.941[32, 108, 82, 144, 114, 57, 26, 21]
14.964[33, 108, 86, 143, 129, 55, 26, 21]
14.986[28, 71, 82, 155, 129, 55, 25, 20]
15.003[25, 66, 73, 147, 129, 53, 22, 20]
15.024[26, 73, 79, 147, 121, 53, 20, 21]
15.046[31, 113, 86, 170, 118, 48, 24, 24]
15.061[31, 121, 87, 173, 110, 43, 23, 25]
15.084[31, 122, 91, 208, 137, 43, 24, 24]
15.106[32, 117, 94, 215, 130, 41, 26, 26]
15.121[33, 121, 89, 208, 129, 36, 26, 26]
15.144[26, 86, 89, 187, 136, 37, 21, 24]
15.166[28, 94, 80, 186, 133, 37, 23, 23]
15.182[28, 92, 87, 176, 130, 50, 24, 23]
15.204[31, 97, 100, 186, 139, 71, 27, 24]
15.226[29, 87, 102, 231, 163, 77, 28, 22]
15.241[29, 88, 98, 241, 156, 76, 29, 22]
15.264[29, 73, 104, 244, 172, 81, 28, 22]
15.286[27, 85, 94, 242, 166, 76, 28, 24]
15.301[29, 123, 86, 276, 166, 64, 23, 20]
15.324[29, 125, 84, 245, 146, 59, 24, 21]
15.346[29, 124, 81, 238, 152, 61, 22, 20]
15.369[30, 123, 78, 232, 134, 55, 24, 22]
15.384[31, 113, 74, 202, 105, 49, 22, 21]
15.406[31, 95, 71, 146, 102, 43, 25, 23]
15.429[32, 113, 74, 129, 114, 43, 25, 23]
15.444[35, 122, 82, 136, 132, 45, 25, 23]
15.466[33, 120, 72, 140, 146, 47, 24, 21]
15.489[32, 118, 82, 153, 147, 47, 24, 21]
15.504[27, 111, 81, 153, 145, 47, 20, 20]
15.526[28, 104, 83, 175, 141, 43, 24, 22]
15.549[25, 93, 76, 173, 124, 39, 24, 20]
15.564[26, 99, 83, 178, 107, 37, 23, 21]
15.587[23, 98, 74, 175, 113, 34, 24, 21]
15.609[30, 85, 74, 166, 108, 30, 25, 22]
15.624[31, 82, 64, 156, 118, 31, 20, 20]
15.646[31, 93, 61, 140, 109, 32, 19, 20]
15.669[32, 88, 53, 129, 111, 32, 21, 19]
15.684[36, 94, 72, 123, 119, 40, 24, 22]
15.707[30, 90, 68, 186, 131, 40, 23, 21]
15.729[29, 106, 70, 181, 111, 40, 24, 23]
15.744[30, 103, 81, 206, 141, 49, 25, 22]
15.766[31, 103, 92, 255, 153, 52, 26, 24]
15.789[30, 97, 91, 291, 157, 63, 26, 21]
15.804[34, 109, 106, 271, 160, 80, 28, 23]
15.826[33, 86, 109, 275, 167, 84, 27, 22]
15.849[34, 86, 118, 280, 150, 82, 30, 22]
15.864[33, 87, 114, 251, 162, 82, 28, 21]
15.886[29, 92, 105, 224, 151, 70, 26, 21]
15.909[27, 80, 92, 210, 140, 50, 23, 22]
15.924[28, 84, 91, 233, 141, 45, 26, 22]
15.946[25, 78, 79, 211, 137, 38, 24, 22]
15.969[28, 100, 86, 215, 116, 42, 23, 23]
15.984[32, 124, 97, 198, 117, 52, 24, 25]
16.006[32, 126, 95, 193, 119, 57, 26, 23]
16.029[33, 124, 100, 157, 123, 56, 22, 24]
16.044[33, 120, 91, 150, 134, 57, 22, 25]
16.066[29, 101, 82, 121, 136, 57, 23, 26]
16.089[29, 75, 63, 150, 153, 51, 22, 24]
16.104[30, 94, 64, 153, 154, 52, 22, 25]
16.126[27, 93, 66, 161, 166, 64, 26, 25]
16.149[27, 105, 69, 179, 179, 65, 26, 23]
16.164[30, 112, 73, 192, 190, 72, 26, 24]
16.186[37, 107, 86, 211, 197, 76, 27, 26]
16.209[70, 89, 96, 257, 226, 93, 29, 83]
16.224[106, 98, 98, 253, 220, 92, 32, 138]
16.246[114, 92, 99, 243, 216, 100, 35, 152]
16.269[142, 91, 124, 243, 207, 103, 40, 188]
16.284[150, 93, 149, 232, 218, 106, 41, 202]
16.306[178, 96, 151, 221, 198, 98, 42, 219]
16.329[206, 101, 152, 267, 213, 112, 40, 205]
16.352[216, 113, 157, 275, 213, 116, 43, 206]
16.366[214, 151, 157, 291, 226, 132, 42, 180]
16.389[226, 158, 146, 298, 228, 144, 47, 184]
16.413[204, 159, 140, 281, 228, 143, 45, 151]
16.426[169, 156, 145, 267, 233, 152, 50, 158]
16.449[156, 150, 140, 270, 233, 156, 47, 149]
16.479[156, 108, 135, 292, 243, 152, 45, 161]
16.486[127, 92, 122, 283, 229, 143, 39, 139]
16.509[116, 88, 129, 272, 226, 146, 43, 133]
16.532[107, 82, 124, 252, 204, 126, 36, 109]
16.546[102, 116, 128, 277, 216, 125, 38, 106]
16.569[64, 111, 114, 229, 185, 114, 39, 73]
16.592[67, 112, 110, 234, 192, 109, 40, 75]
16.606[62, 108, 110, 235, 181, 100, 35, 73]
16.629[52, 107, 102, 233, 189, 101, 36, 84]
16.652[57, 66, 95, 199, 161, 79, 34, 92]
16.666[60, 74, 92, 207, 165, 70, 33, 95]
16.689[58, 100, 92, 213, 175, 95, 35, 96]
16.712[62, 105, 85, 230, 195, 100, 36, 100]
16.726[69, 131, 109, 273, 221, 122, 37, 82]
16.757[62, 136, 116, 271, 225, 126, 34, 63]
16.772[63, 133, 125, 280, 232, 135, 40, 64]
16.786[63, 135, 137, 263, 243, 135, 39, 59]
16.809[62, 159, 157, 257, 243, 139, 38, 53]
16.832[55, 153, 144, 197, 217, 122, 38, 41]
16.846[57, 158, 148, 229, 243, 135, 39, 46]
16.869[53, 166, 169, 288, 281, 162, 33, 39]
16.892[51, 151, 160, 279, 253, 144, 30, 42]
16.906[52, 127, 146, 283, 250, 145, 30, 43]
16.929[49, 122, 148, 295, 253, 143, 28, 46]
16.952[45, 110, 139, 281, 242, 133, 29, 42]
16.966[43, 104, 105, 204, 196, 89, 30, 42]
16.989[46, 111, 156, 297, 260, 121, 34, 40]
17.012[40, 116, 173, 314, 264, 120, 33, 36]
17.026[60, 110, 185, 369, 285, 143, 37, 39]
17.049[68, 119, 202, 389, 304, 158, 36, 38]
17.072[69, 118, 205, 394, 313, 177, 36, 36]
17.086[69, 124, 200, 339, 264, 161, 31, 34]
17.117[72, 149, 184, 330, 275, 164, 35, 37]
17.132[56, 149, 184, 302, 281, 152, 37, 34]
17.146[51, 139, 189, 314, 279, 148, 39, 38]
17.169[50, 137, 195, 342, 271, 131, 39, 38]
17.192[47, 127, 165, 352, 283, 133, 42, 40]
17.206[40, 81, 169, 390, 286, 134, 39, 38]
17.229[47, 101, 161, 376, 255, 126, 34, 36]
17.252[47, 102, 144, 340, 226, 111, 32, 30]
17.274[47, 104, 132, 306, 219, 104, 31, 36]
17.289[49, 106, 132, 313, 238, 116, 31, 35]
17.312[49, 119, 120, 249, 225, 120, 35, 34]
17.334[42, 121, 136, 259, 278, 139, 36, 32]
17.349[43, 126, 132, 267, 286, 142, 39, 34]
17.373[45, 134, 152, 323, 332, 170, 41, 31]
17.394[47, 134, 172, 357, 337, 183, 41, 35]
17.409[47, 132, 177, 358, 331, 175, 37, 35]
17.432[46, 120, 167, 345, 298, 171, 36, 35]
17.454[45, 124, 170, 334, 283, 168, 33, 33]
17.47[43, 135, 186, 400, 257, 149, 33, 31]
17.492[39, 132, 184, 405, 232, 123, 33, 25]
17.515[42, 128, 195, 428, 240, 141, 37, 29]
17.529[40, 126, 199, 420, 229, 128, 37, 29]
17.552[34, 116, 190, 423, 239, 126, 39, 29]
17.574[30, 89, 152, 304, 198, 115, 36, 28]
17.59[30, 89, 128, 235, 177, 110, 36, 30]
17.612[26, 79, 106, 192, 151, 77, 31, 27]
17.634[26, 85, 80, 178, 131, 75, 30, 27]
17.649[30, 91, 90, 195, 133, 79, 30, 27]
17.672[31, 89, 88, 202, 139, 72, 29, 25]
17.694[31, 100, 89, 199, 153, 67, 27, 24]
17.709[33, 110, 86, 181, 151, 66, 24, 26]
17.732[34, 111, 90, 186, 174, 70, 23, 24]
17.754[33, 103, 82, 151, 163, 68, 22, 24]
17.777[31, 127, 109, 174, 160, 74, 22, 26]
17.792[31, 132, 110, 162, 136, 82, 25, 30]
17.814[36, 137, 108, 169, 155, 103, 30, 29]
17.829[33, 125, 101, 162, 143, 100, 30, 29]
17.852[36, 127, 101, 175, 143, 107, 30, 31]
17.874[38, 105, 84, 191, 162, 108, 30, 31]
17.889[36, 91, 79, 186, 168, 102, 30, 26]
17.912[31, 69, 75, 187, 155, 79, 26, 26]
17.934[31, 70, 77, 195, 142, 73, 25, 28]
17.949[31, 78, 86, 186, 147, 76, 28, 28]
17.972[28, 72, 89, 142, 132, 73, 28, 28]
17.994[33, 75, 99, 144, 126, 73, 29, 32]
18.009[33, 83, 100, 130, 113, 70, 29, 31]
18.032[36, 98, 116, 120, 130, 83, 30, 30]
18.054[34, 92, 108, 122, 123, 73, 28, 28]
18.069[38, 103, 121, 205, 165, 105, 30, 29]
18.092[36, 105, 118, 206, 169, 109, 32, 25]
18.114[34, 106, 121, 218, 170, 110, 31, 22]
18.129[33, 102, 114, 234, 168, 111, 31, 27]
18.152[39, 112, 129, 280, 193, 120, 34, 32]
18.174[36, 128, 169, 247, 151, 94, 33, 31]
18.189[35, 121, 169, 253, 153, 86, 29, 30]
18.212[36, 119, 166, 264, 172, 91, 32, 31]
18.235[38, 117, 173, 290, 192, 92, 33, 29]
18.257[30, 116, 161, 248, 170, 82, 30, 23]
18.272[30, 92, 102, 235, 203, 86, 32, 27]
18.294[30, 101, 98, 234, 211, 91, 34, 30]
18.317[29, 113, 98, 215, 197, 90, 31, 30]
18.332[31, 111, 94, 196, 215, 103, 34, 30]
18.354[35, 109, 93, 191, 212, 100, 35, 31]
18.377[35, 110, 91, 208, 201, 102, 33, 29]
18.392[34, 106, 89, 202, 192, 98, 31, 26]
18.414[39, 114, 101, 227, 207, 103, 32, 26]
18.437[31, 114, 82, 196, 158, 74, 27, 23]
18.452[37, 114, 89, 253, 226, 121, 26, 26]
18.474[39, 115, 91, 235, 222, 122, 26, 25]
18.496[43, 125, 101, 242, 222, 124, 27, 27]
18.513[41, 103, 87, 219, 208, 119, 29, 30]
18.534[42, 95, 85, 218, 213, 121, 29, 31]
18.556[37, 95, 81, 160, 157, 82, 31, 31]
18.573[35, 97, 90, 160, 136, 69, 31, 34]
18.594[36, 97, 92, 166, 148, 66, 28, 32]
18.616[40, 117, 108, 172, 160, 65, 28, 31]
18.633[39, 121, 108, 172, 156, 67, 29, 30]
18.661[39, 119, 106, 195, 130, 61, 25, 27]
18.676[42, 123, 99, 191, 131, 62, 23, 23]
18.7[39, 148, 107, 197, 115, 67, 26, 26]
18.713[38, 140, 103, 198, 97, 65, 26, 24]
18.736[45, 144, 116, 194, 97, 60, 27, 37]
18.752[48, 145, 112, 170, 107, 58, 28, 37]
18.774[44, 140, 110, 175, 107, 59, 28, 37]
18.796[47, 125, 92, 166, 107, 57, 28, 37]
18.813[44, 116, 92, 155, 106, 58, 27, 37]
18.834[45, 118, 80, 160, 108, 59, 24, 26]
18.856[50, 121, 90, 179, 114, 67, 26, 38]
18.872[50, 115, 89, 179, 119, 64, 28, 44]
18.894[50, 143, 107, 165, 111, 60, 26, 46]
18.916[52, 152, 109, 162, 118, 61, 28, 48]
18.933[48, 149, 111, 167, 126, 69, 30, 48]
18.954[49, 155, 112, 133, 125, 60, 28, 42]
18.978[58, 190, 140, 204, 203, 128, 36, 44]
18.999[68, 183, 131, 215, 219, 136, 39, 48]
19.014[69, 177, 125, 228, 223, 137, 38, 49]
19.037[68, 184, 124, 221, 217, 134, 38, 49]
19.053[63, 175, 121, 225, 214, 134, 38, 47]
19.074[56, 145, 115, 220, 151, 80, 29, 40]
19.096[42, 109, 109, 210, 130, 67, 23, 32]
19.113[41, 109, 107, 207, 141, 64, 23, 28]
19.134[39, 93, 107, 206, 139, 64, 24, 24]
19.157[36, 110, 133, 231, 150, 71, 24, 25]
19.179[36, 115, 116, 181, 141, 70, 25, 24]
19.193[32, 123, 118, 185, 144, 70, 27, 26]
19.216[32, 121, 119, 195, 124, 68, 27, 27]
19.238[38, 128, 118, 204, 140, 70, 25, 27]
19.253[39, 112, 91, 175, 140, 66, 26, 28]
19.276[39, 96, 83, 170, 140, 58, 25, 28]
19.298[39, 91, 79, 177, 147, 63, 24, 24]
19.314[36, 93, 85, 172, 149, 67, 23, 23]
19.336[28, 85, 95, 167, 133, 64, 23, 23]
19.358[30, 92, 88, 162, 111, 54, 21, 22]
19.375[28, 91, 93, 171, 119, 53, 21, 21]
19.396[37, 79, 94, 171, 102, 42, 20, 21]
19.419[43, 88, 99, 157, 93, 49, 24, 24]
19.441[45, 102, 87, 169, 94, 51, 23, 23]
19.456[42, 102, 85, 180, 112, 54, 23, 22]
19.478[44, 104, 77, 166, 107, 54, 22, 24]
19.494[36, 105, 72, 146, 114, 54, 23, 23]
19.516[30, 94, 44, 133, 111, 41, 21, 23]
19.539[26, 72, 45, 103, 112, 37, 21, 22]
19.554[25, 66, 43, 79, 91, 31, 23, 22]
19.576[20, 63, 41, 54, 70, 28, 22, 21]
19.6[22, 71, 52, 51, 62, 28, 23, 21]
19.613[21, 70, 50, 50, 58, 32, 21, 20]
19.636[23, 67, 49, 45, 51, 30, 23, 20]
19.658[23, 67, 49, 38, 52, 28, 21, 21]
19.673[25, 69, 52, 60, 100, 33, 22, 20]
19.696[25, 70, 40, 55, 97, 34, 22, 19]
19.719[27, 119, 64, 60, 105, 31, 22, 20]
19.733[27, 127, 63, 60, 106, 32, 22, 21]
19.756[29, 130, 66, 60, 105, 35, 21, 21]
19.778[28, 130, 63, 38, 69, 29, 20, 22]
19.793[27, 126, 65, 42, 70, 31, 20, 24]
19.816[25, 83, 48, 53, 85, 40, 22, 23]
19.839[27, 76, 45, 54, 85, 43, 22, 24]
19.854[25, 68, 42, 55, 85, 44, 24, 23]
19.876[33, 61, 41, 55, 81, 45, 24, 23]
19.899[36, 55, 36, 54, 80, 42, 25, 36]
19.914[37, 47, 28, 44, 59, 40, 26, 38]
19.937[35, 34, 29, 43, 56, 38, 25, 37]
19.959[36, 33, 24, 44, 56, 35, 37, 112]
19.974[28, 41, 25, 47, 60, 35, 37, 116]
19.996[25, 42, 25, 46, 58, 38, 37, 114]
20.019[25, 50, 28, 39, 60, 33, 36, 118]
20.033[24, 52, 26, 38, 67, 35, 36, 119]
20.057[22, 53, 27, 37, 70, 38, 23, 57]
20.088[23, 46, 27, 34, 67, 40, 21, 48]
20.101[24, 46, 27, 30, 67, 40, 20, 45]
20.116[22, 35, 22, 30, 57, 38, 18, 33]
20.138[22, 31, 27, 31, 50, 37, 20, 29]
20.169[21, 27, 27, 29, 44, 37, 20, 25]
20.177[20, 27, 26, 29, 59, 37, 22, 23]
20.199[18, 23, 27, 29, 64, 46, 25, 23]
20.221[19, 25, 27, 29, 65, 47, 26, 23]
20.236[21, 24, 24, 27, 66, 48, 31, 30]
20.259[23, 24, 24, 27, 69, 45, 53, 138]
20.281[24, 23, 24, 26, 62, 44, 56, 147]
20.296[25, 24, 23, 24, 56, 31, 55, 151]
20.327[24, 23, 24, 26, 55, 39, 56, 152]
20.341[23, 22, 23, 24, 53, 35, 54, 151]
20.357[20, 20, 24, 24, 53, 35, 32, 72]
20.379[22, 27, 25, 24, 44, 36, 28, 51]
20.401[19, 27, 25, 23, 65, 40, 27, 41]
20.417[20, 28, 25, 21, 67, 33, 25, 36]
20.438[20, 31, 26, 22, 68, 34, 24, 33]
20.461[21, 31, 26, 22, 67, 33, 23, 25]
20.476[19, 25, 24, 31, 64, 38, 24, 26]
20.499[20, 25, 26, 37, 40, 35, 23, 26]
20.522[20, 23, 25, 38, 35, 35, 24, 27]
20.536[22, 21, 25, 38, 32, 35, 25, 26]
20.559[22, 20, 25, 38, 31, 35, 25, 27]
20.581[20, 20, 24, 31, 33, 29, 22, 24]
20.596[21, 23, 24, 22, 30, 31, 22, 22]
20.619[22, 22, 24, 20, 29, 32, 23, 21]
20.641[19, 22, 24, 20, 32, 36, 23, 21]
20.656[19, 24, 22, 21, 34, 42, 24, 22]
20.678[20, 34, 23, 20, 43, 48, 24, 22]
20.701[29, 130, 76, 27, 48, 53, 28, 22]
20.716[28, 137, 81, 29, 48, 51, 29, 22]
20.739[28, 138, 81, 29, 46, 48, 27, 24]
20.761[30, 141, 82, 29, 46, 43, 26, 22]
20.776[29, 142, 83, 28, 34, 36, 25, 23]
20.799[23, 68, 41, 25, 33, 29, 22, 25]
20.829[22, 52, 31, 24, 36, 29, 18, 24]
20.837[25, 104, 38, 30, 43, 33, 18, 22]
20.858[22, 104, 37, 33, 42, 34, 18, 23]
20.881[24, 101, 33, 33, 43, 33, 17, 22]
20.896[23, 104, 35, 31, 39, 32, 17, 19]
20.919[25, 107, 33, 30, 40, 39, 21, 22]
20.941[23, 71, 25, 24, 33, 38, 21, 21]
20.956[24, 65, 25, 21, 31, 37, 23, 20]
20.978[23, 64, 25, 22, 31, 46, 24, 19]
21.001[22, 56, 23, 24, 35, 49, 33, 30]
21.016[22, 49, 25, 27, 40, 45, 32, 27]
21.039[21, 25, 22, 28, 41, 44, 34, 28]
21.061[22, 24, 23, 27, 44, 44, 33, 29]
21.084[23, 25, 21, 27, 44, 34, 32, 30]
21.098[23, 26, 26, 26, 41, 29, 23, 22]
21.121[22, 26, 25, 24, 32, 38, 24, 23]
21.144[21, 24, 25, 21, 31, 40, 24, 23]
21.158[21, 24, 26, 21, 31, 39, 24, 24]
21.181[19, 24, 27, 22, 34, 39, 25, 23]
21.205[19, 24, 23, 20, 35, 39, 25, 23]
21.218[19, 22, 23, 20, 37, 30, 21, 22]
21.241[19, 23, 22, 21, 40, 26, 20, 23]
21.264[17, 29, 25, 22, 39, 28, 20, 23]
21.278[18, 28, 24, 23, 37, 29, 20, 23]
21.301[17, 27, 26, 22, 36, 31, 20, 21]
21.324[17, 28, 25, 24, 32, 29, 19, 23]
21.339[19, 28, 26, 24, 28, 29, 17, 25]
21.361[20, 27, 23, 25, 28, 27, 18, 21]
21.384[19, 33, 26, 25, 29, 27, 19, 22]
21.399[19, 33, 25, 26, 32, 30, 19, 23]
21.421[19, 33, 26, 25, 35, 39, 20, 21]
21.445[17, 34, 25, 24, 36, 41, 20, 18]
21.459[17, 29, 24, 22, 37, 43, 19, 19]
21.481[19, 24, 23, 25, 36, 43, 19, 20]
21.504[19, 25, 23, 26, 37, 41, 20, 19]
21.519[19, 28, 25, 26, 36, 33, 18, 20]
21.541[20, 25, 26, 26, 35, 30, 20, 22]
21.564[19, 26, 25, 25, 32, 27, 20, 21]
21.578[20, 24, 25, 20, 30, 26, 19, 21]
21.601[20, 24, 25, 23, 28, 22, 18, 24]
21.625[20, 21, 23, 24, 28, 20, 24, 23]
21.639[20, 22, 22, 25, 28, 20, 23, 22]
21.661[19, 23, 23, 24, 32, 24, 23, 22]
21.684[18, 22, 22, 27, 32, 25, 24, 22]
21.699[18, 21, 20, 24, 31, 26, 25, 19]
21.721[16, 25, 25, 24, 28, 29, 21, 19]
21.752[16, 25, 26, 21, 28, 31, 21, 20]
21.758[18, 26, 26, 22, 24, 28, 21, 22]
21.782[17, 27, 26, 22, 23, 28, 23, 20]
21.804[18, 28, 26, 23, 24, 27, 22, 21]
21.827[21, 24, 21, 21, 22, 24, 21, 21]
21.842[20, 30, 23, 23, 22, 24, 22, 21]
21.864[19, 29, 22, 22, 23, 27, 23, 21]
21.879[20, 30, 23, 21, 23, 28, 19, 22]
21.901[21, 30, 22, 21, 22, 28, 22, 22]
21.924[20, 30, 22, 20, 23, 32, 22, 23]
21.939[22, 23, 18, 19, 23, 33, 21, 24]
21.961[23, 30, 21, 19, 22, 30, 19, 25]
21.984[23, 29, 22, 20, 22, 29, 19, 24]
22.007[22, 29, 21, 19, 22, 29, 17, 23]
22.021[23, 30, 20, 19, 23, 27, 18, 22]
22.044[21, 30, 22, 19, 22, 24, 18, 22]
22.067[21, 22, 19, 20, 23, 27, 22, 20]
22.081[20, 26, 21, 20, 24, 26, 24, 20]
22.104[20, 26, 22, 19, 24, 25, 22, 19]
22.127[19, 26, 23, 20, 22, 24, 25, 19]
22.142[21, 24, 21, 21, 21, 22, 24, 15]
22.164[20, 27, 24, 21, 20, 24, 21, 14]
22.187[21, 24, 22, 21, 18, 25, 23, 18]
22.202[18, 25, 23, 21, 19, 26, 24, 19]
22.224[18, 24, 22, 19, 29, 28, 22, 20]
22.247[18, 27, 21, 18, 36, 29, 22, 21]
22.262[19, 23, 21, 17, 36, 26, 22, 22]
22.284[18, 24, 20, 16, 37, 31, 21, 19]
22.307[20, 23, 19, 18, 39, 32, 20, 18]
22.322[20, 27, 23, 18, 33, 31, 20, 18]
22.344[18, 26, 25, 18, 26, 33, 20, 16]
22.367[17, 27, 23, 19, 26, 33, 21, 19]
22.382[19, 27, 25, 19, 25, 26, 20, 20]
22.404[18, 26, 25, 18, 24, 30, 21, 20]
22.427[19, 22, 23, 19, 25, 30, 22, 20]
22.442[20, 22, 23, 20, 27, 30, 22, 22]
22.464[19, 22, 24, 19, 28, 29, 20, 18]
22.487[19, 26, 26, 20, 28, 30, 20, 18]
22.501[22, 25, 26, 19, 26, 28, 19, 18]
22.524[23, 24, 25, 19, 27, 28, 17, 18]
22.547[23, 25, 26, 19, 28, 25, 17, 18]
22.569[23, 24, 25, 19, 30, 28, 17, 20]
22.584[23, 20, 25, 19, 29, 28, 16, 19]
22.607[20, 21, 23, 19, 30, 26, 17, 19]
22.621[17, 27, 25, 18, 29, 26, 18, 18]
22.644[18, 26, 23, 18, 29, 24, 19, 18]
22.667[19, 27, 24, 18, 26, 22, 19, 17]
22.681[18, 27, 21, 18, 28, 23, 20, 17]
22.704[18, 27, 23, 18, 27, 27, 20, 17]
22.727[18, 20, 23, 18, 27, 27, 20, 17]
22.741[18, 25, 24, 17, 25, 28, 19, 18]
22.765[17, 33, 26, 17, 26, 29, 20, 18]
22.787[17, 32, 25, 18, 25, 28, 20, 18]
22.801[17, 33, 25, 18, 23, 25, 19, 18]
22.824[19, 33, 25, 19, 25, 25, 19, 20]
22.847[20, 30, 25, 20, 25, 24, 19, 17]
22.861[20, 22, 21, 22, 24, 25, 21, 18]
22.884[20, 22, 20, 21, 23, 24, 20, 18]
22.907[21, 21, 19, 22, 24, 26, 22, 19]
22.921[20, 20, 17, 21, 24, 25, 22, 18]
22.944[19, 26, 19, 22, 29, 26, 23, 19]
22.967[20, 25, 20, 21, 30, 25, 20, 20]
22.989[19, 27, 21, 21, 30, 26, 20, 19]
23.004[17, 27, 21, 21, 30, 26, 19, 20]
23.027[18, 28, 23, 22, 32, 25, 20, 21]
23.049[19, 24, 21, 20, 29, 25, 19, 21]
23.064[19, 27, 24, 19, 30, 26, 18, 21]
23.087[18, 25, 23, 19, 30, 26, 18, 23]
23.109[19, 24, 25, 18, 29, 23, 17, 20]
23.124[20, 25, 24, 16, 26, 26, 17, 21]
23.147[19, 25, 24, 20, 25, 26, 19, 20]
23.169[20, 22, 20, 21, 23, 27, 21, 20]
23.184[21, 21, 22, 21, 24, 26, 21, 20]
23.207[20, 21, 21, 21, 26, 25, 20, 22]
23.229[18, 18, 20, 22, 26, 22, 23, 19]
23.244[21, 19, 21, 20, 26, 20, 20, 19]
23.267[20, 24, 26, 20, 25, 22, 20, 20]
23.289[20, 27, 27, 20, 24, 22, 20, 19]
23.304[21, 28, 26, 20, 24, 24, 21, 18]
23.327[21, 28, 27, 20, 21, 25, 17, 20]
23.349[19, 28, 29, 22, 26, 24, 18, 21]
23.365[19, 24, 26, 22, 33, 21, 18, 21]
23.387[20, 21, 25, 23, 36, 25, 18, 21]
23.417[19, 23, 26, 24, 36, 25, 17, 20]
23.424[20, 25, 25, 26, 49, 27, 19, 20]
23.447[20, 26, 23, 26, 48, 28, 19, 21]
23.469[21, 25, 24, 25, 45, 27, 19, 20]
23.483[19, 26, 24, 24, 43, 23, 18, 20]
23.507[19, 24, 25, 22, 43, 26, 19, 21]
23.529[18, 24, 26, 19, 28, 26, 17, 20]
23.551[18, 25, 27, 16, 25, 25, 18, 20]
23.573[17, 26, 27, 17, 25, 26, 17, 18]
23.589[19, 25, 28, 19, 26, 26, 18, 19]
23.611[19, 27, 26, 20, 25, 21, 18, 20]
23.628[19, 28, 25, 21, 30, 22, 19, 22]
23.648[18, 26, 24, 22, 29, 23, 18, 21]
23.671[18, 26, 24, 23, 28, 23, 21, 21]
23.695[18, 26, 23, 20, 27, 24, 20, 21]
23.708[16, 24, 23, 20, 27, 25, 21, 18]
23.725[18, 23, 24, 22, 22, 26, 20, 17]
23.747[17, 27, 28, 21, 25, 26, 20, 17]
23.768[16, 25, 27, 20, 29, 27, 18, 18]
23.785[16, 27, 26, 21, 31, 26, 20, 17]
23.807[17, 27, 25, 21, 30, 29, 19, 19]
23.828[16, 33, 27, 23, 31, 28, 20, 19]
23.846[16, 30, 22, 23, 30, 29, 21, 18]
23.867[17, 46, 24, 24, 26, 28, 21, 17]
23.889[17, 48, 24, 23, 27, 28, 20, 18]
23.911[17, 51, 28, 22, 26, 24, 19, 18]
23.927[19, 47, 26, 18, 25, 22, 20, 18]
23.949[20, 49, 26, 18, 25, 20, 18, 18]
23.971[24, 113, 55, 19, 24, 19, 20, 19]
23.988[25, 118, 58, 21, 23, 21, 22, 18]
24.008[24, 118, 57, 21, 21, 24, 23, 18]
24.031[24, 120, 57, 20, 23, 24, 21, 18]
24.046[24, 121, 59, 21, 22, 26, 21, 19]
24.069[19, 61, 37, 20, 22, 26, 20, 18]
24.091[23, 57, 34, 20, 20, 24, 19, 21]
24.106[23, 54, 32, 21, 24, 22, 20, 21]
24.129[21, 55, 32, 20, 24, 22, 21, 22]
24.151[23, 51, 29, 18, 25, 20, 21, 22]
24.166[25, 51, 30, 19, 25, 21, 20, 22]
24.188[19, 44, 28, 18, 24, 21, 20, 19]
24.212[23, 47, 30, 22, 21, 21, 20, 23]
24.226[24, 45, 32, 22, 20, 21, 19, 22]
24.25[21, 44, 30, 24, 18, 21, 18, 21]
24.271[21, 38, 25, 22, 19, 18, 18, 20]
24.286[23, 37, 24, 22, 21, 19, 17, 20]
24.309[21, 42, 27, 19, 23, 23, 16, 18]
24.331[23, 68, 28, 20, 22, 25, 17, 19]
24.346[24, 72, 27, 20, 24, 25, 18, 19]
24.37[23, 73, 28, 20, 31, 26, 19, 20]
24.391[21, 74, 28, 20, 30, 27, 20, 21]
24.406[20, 70, 24, 19, 30, 24, 21, 21]
24.428[16, 41, 21, 20, 29, 22, 21, 21]
24.451[15, 35, 22, 19, 29, 25, 20, 21]
24.473[15, 35, 22, 20, 20, 25, 21, 21]
24.489[18, 38, 23, 20, 19, 25, 21, 19]
24.519[21, 36, 22, 20, 19, 24, 22, 19]
24.526[23, 34, 23, 19, 20, 22, 22, 19]
24.548[25, 43, 29, 20, 20, 19, 23, 20]
24.571[25, 45, 30, 19, 21, 20, 21, 20]
24.586[24, 41, 29, 21, 22, 22, 21, 21]
24.609[23, 47, 31, 21, 22, 27, 21, 21]
24.631[22, 46, 31, 20, 21, 29, 22, 20]
24.646[20, 38, 26, 19, 23, 31, 21, 19]
24.668[20, 35, 25, 20, 25, 31, 21, 19]
24.691[21, 34, 24, 18, 25, 31, 23, 19]
24.713[21, 32, 24, 19, 24, 29, 22, 20]
24.728[21, 38, 23, 21, 24, 27, 22, 21]
24.751[22, 39, 21, 22, 23, 25, 22, 21]
24.766[22, 40, 23, 22, 21, 26, 22, 22]
24.788[20, 41, 25, 22, 21, 22, 20, 21]
24.811[19, 47, 24, 20, 22, 22, 19, 20]
24.833[21, 50, 26, 18, 22, 23, 19, 22]
24.849[21, 53, 25, 22, 23, 25, 20, 22]
24.871[22, 50, 23, 24, 29, 25, 19, 21]
24.894[22, 52, 22, 23, 29, 28, 18, 23]
24.908[25, 42, 23, 24, 29, 28, 19, 24]
24.931[21, 34, 22, 25, 29, 28, 17, 20]
24.954[23, 30, 24, 22, 29, 28, 17, 20]
24.969[25, 49, 26, 20, 24, 27, 19, 20]
24.991[24, 48, 25, 19, 24, 24, 18, 18]
25.013[22, 49, 26, 21, 24, 25, 18, 18]
25.028[23, 49, 25, 21, 24, 24, 19, 20]
25.051[21, 49, 24, 21, 24, 22, 19, 20]
25.082[18, 31, 22, 23, 23, 21, 18, 21]
25.088[21, 29, 22, 23, 23, 23, 20, 21]
25.111[21, 33, 21, 22, 23, 22, 24, 21]
25.133[23, 55, 23, 22, 24, 24, 22, 24]
25.149[22, 56, 22, 21, 24, 21, 22, 24]
25.171[22, 57, 23, 20, 24, 22, 22, 24]
25.193[20, 57, 23, 21, 24, 21, 23, 24]
25.208[21, 54, 26, 19, 24, 22, 20, 23]
25.233[19, 31, 24, 17, 23, 22, 19, 20]
25.253[19, 30, 24, 18, 23, 28, 19, 21]
25.268[19, 30, 24, 20, 23, 27, 19, 21]
25.291[19, 30, 24, 20, 22, 27, 16, 20]
25.321[20, 37, 22, 20, 21, 27, 17, 20]
25.328[19, 37, 22, 22, 23, 27, 18, 19]
25.359[20, 35, 22, 21, 21, 21, 18, 17]
25.373[20, 34, 24, 20, 23, 21, 18, 16]
25.388[22, 48, 25, 21, 23, 20, 19, 18]
25.411[21, 48, 27, 20, 23, 24, 19, 18]
25.433[21, 48, 27, 20, 21, 22, 20, 18]
25.448[21, 50, 28, 21, 21, 23, 20, 21]
25.471[21, 49, 26, 20, 18, 23, 22, 21]
25.493[20, 40, 25, 20, 19, 24, 22, 20]
25.509[22, 41, 24, 19, 17, 18, 22, 20]
25.531[23, 44, 23, 18, 20, 18, 21, 21]
25.553[21, 42, 23, 18, 21, 18, 24, 19]
25.569[22, 54, 29, 19, 19, 21, 22, 19]
25.591[21, 52, 27, 17, 18, 19, 21, 18]
25.613[20, 50, 27, 17, 21, 22, 21, 18]
25.636[20, 48, 27, 17, 20, 22, 22, 18]
25.651[19, 47, 26, 16, 20, 23, 17, 17]
25.673[23, 46, 23, 18, 21, 23, 18, 18]
25.689[23, 46, 23, 19, 22, 23, 19, 19]
25.711[21, 43, 22, 21, 21, 20, 17, 19]
25.733[23, 44, 22, 21, 20, 20, 16, 18]
25.748[25, 45, 24, 21, 21, 19, 17, 19]
25.771[21, 35, 25, 20, 21, 17, 19, 18]
25.793[19, 32, 26, 19, 21, 17, 18, 16]
25.816[23, 30, 25, 20, 21, 18, 20, 17]
25.831[21, 34, 25, 22, 21, 17, 20, 19]
25.853[21, 40, 28, 22, 21, 19, 22, 18]
25.876[21, 40, 24, 23, 20, 19, 20, 19]
25.891[22, 41, 24, 24, 21, 18, 21, 21]
25.914[20, 41, 26, 23, 22, 19, 20, 20]
25.937[20, 39, 25, 22, 23, 18, 22, 18]
25.951[18, 32, 25, 22, 21, 18, 21, 20]
25.982[20, 31, 25, 21, 22, 18, 20, 19]
25.997[20, 43, 25, 20, 21, 19, 19, 18]
26.011[20, 48, 24, 18, 19, 19, 19, 20]
26.033[19, 49, 24, 16, 20, 19, 18, 20]
26.057[22, 50, 21, 17, 20, 20, 19, 18]
26.071[21, 47, 23, 19, 21, 20, 19, 18]
26.094[21, 37, 22, 20, 20, 20, 19, 19]
26.117[20, 33, 22, 19, 20, 20, 21, 16]
26.131[22, 32, 22, 20, 20, 20, 20, 17]
26.153[22, 49, 24, 19, 19, 18, 18, 17]
26.177[23, 53, 24, 19, 18, 18, 19, 18]
26.191[24, 53, 24, 19, 19, 18, 19, 19]
26.213[25, 52, 25, 20, 20, 18, 19, 19]
26.237[23, 52, 26, 20, 20, 17, 18, 18]
26.251[23, 40, 27, 21, 20, 20, 18, 20]
26.274[20, 37, 27, 21, 20, 20, 20, 19]
26.297[18, 36, 28, 21, 20, 21, 19, 17]
26.311[21, 33, 26, 21, 18, 20, 17, 20]
26.333[21, 34, 26, 20, 17, 19, 18, 19]
26.357[19, 28, 23, 18, 17, 20, 19, 17]
26.371[20, 28, 23, 18, 17, 21, 18, 17]
26.393[22, 47, 24, 19, 17, 21, 19, 18]
26.417[23, 49, 26, 21, 17, 22, 21, 15]
26.432[23, 48, 25, 21, 17, 21, 20, 17]
26.454[24, 51, 30, 22, 19, 20, 21, 17]
26.477[24, 50, 28, 22, 19, 19, 20, 18]
26.491[21, 35, 30, 21, 19, 17, 19, 19]
26.513[17, 33, 29, 19, 19, 18, 18, 19]
26.537[18, 44, 34, 21, 21, 20, 20, 18]
26.551[17, 38, 29, 20, 19, 19, 17, 19]
26.573[17, 39, 30, 19, 19, 20, 18, 20]
26.597[16, 37, 29, 18, 19, 20, 17, 20]
26.611[17, 37, 29, 19, 18, 20, 18, 19]
26.633[21, 23, 22, 16, 18, 19, 18, 20]
26.657[22, 30, 23, 16, 20, 21, 19, 18]
26.671[22, 28, 22, 16, 20, 20, 19, 17]
26.693[23, 28, 19, 19, 20, 20, 21, 16]
26.717[22, 29, 19, 19, 22, 19, 21, 14]
26.739[19, 28, 20, 20, 21, 20, 20, 17]
26.753[17, 26, 23, 21, 21, 21, 20, 17]
26.777[18, 32, 24, 21, 21, 24, 19, 18]
26.799[21, 37, 25, 20, 23, 25, 18, 18]
26.813[20, 38, 25, 19, 22, 25, 18, 21]
26.837[21, 40, 25, 20, 22, 25, 17, 18]
26.859[23, 39, 22, 21, 23, 25, 19, 18]
26.873[23, 34, 22, 20, 22, 21, 20, 19]
26.897[20, 30, 21, 19, 19, 20, 18, 18]
26.919[21, 33, 21, 20, 20, 21, 19, 19]
26.934[22, 32, 22, 18, 21, 22, 22, 21]
26.956[19, 32, 24, 17, 20, 20, 19, 22]
26.987[19, 31, 25, 18, 21, 20, 20, 21]
26.994[20, 30, 27, 18, 21, 21, 20, 23]
27.016[21, 36, 28, 20, 21, 21, 21, 23]
27.039[22, 42, 28, 21, 21, 19, 20, 23]
27.053[24, 41, 26, 22, 21, 20, 21, 22]
27.076[25, 42, 27, 24, 20, 21, 20, 22]
27.099[25, 43, 26, 25, 20, 20, 20, 21]
27.113[24, 37, 24, 24, 20, 20, 19, 21]
27.137[22, 28, 22, 23, 20, 22, 20, 20]
27.159[20, 27, 23, 22, 20, 22, 19, 20]
27.174[20, 32, 24, 23, 21, 22, 20, 20]
27.196[21, 36, 25, 22, 22, 22, 22, 19]
27.219[20, 37, 25, 22, 21, 21, 21, 18]
27.233[20, 37, 26, 22, 21, 20, 20, 20]
27.257[21, 42, 27, 22, 20, 19, 20, 19]
27.279[19, 37, 23, 19, 19, 18, 19, 20]
27.302[19, 35, 22, 20, 18, 18, 18, 23]
27.316[21, 36, 21, 20, 20, 18, 18, 23]
27.339[23, 47, 21, 19, 20, 16, 19, 21]
27.353[21, 42, 19, 19, 22, 21, 19, 22]
27.377[22, 43, 20, 19, 23, 20, 19, 21]
27.399[21, 41, 21, 20, 24, 20, 18, 18]
27.413[22, 43, 23, 21, 21, 19, 19, 19]
27.437[19, 33, 27, 22, 21, 20, 18, 19]
27.459[20, 33, 26, 22, 19, 17, 18, 20]
27.473[19, 33, 26, 22, 19, 19, 18, 20]
27.497[19, 31, 25, 20, 19, 19, 20, 19]
27.519[16, 26, 23, 20, 19, 20, 19, 16]
27.533[18, 24, 19, 20, 21, 20, 20, 16]
27.557[20, 32, 20, 19, 21, 23, 19, 15]
27.579[20, 31, 19, 19, 20, 22, 20, 15]
27.593[20, 34, 25, 21, 22, 24, 19, 17]
27.617[21, 34, 25, 20, 21, 24, 19, 18]
27.639[21, 32, 25, 20, 19, 25, 20, 19]
27.653[18, 24, 26, 21, 21, 25, 21, 20]
27.677[18, 25, 27, 20, 20, 26, 22, 21]
27.699[18, 23, 24, 20, 17, 24, 22, 20]
27.722[18, 30, 24, 18, 19, 25, 21, 22]
27.737[15, 31, 23, 18, 19, 24, 20, 20]
27.759[19, 32, 22, 17, 19, 23, 19, 19]
27.782[19, 32, 23, 17, 18, 22, 19, 18]
27.797[18, 32, 22, 17, 19, 22, 19, 18]
27.819[20, 27, 23, 20, 19, 22, 20, 19]
27.841[21, 26, 22, 21, 21, 22, 19, 20]
27.857[21, 25, 23, 21, 20, 20, 20, 19]
27.879[21, 23, 20, 21, 21, 19, 19, 20]
27.902[22, 19, 19, 20, 21, 19, 20, 19]
27.917[22, 21, 19, 19, 20, 23, 21, 18]
27.939[22, 30, 24, 17, 20, 23, 21, 17]
27.962[20, 30, 25, 21, 19, 24, 20, 18]
27.976[20, 31, 25, 21, 21, 25, 20, 19]
27.999[19, 32, 25, 21, 22, 25, 18, 18]
28.022[19, 31, 25, 21, 21, 22, 18, 17]
28.037[19, 30, 24, 21, 22, 21, 17, 18]
28.059[19, 29, 24, 18, 21, 20, 17, 18]
28.082[20, 28, 24, 17, 21, 21, 19, 17]
28.097[20, 35, 23, 18, 21, 20, 18, 18]
28.119[17, 37, 22, 18, 22, 20, 17, 20]
28.142[18, 30, 19, 18, 23, 21, 20, 20]
28.157[18, 30, 19, 19, 23, 22, 19, 20]
28.179[18, 33, 21, 20, 24, 20, 17, 20]
28.202[21, 31, 25, 19, 23, 21, 17, 19]
28.216[22, 28, 25, 19, 23, 21, 18, 18]
28.239[20, 29, 26, 20, 22, 22, 17, 18]
28.261[20, 35, 25, 20, 22, 20, 18, 18]
28.276[19, 37, 27, 19, 21, 21, 19, 18]
28.299[18, 34, 23, 19, 21, 22, 21, 20]
28.322[18, 35, 23, 19, 20, 21, 21, 20]
28.336[19, 36, 24, 20, 19, 20, 19, 19]
28.359[20, 32, 23, 20, 19, 20, 18, 19]
28.382[22, 33, 20, 19, 19, 21, 20, 18]
28.396[21, 35, 22, 19, 19, 21, 20, 18]
28.419[22, 34, 22, 20, 20, 23, 19, 18]
28.442[22, 33, 24, 20, 21, 23, 20, 19]
28.456[21, 33, 24, 20, 21, 23, 21, 19]
28.479[21, 27, 24, 21, 20, 22, 21, 20]
28.502[19, 23, 23, 21, 21, 25, 21, 19]
28.516[19, 26, 27, 21, 22, 24, 22, 19]
28.54[18, 29, 27, 20, 20, 24, 24, 19]
28.561[19, 33, 28, 20, 20, 23, 24, 19]
28.584[17, 32, 27, 20, 22, 23, 21, 19]
28.6[17, 32, 29, 20, 21, 20, 21, 20]
28.621[17, 31, 27, 19, 20, 21, 20, 19]
28.643[18, 29, 26, 19, 21, 25, 16, 19]
28.66[18, 23, 25, 21, 22, 27, 17, 20]
28.689[18, 25, 27, 20, 20, 27, 18, 22]
28.704[20, 26, 25, 22, 22, 28, 19, 21]
28.72[19, 23, 25, 22, 22, 28, 21, 21]
28.741[19, 23, 24, 27, 22, 24, 21, 20]
28.764[18, 24, 24, 25, 22, 20, 22, 20]
28.78[19, 24, 21, 25, 21, 23, 24, 17]
28.801[20, 30, 20, 24, 21, 22, 23, 18]
28.824[20, 30, 23, 23, 21, 21, 21, 18]
28.846[21, 32, 22, 18, 21, 21, 22, 18]
28.861[21, 30, 22, 21, 20, 24, 22, 16]
28.883[19, 29, 24, 21, 20, 21, 19, 19]
28.9[17, 24, 24, 23, 19, 21, 20, 19]
28.921[17, 25, 22, 23, 21, 22, 20, 19]
28.943[18, 23, 23, 23, 21, 23, 19, 18]
28.96[18, 23, 23, 22, 20, 22, 19, 20]
28.981[18, 23, 22, 22, 21, 23, 19, 19]
29.004[18, 20, 22, 20, 20, 23, 18, 19]
29.02[19, 20, 20, 20, 18, 28, 18, 20]
29.041[17, 17, 22, 18, 19, 29, 20, 20]
29.064[16, 22, 22, 19, 20, 29, 18, 20]
29.08[17, 23, 22, 20, 19, 34, 17, 21]
29.101[18, 30, 26, 20, 20, 35, 18, 21]
29.123[16, 29, 26, 21, 21, 32, 17, 20]
29.14[16, 30, 24, 21, 20, 29, 15, 21]
29.161[20, 28, 24, 21, 20, 31, 15, 20]
29.183[21, 28, 26, 20, 19, 27, 16, 19]
29.2[22, 20, 22, 19, 19, 26, 17, 21]
29.221[24, 21, 22, 18, 18, 25, 20, 20]
29.244[23, 19, 23, 18, 18, 29, 20, 19]
29.26[20, 21, 23, 19, 17, 31, 20, 19]
29.281[19, 19, 21, 19, 18, 33, 20, 19]
29.304[18, 21, 24, 22, 17, 34, 19, 18]
29.32[17, 22, 25, 22, 17, 35, 15, 20]
29.341[18, 22, 25, 23, 17, 34, 15, 20]
29.363[17, 22, 27, 23, 19, 30, 15, 20]
29.38[17, 22, 28, 22, 19, 29, 16, 19]
29.401[18, 22, 27, 20, 19, 27, 15, 18]
29.424[20, 21, 26, 22, 20, 26, 17, 15]
29.44[19, 24, 25, 21, 21, 27, 16, 16]
29.461[20, 23, 25, 20, 19, 28, 20, 17]
29.484[20, 23, 24, 22, 20, 28, 20, 19]
29.5[21, 24, 22, 22, 21, 31, 21, 20]
29.521[20, 22, 22, 21, 20, 32, 21, 20]
29.545[23, 20, 22, 20, 21, 31, 22, 19]
29.56[23, 23, 21, 20, 21, 32, 21, 20]
29.581[23, 24, 19, 17, 20, 30, 22, 18]
29.605[22, 23, 22, 14, 21, 29, 22, 18]
29.626[21, 23, 23, 18, 21, 29, 21, 20]
29.641[19, 23, 22, 19, 22, 31, 20, 20]
29.663[18, 20, 23, 21, 24, 35, 19, 20]
29.686[19, 20, 23, 22, 26, 37, 18, 22]
29.701[19, 20, 22, 23, 26, 37, 19, 21]
29.723[19, 20, 22, 20, 26, 35, 20, 19]
29.746[17, 21, 24, 21, 26, 34, 20, 19]
29.761[17, 20, 23, 21, 27, 30, 21, 19]
29.783[16, 22, 24, 22, 25, 28, 19, 19]
29.806[16, 22, 23, 23, 26, 27, 18, 20]
29.821[16, 23, 23, 23, 25, 29, 16, 20]
29.844[17, 24, 22, 24, 24, 28, 18, 20]
29.866[18, 24, 21, 23, 24, 24, 18, 20]
29.881[21, 22, 20, 23, 24, 22, 19, 20]
29.903[20, 22, 21, 22, 22, 20, 19, 19]
29.926[20, 23, 23, 23, 26, 23, 22, 20]
29.942[22, 21, 23, 21, 26, 24, 22, 20]
29.963[20, 20, 23, 22, 25, 26, 21, 19]
29.986[17, 21, 24, 20, 25, 27, 23, 18]
30.001[17, 19, 23, 21, 25, 28, 22, 18]
30.023[20, 19, 20, 19, 22, 27, 22, 18]
30.046[19, 21, 20, 19, 23, 31, 21, 17]
30.061[20, 23, 21, 19, 24, 44, 22, 18]
30.084[22, 23, 19, 21, 25, 48, 21, 17]
30.106[24, 24, 18, 21, 25, 49, 22, 18]
30.121[21, 23, 20, 23, 25, 49, 22, 20]
30.143[22, 21, 21, 22, 25, 46, 21, 19]
30.166[22, 22, 20, 24, 30, 39, 22, 18]
30.181[20, 23, 23, 23, 30, 36, 22, 19]
30.203[17, 23, 24, 26, 30, 38, 21, 19]
30.226[21, 24, 22, 29, 34, 41, 23, 19]
30.241[20, 33, 24, 34, 36, 42, 25, 20]
30.263[21, 38, 26, 38, 38, 43, 22, 20]
30.286[24, 43, 31, 114, 55, 44, 22, 20]
30.301[26, 53, 44, 154, 79, 56, 25, 23]
30.323[27, 59, 63, 192, 119, 79, 24, 22]
30.346[29, 70, 77, 213, 163, 89, 29, 25]
30.361[31, 73, 84, 250, 198, 105, 32, 26]
30.383[45, 119, 106, 448, 374, 133, 52, 38]
30.406[54, 137, 127, 481, 443, 146, 56, 42]
30.421[68, 150, 149, 540, 465, 137, 62, 56]
30.444[91, 154, 147, 587, 527, 159, 66, 71]
30.466[145, 163, 175, 617, 538, 172, 76, 102]
30.481[156, 179, 211, 608, 494, 201, 81, 118]
30.512[159, 179, 213, 587, 464, 201, 80, 122]
30.526[173, 172, 198, 528, 443, 207, 76, 141]
30.549[180, 182, 227, 506, 375, 191, 75, 137]
30.563[148, 181, 217, 488, 378, 185, 67, 120]
30.586[143, 147, 212, 474, 444, 218, 55, 106]
30.609[141, 134, 215, 506, 422, 216, 59, 102]
30.623[128, 137, 218, 543, 444, 214, 58, 66]
30.646[104, 114, 197, 552, 446, 217, 57, 59]
30.669[94, 105, 207, 605, 441, 212, 55, 63]
30.683[97, 96, 201, 538, 320, 142, 49, 72]
30.706[111, 105, 199, 543, 348, 140, 53, 95]
30.729[103, 106, 216, 550, 373, 145, 55, 101]
30.743[108, 106, 222, 545, 424, 155, 58, 107]
30.766[117, 128, 216, 489, 422, 157, 64, 110]
30.789[122, 133, 199, 476, 455, 167, 72, 119]
30.803[117, 133, 204, 448, 435, 162, 66, 101]
30.826[120, 134, 202, 438, 404, 161, 68, 98]
30.849[117, 148, 211, 440, 352, 149, 68, 98]
30.863[109, 133, 215, 427, 336, 142, 62, 88]
30.886[90, 130, 210, 416, 286, 116, 52, 61]
30.909[71, 124, 195, 415, 299, 116, 49, 57]
30.923[61, 121, 172, 362, 276, 108, 43, 56]
30.946[55, 103, 147, 330, 263, 104, 35, 44]
30.969[52, 105, 122, 294, 252, 101, 34, 42]
30.984[46, 99, 114, 312, 245, 98, 34, 43]
31.006[51, 97, 114, 316, 250, 99, 37, 43]
31.028[81, 98, 118, 320, 259, 102, 36, 64]
31.043[89, 97, 111, 301, 261, 107, 42, 112]
31.066[140, 101, 119, 338, 269, 103, 44, 125]
31.089[154, 103, 127, 314, 279, 101, 51, 157]
31.103[158, 102, 121, 297, 262, 96, 50, 183]
31.126[150, 112, 140, 305, 247, 91, 51, 188]
31.149[150, 115, 154, 336, 243, 113, 49, 175]
31.172[115, 106, 152, 314, 232, 114, 45, 176]
31.186[118, 108, 149, 329, 287, 115, 44, 162]
31.209[194, 133, 182, 337, 309, 129, 57, 187]
31.223[270, 124, 168, 342, 328, 136, 79, 374]
31.246[474, 125, 157, 335, 330, 126, 95, 554]
31.269[543, 129, 155, 350, 355, 136, 128, 644]
31.283[543, 133, 166, 327, 326, 139, 133, 663]
31.306[526, 112, 144, 383, 305, 128, 130, 667]
31.328[493, 108, 141, 373, 318, 129, 123, 599]
31.343[312, 113, 150, 373, 310, 117, 113, 443]
31.366[178, 106, 148, 361, 287, 108, 86, 400]
31.388[176, 102, 126, 363, 283, 105, 77, 379]
31.403[159, 120, 131, 380, 307, 124, 78, 358]
31.426[180, 125, 135, 388, 278, 115, 75, 371]
31.449[164, 116, 126, 366, 299, 119, 71, 363]
31.472[149, 123, 133, 377, 319, 124, 56, 249]
31.486[138, 120, 139, 379, 294, 118, 57, 236]
31.509[158, 95, 129, 318, 259, 93, 58, 266]
31.532[119, 80, 141, 307, 258, 102, 52, 200]
31.546[118, 84, 138, 298, 218, 96, 50, 197]
31.568[124, 74, 128, 263, 176, 85, 51, 202]
31.591[129, 70, 121, 252, 170, 86, 53, 196]
31.606[149, 73, 130, 199, 182, 89, 42, 143]
31.629[162, 91, 120, 199, 198, 76, 48, 186]
31.652[193, 96, 128, 263, 214, 83, 50, 194]
31.666[221, 97, 125, 277, 228, 81, 47, 190]
31.69[227, 97, 127, 285, 224, 77, 44, 198]
31.711[198, 97, 121, 318, 220, 84, 45, 199]
31.726[203, 86, 133, 335, 212, 88, 40, 171]
31.749[173, 78, 127, 287, 205, 78, 37, 164]
31.772[132, 96, 143, 292, 204, 80, 37, 148]
31.786[121, 104, 151, 313, 207, 87, 39, 130]
31.809[124, 110, 141, 272, 188, 80, 42, 122]
31.832[166, 110, 128, 246, 172, 76, 48, 161]
31.846[166, 132, 131, 262, 174, 85, 48, 178]
31.869[162, 124, 135, 336, 168, 81, 50, 181]
31.892[157, 124, 178, 327, 162, 81, 49, 175]
31.906[156, 115, 189, 336, 171, 80, 54, 180]
31.929[85, 128, 189, 360, 208, 91, 50, 133]
31.952[88, 109, 189, 354, 203, 89, 52, 126]
31.966[90, 104, 180, 309, 226, 147, 54, 124]
31.989[91, 99, 135, 323, 261, 147, 56, 130]
32.012[88, 108, 131, 326, 258, 148, 48, 120]
32.026[102, 93, 130, 354, 230, 143, 48, 118]
32.049[97, 90, 123, 364, 225, 142, 48, 98]
32.072[91, 95, 118, 343, 199, 85, 45, 95]
32.086[88, 95, 119, 329, 147, 84, 39, 84]
32.109[83, 86, 108, 323, 162, 77, 39, 79]
32.131[55, 107, 107, 277, 179, 81, 36, 69]
32.146[76, 104, 110, 301, 179, 80, 35, 108]
32.169[76, 111, 133, 368, 188, 91, 36, 113]
32.192[78, 107, 122, 352, 215, 96, 35, 117]
32.206[76, 107, 121, 353, 205, 100, 38, 122]
32.229[74, 94, 142, 386, 219, 104, 40, 133]
32.252[53, 104, 163, 427, 228, 106, 39, 98]
32.266[52, 120, 172, 405, 221, 98, 37, 90]
32.289[50, 130, 204, 416, 210, 94, 35, 83]
32.312[53, 144, 220, 445, 264, 102, 35, 73]
32.326[56, 138, 208, 423, 239, 93, 34, 51]
32.349[54, 132, 201, 407, 226, 95, 31, 44]
32.371[58, 107, 181, 395, 245, 106, 32, 43]
32.386[60, 105, 186, 450, 242, 106, 33, 47]
32.417[67, 91, 176, 451, 205, 119, 33, 55]
32.432[62, 99, 177, 469, 229, 123, 32, 52]
32.454[63, 116, 177, 466, 234, 121, 35, 49]
32.469[63, 141, 189, 449, 213, 106, 34, 49]
32.492[59, 142, 154, 388, 201, 108, 34, 45]
32.514[47, 139, 151, 342, 189, 88, 32, 33]
32.529[47, 133, 158, 298, 172, 88, 32, 32]
32.552[48, 124, 168, 231, 171, 94, 32, 31]
32.574[50, 111, 163, 239, 214, 109, 33, 31]
32.589[50, 118, 182, 285, 246, 130, 38, 34]
32.612[57, 140, 204, 332, 254, 131, 44, 39]
32.634[57, 138, 199, 338, 256, 131, 43, 40]
32.649[52, 136, 202, 343, 252, 134, 47, 41]
32.671[56, 137, 205, 356, 244, 138, 76, 55]
32.694[56, 126, 191, 336, 254, 124, 77, 54]
32.71[51, 129, 179, 299, 241, 122, 76, 49]
32.732[50, 134, 198, 366, 232, 116, 77, 49]
32.754[56, 140, 192, 445, 244, 114, 74, 49]
32.769[49, 129, 178, 422, 221, 97, 43, 35]
32.792[47, 128, 172, 412, 184, 82, 35, 32]
32.814[45, 95, 151, 471, 189, 86, 30, 32]
32.829[44, 98, 147, 441, 203, 94, 34, 35]
32.852[34, 87, 131, 357, 199, 89, 33, 32]
32.874[34, 86, 137, 375, 200, 91, 35, 26]
32.889[32, 82, 134, 378, 195, 90, 36, 29]
32.912[36, 108, 165, 411, 225, 112, 42, 30]
32.934[40, 131, 188, 450, 252, 127, 43, 34]
32.949[39, 144, 185, 445, 247, 124, 41, 36]
32.972[37, 152, 189, 429, 245, 126, 40, 38]
32.994[41, 160, 199, 443, 254, 129, 41, 37]
33.009[41, 150, 192, 356, 222, 103, 34, 38]
33.032[41, 135, 161, 277, 184, 78, 27, 32]
33.054[43, 123, 161, 274, 180, 79, 30, 30]
33.077[43, 112, 156, 301, 179, 72, 29, 27]
33.092[42, 99, 140, 289, 158, 68, 28, 27]
33.114[41, 96, 122, 282, 151, 66, 30, 27]
33.129[37, 82, 105, 265, 137, 60, 32, 25]
33.152[34, 78, 103, 264, 133, 58, 30, 27]
33.174[36, 83, 100, 232, 151, 62, 32, 29]
33.189[36, 89, 115, 224, 173, 70, 32, 31]
33.212[37, 92, 111, 202, 189, 80, 30, 29]
33.234[38, 109, 131, 216, 195, 92, 30, 29]
33.248[40, 112, 152, 239, 203, 94, 32, 30]
33.271[37, 115, 147, 247, 200, 89, 31, 31]
33.294[50, 147, 177, 225, 183, 91, 36, 32]
33.308[54, 157, 190, 255, 180, 88, 37, 34]
33.331[52, 144, 178, 250, 176, 81, 38, 34]
33.354[52, 138, 165, 273, 174, 77, 34, 32]
33.377[52, 142, 172, 261, 166, 88, 35, 32]
33.392[38, 108, 137, 275, 172, 87, 30, 27]
33.414[34, 93, 135, 272, 171, 78, 28, 27]
33.437[35, 92, 131, 275, 161, 72, 27, 28]
33.452[41, 117, 141, 246, 157, 95, 36, 31]
33.474[39, 103, 133, 237, 156, 89, 38, 30]
33.497[41, 100, 135, 217, 172, 90, 39, 32]
33.512[39, 104, 120, 188, 161, 104, 40, 30]
33.534[43, 121, 122, 199, 176, 103, 39, 30]
33.557[39, 105, 108, 212, 196, 100, 32, 28]
33.572[38, 102, 102, 221, 194, 98, 29, 27]
33.593[36, 106, 97, 239, 197, 92, 25, 25]
33.616[38, 99, 96, 254, 222, 81, 26, 26]
33.638[36, 90, 96, 243, 228, 86, 24, 27]
33.653[37, 91, 101, 214, 213, 68, 27, 26]
33.683[40, 95, 123, 220, 206, 72, 29, 27]
33.692[40, 110, 117, 230, 193, 76, 30, 28]
33.713[39, 108, 111, 224, 158, 74, 28, 28]
33.736[36, 100, 120, 241, 132, 73, 27, 26]
33.752[32, 92, 111, 246, 136, 71, 27, 27]
33.773[29, 95, 87, 247, 157, 61, 23, 27]
33.796[28, 72, 91, 216, 141, 59, 23, 24]
33.812[26, 69, 94, 204, 154, 60, 27, 27]
33.833[29, 70, 79, 187, 162, 61, 30, 27]
33.856[31, 69, 85, 193, 175, 68, 29, 29]
33.872[31, 67, 88, 210, 195, 102, 34, 29]
33.893[35, 84, 89, 217, 215, 113, 37, 32]
33.916[37, 94, 99, 230, 212, 115, 37, 31]
33.932[36, 92, 102, 234, 211, 112, 35, 31]
33.953[34, 92, 99, 220, 195, 109, 34, 28]
33.976[34, 90, 102, 228, 181, 83, 30, 25]
33.992[34, 75, 102, 221, 170, 67, 27, 23]
34.013[33, 63, 94, 205, 167, 74, 26, 26]
34.036[34, 66, 93, 196, 163, 73, 28, 28]
34.052[35, 74, 96, 230, 172, 71, 29, 28]
34.073[41, 119, 101, 287, 163, 70, 29, 29]
34.096[41, 117, 106, 393, 168, 82, 36, 31]
34.112[39, 121, 104, 400, 158, 70, 35, 28]
34.133[40, 125, 103, 415, 160, 73, 37, 30]
34.156[41, 122, 117, 422, 161, 81, 36, 30]
34.172[36, 79, 113, 386, 199, 89, 40, 30]
34.194[38, 85, 124, 328, 199, 84, 35, 30]
34.216[37, 84, 137, 367, 210, 97, 38, 30]
34.24[35, 83, 148, 357, 222, 101, 35, 26]
34.253[35, 81, 136, 345, 223, 111, 36, 26]
34.276[35, 82, 140, 333, 186, 110, 31, 28]
34.292[32, 78, 129, 292, 194, 116, 34, 26]
34.313[34, 72, 112, 233, 188, 106, 31, 25]
34.336[34, 67, 103, 254, 180, 103, 32, 27]
34.359[35, 64, 104, 239, 171, 92, 33, 28]
34.373[43, 90, 129, 251, 184, 90, 35, 31]
34.396[42, 96, 139, 273, 188, 75, 32, 33]
34.418[42, 100, 154, 289, 199, 79, 34, 34]
34.433[49, 120, 162, 266, 199, 77, 34, 33]
34.456[48, 124, 166, 272, 213, 83, 34, 32]
34.486[44, 112, 143, 303, 199, 78, 33, 29]
34.493[44, 106, 133, 300, 183, 80, 35, 27]
34.517[43, 102, 122, 292, 176, 77, 33, 26]
34.538[34, 79, 111, 286, 165, 74, 30, 24]
34.553[36, 81, 108, 303, 167, 66, 28, 25]
34.576[31, 69, 105, 285, 158, 62, 27, 26]
34.599[32, 85, 107, 300, 179, 57, 26, 28]
34.613[33, 86, 110, 321, 182, 67, 27, 27]
34.636[39, 109, 132, 375, 229, 99, 31, 28]
34.658[37, 107, 130, 365, 215, 98, 30, 27]
34.673[39, 110, 132, 344, 220, 100, 30, 27]
34.696[38, 97, 129, 303, 205, 111, 32, 25]
34.718[44, 101, 134, 280, 217, 155, 35, 30]
34.733[38, 80, 107, 212, 208, 156, 34, 28]
34.756[40, 73, 106, 237, 219, 157, 35, 30]
34.778[38, 68, 102, 235, 217, 157, 35, 27]
34.793[36, 75, 99, 247, 216, 155, 30, 27]
34.817[29, 76, 77, 232, 192, 109, 28, 22]
34.838[30, 70, 96, 237, 159, 84, 29, 25]
34.853[30, 72, 104, 212, 150, 76, 28, 25]
34.876[30, 75, 118, 255, 160, 75, 29, 25]
34.898[33, 87, 128, 253, 156, 65, 32, 25]
34.913[35, 79, 131, 261, 169, 60, 32, 26]
34.936[32, 75, 117, 251, 161, 62, 30, 25]
34.958[31, 81, 105, 236, 149, 62, 29, 23]
34.973[34, 84, 110, 188, 139, 57, 29, 27]
34.996[31, 72, 103, 185, 130, 53, 26, 27]
35.018[29, 72, 105, 194, 115, 47, 25, 26]
35.033[29, 75, 119, 288, 114, 40, 25, 25]
35.056[27, 68, 123, 296, 113, 43, 28, 27]
35.078[25, 62, 108, 286, 116, 47, 29, 25]
35.094[27, 61, 102, 277, 110, 47, 30, 27]
35.116[30, 72, 104, 276, 101, 48, 31, 27]
35.138[32, 91, 102, 196, 117, 50, 32, 27]
35.153[32, 94, 104, 195, 115, 49, 32, 43]
35.176[31, 100, 99, 198, 131, 47, 32, 52]
35.198[31, 100, 102, 203, 127, 47, 32, 53]
35.213[35, 97, 99, 209, 141, 44, 28, 55]
35.236[32, 74, 84, 198, 137, 43, 29, 56]
35.258[31, 72, 76, 222, 154, 45, 28, 45]
35.281[32, 67, 76, 223, 152, 54, 25, 31]
35.296[31, 62, 73, 216, 168, 60, 24, 29]
35.318[23, 58, 70, 221, 160, 60, 26, 23]
35.341[26, 75, 69, 206, 150, 57, 24, 23]
35.356[26, 69, 65, 197, 146, 54, 23, 21]
35.378[23, 65, 83, 207, 130, 44, 22, 21]
35.401[23, 67, 82, 207, 112, 36, 22, 23]
35.417[24, 70, 84, 203, 114, 37, 24, 23]
35.438[24, 59, 83, 222, 115, 37, 23, 26]
35.461[24, 60, 88, 202, 102, 51, 24, 26]
35.476[25, 60, 80, 235, 119, 64, 26, 26]
35.498[28, 60, 88, 238, 120, 68, 27, 24]
35.521[28, 75, 95, 245, 124, 72, 25, 25]
35.536[27, 73, 96, 232, 130, 77, 27, 20]
35.558[27, 77, 97, 234, 140, 72, 26, 21]
35.581[30, 80, 94, 196, 126, 62, 26, 25]
35.596[30, 82, 102, 217, 141, 61, 25, 26]
35.618[41, 138, 97, 211, 158, 70, 28, 28]
35.641[43, 143, 109, 235, 176, 67, 29, 30]
35.656[44, 142, 119, 241, 189, 67, 31, 32]
35.678[49, 152, 142, 258, 200, 68, 30, 32]
35.701[52, 175, 148, 261, 209, 68, 32, 35]
35.716[45, 146, 156, 257, 200, 53, 30, 33]
35.739[42, 141, 152, 251, 194, 52, 28, 32]
35.761[42, 148, 146, 252, 173, 55, 30, 32]
35.776[35, 137, 121, 246, 161, 53, 29, 29]
35.798[30, 107, 108, 251, 132, 52, 28, 25]
35.821[26, 83, 93, 244, 134, 52, 29, 27]
35.836[28, 94, 102, 306, 122, 57, 31, 29]
35.858[29, 94, 121, 319, 129, 54, 27, 27]
35.881[31, 114, 133, 323, 133, 59, 27, 28]
35.904[33, 121, 144, 340, 159, 84, 29, 31]
35.918[33, 118, 146, 355, 154, 84, 28, 30]
35.941[40, 108, 135, 301, 163, 85, 28, 29]
35.956[40, 98, 123, 304, 187, 86, 30, 29]
35.978[41, 106, 115, 316, 193, 92, 29, 28]
36.001[41, 110, 103, 290, 187, 86, 27, 26]
36.024[43, 110, 120, 279, 192, 85, 26, 26]
36.046[36, 110, 118, 285, 191, 83, 28, 25]
36.061[39, 116, 123, 272, 225, 107, 31, 28]
36.076[38, 103, 129, 262, 226, 106, 32, 28]
36.098[45, 117, 130, 250, 226, 98, 33, 31]
36.121[44, 118, 113, 251, 219, 100, 33, 30]
36.136[44, 118, 114, 235, 218, 101, 29, 29]
36.158[44, 115, 106, 238, 164, 77, 27, 28]
36.181[41, 108, 92, 209, 150, 73, 28, 27]
36.205[31, 71, 84, 218, 133, 68, 25, 24]
36.218[34, 72, 81, 208, 143, 66, 26, 23]
36.241[35, 84, 86, 216, 153, 74, 29, 24]
36.264[31, 89, 82, 217, 149, 69, 26, 22]
36.278[35, 88, 88, 232, 158, 67, 25, 21]
36.301[34, 90, 84, 217, 155, 65, 23, 22]
36.324[32, 106, 98, 203, 180, 69, 25, 24]
36.338[30, 96, 97, 197, 161, 61, 24, 24]
36.361[33, 93, 101, 217, 168, 70, 24, 24]
36.384[30, 87, 95, 197, 160, 67, 25, 25]
36.398[39, 94, 115, 210, 171, 71, 28, 30]
36.421[37, 72, 103, 215, 162, 69, 25, 29]
36.444[36, 78, 101, 201, 162, 69, 25, 29]
36.458[38, 80, 107, 155, 186, 70, 32, 33]
36.481[40, 96, 119, 149, 188, 67, 32, 34]
36.504[45, 123, 115, 166, 186, 62, 34, 33]
36.518[46, 127, 113, 158, 192, 62, 34, 33]
36.541[53, 125, 118, 168, 203, 75, 39, 36]
36.564[50, 124, 121, 177, 217, 85, 38, 33]
36.578[51, 118, 126, 222, 230, 87, 40, 36]
36.601[40, 95, 116, 226, 228, 88, 36, 31]
36.624[40, 104, 129, 230, 204, 88, 37, 31]
36.639[32, 105, 128, 226, 196, 84, 35, 28]
36.661[33, 101, 124, 222, 145, 68, 31, 28]
36.684[31, 111, 115, 201, 131, 66, 30, 23]
36.698[32, 105, 111, 189, 128, 65, 31, 24]
36.721[33, 106, 109, 188, 141, 64, 32, 26]
36.744[36, 119, 113, 197, 152, 48, 28, 25]
36.758[38, 135, 125, 189, 160, 74, 31, 25]
36.781[37, 129, 117, 175, 158, 78, 28, 24]
36.804[36, 135, 132, 164, 157, 80, 26, 24]
36.818[36, 136, 138, 238, 177, 79, 25, 23]
36.841[35, 128, 134, 249, 171, 88, 27, 23]
36.864[31, 107, 118, 257, 161, 63, 26, 22]
36.878[31, 110, 124, 249, 162, 61, 27, 24]
36.901[32, 128, 116, 267, 167, 58, 27, 24]
36.924[37, 130, 130, 237, 150, 64, 30, 26]
36.938[35, 125, 133, 230, 145, 57, 28, 28]
36.961[36, 132, 137, 241, 190, 80, 28, 28]
36.984[36, 128, 132, 244, 185, 78, 28, 27]
36.998[43, 116, 146, 319, 230, 97, 32, 29]
37.021[42, 112, 137, 313, 258, 100, 29, 28]
37.044[51, 127, 142, 323, 261, 117, 32, 26]
37.066[51, 130, 137, 307, 230, 101, 31, 25]
37.081[57, 140, 143, 320, 233, 106, 33, 29]
37.104[54, 126, 127, 241, 188, 92, 32, 28]
37.118[52, 123, 118, 217, 142, 86, 32, 26]
37.141[47, 116, 108, 209, 152, 62, 32, 28]
37.164[45, 109, 106, 206, 147, 62, 31, 28]
37.186[47, 113, 115, 250, 162, 68, 33, 29]
37.201[45, 112, 108, 235, 158, 63, 31, 28]
37.224[51, 130, 116, 268, 155, 61, 31, 31]
37.246[50, 129, 121, 335, 139, 59, 29, 30]
37.261[50, 127, 120, 350, 154, 79, 31, 33]
37.284[50, 120, 112, 323, 160, 78, 27, 33]
37.306[50, 121, 111, 328, 161, 79, 29, 34]
37.321[46, 99, 99, 305, 157, 80, 28, 32]
37.344[50, 115, 107, 214, 158, 79, 26, 34]
37.366[58, 127, 132, 347, 243, 83, 35, 36]
37.381[53, 116, 131, 354, 244, 82, 35, 36]
37.404[56, 123, 138, 365, 255, 93, 35, 36]
37.426[52, 120, 132, 368, 259, 96, 35, 34]
37.442[49, 102, 121, 375, 282, 97, 37, 34]
37.464[44, 99, 103, 270, 211, 83, 30, 29]
37.486[40, 101, 93, 241, 207, 75, 27, 23]
37.501[35, 102, 87, 226, 212, 61, 25, 23]
37.524[38, 102, 90, 228, 210, 64, 25, 24]
37.547[36, 108, 86, 226, 194, 65, 26, 24]
37.561[28, 95, 100, 188, 199, 65, 25, 24]
37.584[30, 96, 116, 218, 181, 66, 25, 24]
37.607[30, 88, 120, 217, 166, 74, 25, 25]
37.621[28, 85, 117, 200, 161, 71, 24, 24]
37.652[25, 78, 117, 187, 133, 67, 21, 22]
37.666[30, 81, 115, 200, 113, 65, 22, 24]
37.681[30, 79, 109, 174, 138, 66, 23, 24]
37.704[30, 72, 102, 159, 125, 54, 23, 24]
37.726[32, 70, 104, 172, 131, 49, 25, 26]
37.741[32, 81, 108, 183, 133, 51, 25, 27]
37.764[28, 108, 100, 179, 145, 50, 23, 26]
37.786[25, 106, 91, 177, 126, 51, 23, 26]
37.801[30, 113, 109, 187, 135, 74, 25, 28]
37.824[26, 115, 108, 180, 129, 75, 23, 26]
37.847[32, 118, 124, 206, 145, 75, 24, 26]
37.861[32, 89, 113, 197, 133, 74, 25, 25]
37.884[36, 96, 132, 229, 140, 76, 25, 27]
37.907[33, 94, 124, 240, 139, 59, 23, 26]
37.921[36, 104, 126, 240, 141, 58, 24, 26]
37.944[36, 90, 107, 237, 139, 61, 23, 25]
37.966[35, 92, 109, 238, 140, 64, 24, 26]
37.981[35, 104, 94, 212, 135, 60, 25, 26]
38.004[35, 112, 89, 184, 136, 58, 24, 23]
38.026[32, 104, 82, 187, 141, 56, 23, 23]
38.041[37, 118, 92, 188, 127, 52, 23, 25]
38.065[37, 120, 88, 187, 128, 50, 22, 24]
38.086[37, 106, 87, 204, 138, 52, 25, 26]
38.109[36, 97, 89, 213, 129, 51, 24, 26]
38.124[43, 116, 105, 213, 131, 50, 27, 31]
38.146[35, 99, 93, 178, 129, 48, 27, 29]
38.169[36, 100, 99, 197, 137, 49, 26, 30]
38.184[36, 107, 101, 181, 151, 52, 25, 28]
38.206[38, 109, 101, 183, 180, 70, 26, 32]
38.229[35, 92, 111, 186, 171, 71, 25, 29]
38.244[33, 96, 115, 195, 182, 86, 25, 29]
38.266[50, 127, 142, 179, 179, 92, 26, 33]
38.289[88, 122, 142, 185, 158, 92, 27, 45]
38.304[94, 119, 140, 176, 126, 82, 27, 48]
38.326[97, 138, 152, 182, 124, 81, 25, 48]
38.349[98, 145, 156, 184, 122, 69, 26, 49]
38.364[91, 126, 131, 189, 121, 64, 25, 45]
38.386[57, 123, 126, 195, 131, 62, 23, 37]
38.409[47, 132, 142, 201, 149, 64, 23, 30]
38.424[40, 111, 120, 215, 159, 74, 27, 33]
38.446[46, 124, 116, 218, 168, 75, 28, 31]
38.469[46, 121, 120, 217, 179, 75, 28, 31]
38.484[44, 127, 125, 200, 170, 76, 27, 30]
38.507[47, 129, 119, 222, 165, 74, 26, 30]
38.528[46, 134, 123, 243, 200, 85, 25, 28]
38.545[45, 123, 123, 237, 186, 83, 24, 30]
38.574[50, 124, 123, 233, 191, 84, 23, 32]
38.589[50, 128, 134, 243, 193, 90, 28, 30]
38.605[49, 118, 126, 224, 186, 87, 27, 30]
38.627[48, 116, 117, 172, 142, 65, 26, 30]
38.648[43, 118, 119, 174, 142, 66, 27, 29]
38.665[37, 118, 116, 189, 113, 66, 28, 26]
38.687[37, 119, 110, 191, 131, 54, 26, 26]
38.708[37, 133, 110, 200, 143, 55, 29, 27]
38.725[34, 129, 104, 200, 142, 58, 28, 25]
38.747[32, 113, 95, 197, 147, 53, 26, 25]
38.768[33, 114, 110, 198, 158, 52, 25, 25]
38.785[33, 106, 97, 177, 136, 53, 22, 24]
38.807[37, 105, 114, 176, 127, 56, 29, 25]
38.828[40, 104, 122, 216, 174, 59, 31, 27]
38.845[41, 105, 122, 216, 170, 58, 32, 27]
38.868[50, 96, 116, 260, 180, 63, 35, 30]
38.888[50, 98, 117, 273, 182, 64, 35, 29]
38.905[46, 102, 140, 284, 190, 72, 32, 33]
38.926[55, 133, 142, 255, 153, 67, 29, 54]
38.948[56, 135, 146, 263, 155, 70, 28, 56]
38.965[46, 134, 143, 202, 136, 64, 27, 54]
38.986[49, 131, 147, 234, 169, 64, 28, 55]
39.008[51, 111, 106, 215, 170, 52, 24, 58]
39.025[48, 74, 89, 224, 167, 60, 27, 48]
39.046[48, 76, 88, 221, 183, 63, 27, 48]
39.068[56, 74, 80, 232, 188, 59, 27, 55]
39.09[57, 74, 83, 195, 164, 58, 27, 56]
39.106[59, 71, 83, 196, 155, 55, 26, 52]
39.128[53, 67, 87, 196, 153, 45, 24, 43]
39.151[52, 63, 83, 184, 134, 44, 24, 39]
39.166[51, 73, 87, 175, 135, 48, 22, 30]
39.188[51, 78, 93, 165, 141, 52, 27, 28]
39.211[46, 79, 98, 163, 147, 52, 26, 25]
39.226[45, 83, 96, 160, 161, 54, 27, 26]
39.248[46, 83, 95, 173, 178, 55, 27, 26]
39.271[46, 79, 99, 175, 169, 53, 32, 29]
39.286[46, 90, 85, 168, 157, 48, 27, 28]
39.308[47, 97, 96, 153, 155, 49, 28, 29]
39.331[49, 96, 97, 153, 136, 52, 27, 28]
39.346[52, 101, 108, 174, 113, 52, 27, 31]
39.368[44, 102, 102, 179, 110, 49, 23, 28]
39.391[40, 94, 103, 207, 108, 49, 23, 26]
39.406[37, 108, 93, 215, 95, 51, 21, 27]
39.428[38, 107, 108, 222, 108, 53, 22, 29]
39.451[35, 104, 100, 212, 112, 46, 24, 26]
39.466[36, 106, 112, 249, 142, 53, 25, 27]
39.488[38, 100, 115, 252, 150, 52, 25, 27]
39.511[36, 91, 113, 261, 150, 58, 26, 28]
39.526[35, 92, 98, 247, 150, 55, 25, 25]
39.548[46, 141, 178, 237, 193, 63, 27, 29]
39.571[44, 140, 179, 190, 179, 59, 25, 27]
39.585[42, 140, 178, 163, 179, 58, 27, 27]
39.608[43, 133, 177, 140, 173, 49, 28, 24]
39.631[47, 157, 182, 217, 178, 51, 27, 23]
39.646[39, 123, 109, 214, 122, 40, 25, 23]
39.669[43, 123, 102, 228, 126, 55, 30, 25]
39.69[44, 123, 101, 222, 120, 60, 29, 26]
39.706[46, 127, 113, 234, 133, 63, 31, 27]
39.728[46, 103, 120, 189, 135, 60, 31, 29]
39.751[41, 97, 117, 188, 137, 60, 31, 25]
39.773[47, 130, 117, 203, 127, 47, 26, 26]
39.788[46, 131, 112, 201, 123, 38, 25, 24]
39.811[46, 127, 105, 218, 131, 45, 24, 24]
39.826[42, 125, 83, 229, 124, 42, 25, 22]
39.848[45, 124, 87, 245, 145, 47, 27, 24]
39.87[37, 113, 80, 226, 141, 48, 26, 21]
39.886[40, 116, 84, 228, 175, 53, 27, 25]
39.908[35, 111, 73, 193, 165, 44, 25, 24]
39.93[34, 103, 71, 160, 160, 44, 24, 23]
39.946[31, 97, 61, 132, 142, 41, 23, 22]
39.976[26, 70, 64, 142, 164, 44, 23, 24]
39.99[25, 75, 62, 154, 142, 44, 22, 19]
40.013[30, 80, 62, 160, 134, 48, 23, 21]
40.029[33, 89, 71, 153, 132, 50, 22, 23]
40.05[30, 90, 75, 159, 143, 51, 22, 22]
40.073[31, 88, 71, 143, 122, 46, 22, 21]
40.088[34, 93, 72, 145, 109, 49, 23, 23]
40.11[34, 112, 85, 135, 121, 49, 23, 21]
40.133[35, 107, 85, 136, 137, 47, 26, 23]
40.148[36, 107, 86, 144, 139, 69, 26, 25]
40.17[36, 111, 84, 154, 136, 72, 29, 27]
40.193[32, 104, 92, 170, 132, 70, 28, 25]
40.208[28, 86, 84, 183, 161, 74, 30, 26]
40.231[24, 91, 84, 182, 149, 77, 29, 25]
40.253[24, 99, 81, 196, 137, 62, 29, 24]
40.268[24, 92, 81, 186, 144, 60, 28, 24]
40.29[27, 88, 85, 171, 163, 61, 31, 26]
40.313[28, 87, 93, 173, 146, 64, 32, 26]
40.328[29, 101, 93, 188, 159, 67, 31, 24]
40.351[29, 96, 101, 171, 162, 67, 32, 24]
40.373[30, 90, 104, 188, 167, 69, 32, 22]
40.388[28, 88, 93, 190, 157, 69, 30, 21]
40.413[28, 93, 87, 186, 155, 70, 27, 20]
40.433[27, 71, 105, 181, 143, 77, 27, 20]
40.45[30, 69, 114, 186, 143, 74, 26, 20]
40.471[30, 73, 112, 168, 141, 71, 26, 24]
40.493[38, 89, 122, 168, 141, 69, 27, 27]
40.508[37, 77, 117, 162, 119, 64, 26, 26]
40.531[36, 78, 106, 175, 113, 49, 24, 27]
40.553[33, 94, 95, 175, 106, 51, 24, 28]
40.568[33, 111, 93, 171, 111, 54, 24, 26]
40.591[25, 101, 84, 188, 112, 53, 23, 22]
40.613[27, 113, 88, 204, 128, 50, 24, 22]
40.628[29, 115, 85, 188, 135, 51, 27, 22]
40.651[28, 103, 77, 174, 144, 45, 27, 21]
40.673[29, 88, 79, 188, 125, 43, 26, 20]
40.689[26, 87, 82, 170, 119, 45, 24, 20]
40.711[28, 77, 97, 174, 128, 50, 26, 23]
40.733[27, 83, 93, 171, 122, 53, 23, 23]
40.749[28, 88, 99, 177, 123, 59, 22, 21]
40.77[28, 83, 99, 169, 132, 58, 23, 20]
40.793[32, 93, 107, 188, 131, 57, 25, 22]
40.816[29, 91, 89, 194, 125, 53, 25, 21]
40.831[30, 115, 91, 194, 134, 49, 26, 21]
40.853[32, 113, 95, 200, 131, 50, 26, 25]
40.868[32, 118, 95, 195, 126, 51, 28, 26]
40.89[28, 107, 80, 168, 127, 49, 26, 24]
40.913[28, 108, 78, 132, 116, 49, 26, 23]
40.936[26, 71, 74, 126, 112, 57, 26, 22]
40.951[33, 100, 78, 109, 108, 54, 27, 20]
40.973[33, 109, 84, 110, 107, 52, 26, 20]
40.996[36, 112, 111, 114, 137, 57, 29, 23]
41.019[35, 112, 119, 112, 133, 56, 28, 23]
41.033[41, 123, 129, 190, 130, 49, 31, 27]
41.057[34, 107, 126, 193, 124, 46, 29, 26]
41.071[36, 99, 145, 207, 129, 52, 29, 28]
41.093[34, 107, 128, 220, 163, 55, 25, 26]
41.117[34, 105, 126, 234, 181, 54, 28, 26]
41.131[27, 96, 120, 219, 205, 53, 22, 20]
41.153[32, 89, 121, 239, 206, 60, 23, 22]
41.177[33, 86, 97, 244, 205, 58, 22, 21]
41.191[31, 72, 96, 247, 176, 54, 23, 22]
41.213[33, 81, 88, 243, 157, 53, 20, 23]
41.237[34, 86, 94, 218, 135, 53, 24, 26]
41.25[33, 87, 100, 201, 157, 69, 26, 25]
41.273[30, 88, 92, 200, 162, 67, 26, 23]
41.296[31, 88, 98, 191, 140, 67, 27, 23]
41.31[31, 82, 113, 264, 152, 71, 31, 27]
41.333[31, 72, 105, 263, 147, 73, 30, 26]
41.356[28, 64, 91, 258, 122, 57, 28, 26]
41.371[26, 57, 89, 255, 112, 59, 27, 27]
41.401[25, 57, 87, 247, 130, 59, 26, 26]
41.417[24, 57, 70, 158, 122, 54, 20, 23]
41.439[25, 68, 73, 145, 113, 51, 18, 21]
41.453[25, 77, 90, 168, 118, 54, 21, 22]
41.476[26, 78, 98, 159, 116, 52, 20, 20]
41.491[27, 76, 89, 146, 89, 46, 19, 22]
41.513[25, 72, 84, 137, 78, 46, 21, 21]
41.536[22, 57, 78, 133, 74, 42, 21, 21]
41.551[22, 50, 57, 93, 67, 29, 20, 20]
41.573[26, 61, 40, 59, 55, 22, 23, 21]
41.596[27, 64, 56, 57, 53, 25, 23, 20]
41.611[29, 94, 69, 55, 46, 22, 23, 21]
41.633[31, 116, 102, 53, 45, 26, 25, 22]
41.656[33, 118, 106, 50, 37, 24, 23, 22]
41.679[31, 122, 112, 46, 36, 24, 21, 23]
41.693[30, 125, 104, 47, 33, 23, 22, 23]
41.716[28, 112, 96, 49, 52, 23, 20, 23]
41.73[27, 99, 74, 42, 52, 25, 21, 21]
41.753[25, 92, 68, 41, 58, 27, 23, 21]
41.776[25, 87, 61, 40, 59, 28, 30, 19]
41.791[26, 91, 68, 62, 125, 29, 33, 18]
41.813[26, 89, 68, 58, 121, 29, 33, 18]
41.837[26, 78, 52, 60, 126, 24, 33, 18]
41.851[25, 85, 69, 62, 126, 24, 31, 18]
41.873[24, 73, 67, 61, 126, 25, 23, 17]
41.896[22, 65, 59, 36, 64, 21, 20, 19]
41.919[21, 53, 58, 39, 61, 22, 21, 18]
41.933[20, 61, 58, 32, 52, 21, 18, 18]
41.956[22, 68, 35, 28, 47, 22, 20, 17]
41.979[21, 74, 30, 27, 39, 19, 19, 18]
41.993[21, 71, 30, 27, 38, 21, 18, 18]
42.016[23, 69, 30, 21, 35, 20, 16, 18]
42.039[23, 63, 28, 23, 33, 20, 18, 19]
42.053[22, 53, 26, 22, 29, 19, 16, 20]
42.084[23, 50, 30, 23, 29, 20, 19, 20]
42.099[23, 49, 44, 23, 27, 19, 24, 19]
42.113[22, 49, 47, 23, 23, 21, 28, 20]
42.137[22, 51, 48, 23, 20, 20, 26, 19]
42.159[23, 42, 47, 22, 20, 25, 27, 18]
42.173[19, 37, 46, 20, 20, 24, 25, 19]
42.197[21, 36, 35, 20, 19, 25, 20, 18]
42.219[20, 36, 30, 19, 18, 23, 16, 17]
42.233[21, 25, 27, 18, 21, 23, 15, 18]
42.256[19, 22, 28, 20, 21, 21, 15, 19]
42.286[20, 21, 22, 20, 29, 21, 17, 21]
42.293[21, 21, 18, 20, 32, 21, 16, 21]
42.316[22, 21, 18, 20, 46, 26, 18, 21]
42.339[22, 24, 25, 21, 67, 32, 20, 21]
42.353[23, 28, 26, 19, 69, 34, 20, 21]
42.376[24, 27, 26, 19, 69, 34, 21, 18]
42.398[22, 27, 27, 21, 71, 35, 22, 18]
42.413[21, 27, 27, 21, 73, 33, 20, 19]
42.436[21, 26, 21, 21, 55, 33, 20, 19]
42.459[20, 25, 22, 22, 70, 39, 20, 20]
42.473[28, 52, 28, 27, 80, 62, 38, 56]
42.496[30, 65, 29, 31, 85, 67, 55, 122]
42.519[31, 67, 32, 31, 96, 68, 58, 129]
42.533[31, 68, 32, 33, 143, 72, 58, 132]
42.557[33, 74, 33, 33, 145, 77, 59, 134]
42.579[26, 60, 31, 31, 149, 63, 51, 124]
42.593[24, 47, 29, 27, 150, 67, 35, 64]
42.617[25, 46, 26, 28, 162, 71, 49, 51]
42.639[25, 44, 26, 26, 131, 67, 49, 44]
42.653[21, 33, 24, 26, 123, 60, 49, 40]
42.676[24, 30, 22, 23, 116, 56, 47, 34]
42.699[22, 27, 21, 23, 126, 48, 45, 28]
42.713[20, 24, 20, 23, 100, 45, 26, 23]
42.736[23, 25, 20, 23, 101, 41, 25, 22]
42.759[23, 30, 22, 23, 98, 38, 23, 20]
42.773[21, 29, 21, 22, 94, 39, 23, 21]
42.796[22, 28, 23, 21, 73, 35, 24, 19]
42.819[22, 29, 23, 19, 67, 30, 22, 19]
42.842[18, 28, 23, 19, 46, 28, 19, 18]
42.856[19, 21, 21, 19, 44, 29, 18, 20]
42.879[18, 22, 22, 19, 41, 26, 17, 18]
42.901[18, 28, 23, 20, 40, 24, 17, 18]
42.916[18, 27, 25, 21, 67, 29, 18, 17]
42.946[22, 26, 24, 22, 72, 32, 29, 82]
42.961[22, 26, 27, 24, 73, 35, 52, 127]
42.976[24, 26, 26, 24, 72, 35, 53, 133]
42.999[25, 20, 24, 23, 69, 35, 55, 138]
43.021[26, 22, 23, 21, 47, 32, 56, 140]
43.036[23, 23, 25, 19, 35, 27, 52, 115]
43.059[22, 21, 22, 17, 31, 24, 30, 65]
43.081[20, 27, 25, 16, 35, 26, 28, 54]
43.097[17, 27, 26, 17, 34, 25, 24, 41]
43.119[18, 26, 25, 18, 39, 27, 21, 33]
43.141[18, 26, 25, 19, 42, 28, 23, 30]
43.156[19, 27, 24, 18, 42, 24, 20, 24]
43.179[19, 20, 21, 18, 41, 24, 19, 25]
43.201[19, 19, 20, 20, 42, 24, 22, 24]
43.217[17, 18, 21, 20, 35, 22, 23, 22]
43.239[17, 26, 24, 19, 32, 22, 22, 22]
43.261[16, 30, 25, 19, 36, 24, 22, 22]
43.277[17, 31, 26, 21, 33, 25, 23, 18]
43.299[17, 31, 28, 20, 32, 24, 22, 17]
43.321[19, 31, 27, 21, 34, 23, 22, 18]
43.336[18, 26, 24, 23, 35, 25, 21, 16]
43.359[20, 20, 23, 23, 32, 22, 22, 17]
43.381[20, 19, 25, 22, 33, 21, 21, 18]
43.396[21, 22, 31, 23, 33, 24, 21, 18]
43.419[20, 23, 31, 21, 29, 23, 20, 17]
43.441[19, 24, 30, 21, 32, 22, 22, 19]
43.456[18, 24, 32, 22, 31, 24, 21, 17]
43.479[18, 25, 29, 22, 31, 22, 20, 20]
43.501[17, 22, 20, 22, 30, 20, 21, 21]
43.516[19, 24, 22, 24, 35, 24, 21, 22]
43.539[20, 24, 24, 22, 33, 24, 18, 21]
43.561[21, 29, 25, 21, 31, 22, 21, 23]
43.576[21, 28, 26, 21, 30, 23, 20, 21]
43.599[22, 29, 26, 20, 31, 25, 20, 21]
43.62[21, 28, 26, 20, 30, 26, 21, 22]
43.643[20, 27, 24, 20, 32, 25, 23, 23]
43.659[19, 22, 20, 22, 34, 27, 20, 21]
43.68[19, 21, 19, 21, 35, 28, 23, 20]
43.703[17, 21, 21, 21, 36, 26, 21, 20]
43.719[19, 19, 22, 20, 36, 26, 22, 19]
43.74[19, 20, 21, 19, 34, 25, 21, 15]
43.763[19, 19, 22, 17, 34, 24, 23, 15]
43.779[21, 24, 25, 20, 34, 21, 24, 19]
43.801[22, 25, 23, 21, 37, 22, 24, 19]
43.823[21, 25, 22, 21, 33, 18, 24, 19]
43.839[22, 25, 22, 21, 33, 22, 25, 24]
43.86[21, 28, 23, 21, 33, 23, 23, 23]
43.883[21, 25, 18, 18, 33, 25, 22, 21]
43.9[21, 24, 18, 17, 31, 25, 25, 22]
43.92[22, 23, 18, 17, 30, 25, 23, 21]
43.943[19, 22, 20, 19, 30, 24, 23, 18]
43.96[19, 18, 19, 20, 29, 24, 22, 19]
43.981[18, 20, 22, 20, 27, 23, 22, 20]
44.003[17, 22, 22, 20, 34, 28, 21, 17]
44.019[16, 21, 23, 20, 36, 28, 22, 18]
44.04[19, 23, 21, 18, 36, 26, 21, 17]
44.07[19, 23, 21, 17, 39, 26, 21, 17]
44.079[18, 21, 20, 18, 44, 30, 18, 16]
44.101[18, 20, 20, 19, 37, 25, 18, 18]
44.123[17, 22, 20, 19, 37, 26, 17, 18]
44.139[17, 26, 22, 20, 41, 27, 17, 20]
44.16[17, 27, 24, 21, 43, 28, 18, 20]
44.184[18, 27, 24, 22, 41, 24, 18, 21]
44.199[17, 27, 23, 24, 47, 25, 17, 20]
44.22[18, 27, 23, 25, 48, 28, 18, 19]
44.243[18, 27, 24, 26, 45, 29, 19, 18]
44.259[20, 27, 22, 24, 41, 27, 18, 19]
44.281[21, 28, 21, 23, 40, 27, 19, 19]
44.303[21, 27, 23, 22, 40, 29, 19, 20]
44.32[21, 29, 25, 20, 37, 24, 20, 22]
44.341[20, 24, 21, 18, 38, 23, 19, 21]
44.363[18, 24, 22, 19, 37, 24, 20, 19]
44.379[16, 23, 21, 20, 37, 27, 19, 19]
44.4[17, 24, 20, 20, 29, 25, 18, 18]
44.423[15, 25, 22, 20, 28, 25, 15, 15]
44.439[20, 26, 22, 20, 30, 24, 20, 17]
44.461[20, 27, 22, 19, 29, 23, 19, 18]
44.483[22, 27, 23, 17, 27, 22, 21, 20]
44.499[23, 27, 23, 18, 29, 22, 21, 19]
44.52[23, 23, 21, 18, 32, 23, 22, 19]
44.543[19, 22, 20, 20, 31, 23, 18, 18]
44.558[18, 24, 24, 21, 34, 25, 19, 17]
44.58[19, 25, 24, 21, 34, 24, 17, 17]
44.603[16, 26, 25, 20, 33, 23, 19, 18]
44.618[17, 27, 25, 18, 35, 23, 18, 19]
44.64[17, 27, 26, 19, 35, 25, 19, 19]
44.664[18, 26, 23, 19, 38, 27, 20, 21]
44.678[18, 25, 23, 22, 40, 27, 20, 21]
44.708[19, 25, 26, 23, 40, 27, 20, 20]
44.723[21, 25, 24, 23, 37, 27, 21, 20]
44.745[20, 26, 25, 22, 40, 26, 21, 20]
44.761[21, 25, 24, 23, 35, 24, 20, 19]
44.783[18, 24, 24, 21, 31, 24, 21, 18]
44.805[18, 25, 23, 19, 32, 26, 21, 20]
44.82[17, 25, 22, 19, 36, 25, 20, 20]
44.851[18, 26, 22, 21, 36, 25, 20, 19]
44.865[20, 24, 23, 19, 35, 23, 19, 18]
44.881[20, 26, 23, 18, 38, 27, 19, 18]
44.903[21, 29, 24, 21, 40, 26, 19, 17]
44.926[20, 29, 25, 20, 35, 25, 19, 18]
44.94[22, 28, 26, 18, 31, 23, 20, 19]
44.963[19, 30, 25, 20, 33, 25, 22, 21]
44.986[23, 29, 24, 21, 31, 23, 22, 24]
45.001[22, 22, 21, 19, 30, 23, 20, 24]
45.023[23, 24, 22, 19, 32, 24, 21, 22]
45.046[22, 29, 22, 22, 36, 25, 20, 25]
45.062[23, 30, 22, 21, 37, 27, 18, 26]
45.083[21, 29, 22, 20, 39, 26, 19, 22]
45.105[20, 31, 22, 22, 36, 24, 18, 23]
45.12[22, 31, 20, 23, 37, 23, 17, 25]
45.143[20, 27, 19, 22, 37, 29, 17, 23]
45.166[20, 29, 24, 23, 35, 27, 19, 20]
45.182[23, 29, 24, 23, 31, 25, 18, 20]
45.203[24, 29, 24, 21, 32, 26, 20, 18]
45.225[23, 30, 27, 21, 32, 27, 21, 17]
45.241[23, 32, 28, 20, 33, 21, 23, 15]
45.263[22, 29, 24, 19, 33, 21, 22, 17]
45.286[19, 29, 24, 20, 34, 22, 22, 20]
45.3[19, 29, 24, 21, 35, 25, 21, 20]
45.323[20, 27, 22, 19, 36, 25, 20, 21]
45.345[21, 26, 23, 20, 34, 25, 16, 21]
45.361[21, 26, 25, 19, 34, 25, 18, 20]
45.383[19, 27, 26, 18, 34, 25, 19, 19]
45.406[19, 30, 27, 17, 34, 25, 18, 19]
45.42[18, 29, 26, 19, 28, 24, 20, 18]
45.443[19, 29, 25, 18, 27, 24, 20, 20]
45.466[19, 30, 23, 20, 27, 23, 17, 19]
45.481[19, 34, 25, 22, 28, 26, 17, 19]
45.503[21, 32, 26, 22, 26, 23, 18, 17]
45.526[22, 32, 26, 22, 28, 25, 20, 18]
45.54[20, 31, 25, 22, 28, 25, 21, 15]
45.563[21, 30, 26, 21, 26, 25, 21, 16]
45.585[22, 26, 24, 21, 27, 25, 22, 18]
45.601[21, 30, 23, 19, 29, 25, 21, 19]
45.623[22, 30, 26, 19, 31, 24, 18, 19]
45.645[21, 28, 24, 19, 33, 23, 19, 22]
45.668[21, 30, 25, 17, 35, 25, 20, 23]
45.683[20, 28, 25, 17, 33, 22, 19, 21]
45.706[19, 22, 23, 17, 33, 23, 21, 21]
45.728[18, 27, 23, 18, 32, 24, 21, 21]
45.743[20, 27, 24, 17, 28, 23, 22, 19]
45.774[20, 26, 22, 18, 29, 22, 22, 16]
45.789[20, 26, 21, 18, 32, 24, 21, 18]
45.803[18, 28, 23, 19, 32, 23, 20, 18]
45.825[18, 23, 19, 20, 31, 25, 22, 21]
45.848[19, 25, 19, 20, 33, 27, 19, 21]
45.863[18, 24, 20, 20, 34, 27, 21, 21]
45.886[20, 28, 22, 19, 33, 24, 21, 22]
45.908[21, 30, 24, 19, 33, 25, 22, 21]
45.923[22, 30, 23, 17, 34, 22, 20, 18]
45.945[20, 28, 24, 18, 37, 24, 21, 18]
45.968[20, 27, 23, 20, 38, 25, 20, 20]
45.983[18, 24, 23, 21, 35, 24, 22, 19]
46.006[19, 21, 22, 21, 33, 24, 22, 20]
46.028[19, 23, 24, 22, 32, 25, 22, 21]
46.043[19, 24, 23, 21, 30, 24, 20, 22]
46.066[21, 25, 24, 21, 26, 23, 21, 19]
46.088[20, 29, 27, 21, 29, 25, 19, 19]
46.103[21, 29, 25, 20, 30, 25, 19, 19]
46.126[20, 28, 25, 20, 29, 24, 21, 19]
46.148[21, 27, 26, 22, 27, 20, 21, 19]
46.163[19, 29, 24, 21, 34, 24, 21, 20]
46.186[21, 26, 21, 20, 36, 24, 20, 19]
46.208[19, 27, 25, 21, 37, 22, 20, 18]
46.223[19, 28, 26, 21, 39, 24, 19, 17]
46.246[19, 27, 25, 19, 39, 26, 20, 18]
46.268[21, 30, 27, 19, 34, 21, 19, 17]
46.283[21, 40, 27, 19, 34, 21, 21, 20]
46.305[23, 40, 23, 19, 31, 22, 21, 21]
46.328[23, 40, 22, 17, 29, 20, 21, 21]
46.343[22, 39, 22, 16, 30, 20, 24, 21]
46.374[20, 37, 21, 17, 28, 20, 28, 22]
46.389[17, 27, 19, 16, 27, 24, 27, 20]
46.404[17, 27, 24, 16, 28, 23, 27, 20]
46.425[17, 29, 26, 18, 27, 24, 29, 20]
46.449[18, 29, 26, 18, 25, 22, 27, 18]
46.463[19, 27, 26, 19, 25, 22, 23, 18]
46.485[19, 28, 26, 19, 29, 19, 22, 18]
46.509[18, 25, 23, 20, 30, 21, 21, 17]
46.523[20, 24, 22, 20, 32, 23, 21, 17]
46.545[19, 25, 21, 21, 35, 25, 21, 17]
46.569[19, 25, 21, 20, 35, 25, 19, 16]
46.583[20, 24, 22, 19, 33, 24, 21, 18]
46.605[20, 22, 21, 19, 33, 23, 22, 18]
46.629[19, 28, 22, 22, 31, 22, 21, 18]
46.651[19, 27, 24, 21, 29, 20, 19, 20]
46.665[18, 26, 24, 21, 32, 24, 21, 20]
46.689[18, 28, 23, 21, 30, 23, 22, 19]
46.711[18, 30, 22, 20, 32, 22, 20, 20]
46.726[17, 25, 20, 19, 34, 23, 20, 20]
46.75[19, 31, 20, 20, 33, 23, 21, 20]
46.771[19, 31, 21, 19, 33, 21, 24, 20]
46.785[19, 29, 24, 19, 33, 22, 22, 21]
46.809[18, 27, 23, 20, 36, 23, 22, 21]
46.831[18, 26, 24, 20, 33, 22, 22, 21]
46.845[19, 24, 25, 19, 35, 22, 22, 20]
46.869[21, 27, 26, 20, 34, 22, 16, 19]
46.891[20, 26, 24, 20, 31, 23, 17, 18]
46.905[21, 26, 25, 19, 27, 22, 17, 19]
46.929[22, 29, 30, 19, 30, 24, 20, 21]
46.951[21, 33, 31, 21, 35, 26, 20, 22]
46.965[23, 41, 34, 22, 38, 27, 22, 23]
46.989[22, 51, 37, 24, 41, 28, 23, 23]
47.011[23, 52, 37, 26, 40, 29, 22, 22]
47.026[22, 51, 33, 26, 39, 26, 19, 20]
47.049[22, 48, 31, 25, 32, 24, 19, 19]
47.071[18, 39, 26, 23, 32, 23, 19, 21]
47.086[20, 33, 22, 21, 32, 23, 19, 19]
47.109[26, 41, 28, 17, 32, 22, 19, 20]
47.131[26, 44, 28, 15, 32, 23, 19, 22]
47.145[26, 44, 27, 15, 32, 23, 19, 22]
47.168[27, 45, 28, 17, 28, 23, 17, 19]
47.192[27, 43, 33, 21, 29, 24, 17, 22]
47.206[19, 33, 29, 26, 27, 24, 17, 23]
47.228[20, 31, 29, 26, 30, 23, 19, 20]
47.251[20, 30, 28, 26, 31, 24, 20, 21]
47.265[19, 33, 30, 26, 33, 26, 21, 23]
47.289[19, 30, 28, 23, 29, 22, 22, 20]
47.311[21, 31, 26, 17, 30, 23, 24, 20]
47.325[22, 35, 29, 20, 27, 25, 24, 20]
47.349[21, 35, 27, 23, 29, 24, 22, 19]
47.371[22, 31, 26, 23, 33, 22, 22, 17]
47.401[21, 32, 24, 22, 33, 20, 20, 17]
47.409[18, 34, 28, 26, 32, 21, 18, 21]
47.431[17, 27, 26, 23, 34, 22, 22, 21]
47.445[17, 27, 26, 20, 31, 22, 23, 21]
47.469[16, 31, 28, 20, 28, 24, 23, 21]
47.491[17, 30, 27, 20, 28, 29, 23, 23]
47.505[20, 27, 23, 18, 27, 28, 22, 19]
47.529[23, 30, 25, 21, 30, 26, 17, 21]
47.553[24, 29, 26, 22, 34, 26, 18, 22]
47.574[22, 26, 22, 24, 34, 25, 17, 22]
47.588[23, 36, 25, 28, 36, 23, 26, 21]
47.611[22, 40, 28, 27, 36, 22, 29, 21]
47.634[21, 38, 28, 26, 37, 22, 30, 22]
47.649[21, 40, 31, 26, 35, 23, 29, 21]
47.671[20, 40, 30, 25, 41, 23, 30, 26]
47.694[19, 33, 34, 23, 39, 23, 31, 27]
47.708[18, 28, 65, 24, 40, 24, 28, 27]
47.731[20, 29, 93, 26, 38, 23, 31, 28]
47.754[20, 26, 99, 24, 38, 21, 32, 35]
47.769[23, 27, 100, 25, 34, 23, 32, 97]
47.791[23, 41, 100, 25, 38, 25, 40, 118]
47.821[23, 41, 82, 25, 37, 25, 49, 125]
47.829[22, 43, 48, 24, 36, 27, 48, 124]
47.851[23, 44, 32, 25, 37, 28, 50, 123]
47.874[24, 43, 31, 23, 40, 27, 49, 82]
47.889[24, 31, 28, 27, 38, 25, 39, 45]
47.912[25, 33, 31, 25, 39, 24, 26, 24]
47.934[24, 34, 30, 25, 38, 24, 23, 22]
47.956[27, 34, 29, 29, 39, 24, 21, 21]
47.974[26, 41, 27, 29, 36, 28, 21, 21]
47.994[26, 40, 31, 23, 37, 28, 24, 20]
48.009[26, 39, 29, 24, 37, 28, 26, 21]
48.031[27, 39, 28, 24, 38, 27, 24, 22]
48.054[28, 38, 29, 19, 36, 26, 25, 22]
48.068[27, 30, 28, 19, 32, 22, 25, 22]
48.091[27, 30, 26, 20, 29, 20, 24, 24]
48.114[27, 31, 24, 19, 31, 23, 24, 23]
48.128[27, 29, 24, 20, 30, 24, 25, 22]
48.151[24, 28, 28, 18, 34, 26, 22, 26]
48.173[25, 28, 28, 20, 35, 29, 24, 24]
48.188[25, 26, 28, 20, 39, 28, 24, 23]
48.211[23, 26, 34, 21, 40, 26, 20, 23]
48.234[23, 25, 33, 19, 39, 29, 20, 23]
48.248[22, 27, 28, 20, 36, 27, 21, 21]
48.271[21, 25, 28, 19, 36, 26, 19, 21]
48.293[25, 28, 27, 20, 35, 26, 22, 20]
48.308[26, 25, 20, 20, 35, 29, 23, 23]
48.331[25, 29, 22, 22, 34, 26, 22, 26]
48.354[24, 33, 25, 24, 38, 26, 23, 24]
48.368[23, 32, 27, 23, 38, 24, 24, 24]
48.392[22, 31, 28, 23, 34, 24, 23, 29]
48.414[21, 32, 27, 23, 32, 23, 22, 29]
48.428[20, 28, 28, 22, 41, 24, 24, 28]
48.451[21, 23, 28, 22, 39, 26, 22, 32]
48.474[22, 24, 26, 21, 41, 27, 21, 35]
48.488[19, 24, 27, 23, 42, 29, 20, 31]
48.511[20, 23, 29, 24, 41, 27, 19, 29]
48.534[19, 25, 27, 35, 35, 26, 15, 31]
48.556[19, 24, 25, 44, 35, 25, 17, 26]
48.579[19, 29, 25, 48, 34, 23, 19, 22]
48.594[20, 30, 24, 48, 33, 22, 19, 24]
48.616[21, 29, 22, 48, 32, 22, 22, 23]
48.632[21, 28, 22, 39, 31, 23, 22, 18]
48.653[22, 30, 21, 28, 27, 22, 24, 23]
48.676[20, 26, 22, 22, 28, 24, 22, 23]
48.692[20, 25, 22, 18, 30, 22, 23, 22]
48.713[19, 36, 27, 17, 30, 22, 23, 23]
48.736[21, 36, 28, 17, 29, 22, 23, 25]
48.752[22, 35, 31, 17, 30, 22, 20, 20]
48.789[22, 37, 29, 16, 29, 19, 25, 22]
48.795[23, 36, 27, 18, 27, 22, 25, 23]
48.812[23, 26, 23, 17, 26, 23, 24, 22]
48.833[23, 26, 23, 18, 30, 23, 25, 19]
48.856[21, 28, 24, 17, 29, 24, 27, 21]
48.872[22, 27, 26, 17, 26, 24, 24, 20]
48.893[21, 27, 29, 20, 33, 25, 23, 16]
48.915[21, 25, 31, 22, 34, 24, 22, 22]
48.932[19, 25, 56, 23, 30, 23, 21, 22]
48.953[20, 24, 62, 25, 33, 24, 20, 22]
48.976[19, 26, 61, 26, 34, 27, 18, 21]
48.992[20, 27, 60, 23, 25, 22, 18, 24]
49.013[18, 27, 60, 22, 26, 22, 18, 20]
49.035[20, 26, 39, 22, 29, 23, 19, 21]
49.052[20, 26, 26, 20, 27, 22, 18, 20]
49.073[20, 22, 25, 19, 27, 20, 20, 23]
49.096[21, 24, 28, 19, 30, 21, 20, 21]
49.112[23, 24, 30, 23, 31, 24, 20, 22]
49.133[21, 24, 26, 21, 31, 25, 19, 19]
49.155[24, 23, 27, 21, 31, 25, 22, 20]
49.172[23, 23, 28, 22, 31, 25, 22, 20]
49.193[22, 22, 26, 22, 27, 25, 20, 20]
49.223[22, 31, 27, 19, 27, 21, 21, 21]
49.232[23, 32, 27, 20, 24, 20, 22, 22]
49.253[21, 34, 27, 20, 30, 21, 20, 21]
49.276[23, 36, 27, 21, 31, 20, 21, 19]
49.292[22, 35, 24, 20, 31, 23, 21, 20]
49.313[21, 28, 23, 18, 29, 23, 20, 19]
49.343[21, 28, 28, 68, 30, 23, 20, 21]
49.352[20, 28, 28, 75, 27, 21, 19, 21]
49.373[21, 26, 27, 77, 27, 22, 17, 20]
49.396[22, 26, 29, 78, 28, 19, 18, 21]
49.412[20, 27, 28, 79, 30, 17, 19, 20]
49.434[22, 28, 25, 44, 30, 20, 22, 17]
49.456[22, 24, 25, 33, 28, 20, 24, 18]
49.478[21, 27, 27, 29, 26, 20, 24, 19]
49.493[21, 28, 27, 28, 33, 23, 25, 17]
49.515[23, 27, 25, 26, 32, 24, 25, 19]
49.546[20, 27, 24, 24, 32, 23, 23, 21]
49.553[20, 28, 23, 23, 30, 22, 21, 22]
49.576[20, 26, 22, 21, 30, 21, 21, 20]
49.598[20, 26, 22, 23, 26, 20, 22, 20]
49.613[19, 25, 23, 21, 25, 19, 23, 19]
49.635[20, 30, 26, 21, 26, 20, 23, 20]
49.658[21, 32, 25, 20, 28, 19, 25, 19]
49.673[21, 29, 24, 20, 27, 19, 25, 20]
49.695[21, 30, 24, 19, 23, 18, 22, 20]
49.718[22, 29, 24, 19, 31, 20, 23, 20]
49.733[22, 22, 20, 20, 32, 21, 23, 18]
49.755[21, 19, 22, 22, 32, 21, 20, 18]
49.778[21, 20, 21, 22, 33, 22, 22, 18]
49.793[20, 19, 20, 20, 32, 21, 23, 19]
49.815[21, 21, 22, 21, 28, 19, 18, 19]
49.838[20, 21, 24, 21, 31, 21, 20, 21]
49.853[20, 23, 24, 18, 31, 24, 20, 21]
49.875[20, 23, 24, 18, 32, 24, 20, 20]
49.898[20, 25, 24, 17, 32, 24, 20, 19]
49.913[17, 23, 21, 16, 30, 26, 21, 19]
49.936[17, 24, 20, 18, 28, 22, 19, 17]
49.958[17, 21, 21, 21, 29, 21, 20, 16]
49.973[16, 24, 20, 20, 28, 20, 19, 19]
49.996[18, 22, 20, 21, 28, 22, 19, 20]
50.018[19, 22, 21, 22, 28, 21, 19, 20]
50.033[20, 21, 19, 21, 26, 21, 19, 21]
50.057[21, 22, 17, 19, 25, 21, 20, 22]
50.078[21, 18, 19, 19, 29, 21, 20, 19]
50.093[21, 19, 18, 19, 28, 19, 21, 20]
50.116[22, 18, 18, 21, 33, 25, 21, 20]
50.138[21, 20, 20, 21, 34, 27, 21, 20]
50.153[19, 22, 22, 22, 32, 28, 19, 21]
50.175[21, 21, 22, 22, 31, 28, 17, 21]
50.198[19, 21, 22, 21, 31, 28, 19, 19]
50.213[18, 23, 22, 21, 27, 23, 20, 19]
50.235[19, 23, 23, 20, 29, 19, 22, 21]
50.266[21, 22, 22, 19, 27, 19, 23, 20]
50.273[21, 22, 24, 20, 26, 18, 23, 21]
50.296[23, 26, 24, 20, 28, 21, 21, 21]
50.318[22, 25, 24, 20, 26, 19, 19, 21]
50.333[23, 30, 26, 20, 27, 22, 18, 17]
50.356[22, 29, 24, 19, 28, 23, 18, 17]
50.378[20, 30, 23, 21, 29, 27, 21, 17]
50.393[18, 28, 23, 20, 26, 26, 20, 18]
50.415[19, 27, 23, 18, 27, 27, 20, 18]
50.438[18, 21, 19, 19, 28, 26, 20, 18]
50.461[18, 21, 20, 22, 28, 25, 19, 18]
50.475[19, 21, 20, 20, 27, 23, 18, 18]
50.498[19, 20, 21, 21, 28, 23, 19, 19]
50.52[17, 24, 23, 23, 26, 24, 22, 20]
50.536[17, 26, 26, 22, 26, 25, 21, 20]
50.558[17, 27, 26, 19, 30, 22, 22, 20]
50.58[16, 27, 25, 22, 30, 22, 20, 20]
50.596[17, 28, 24, 21, 30, 21, 20, 18]
50.618[19, 24, 22, 20, 31, 21, 17, 16]
50.641[21, 22, 19, 21, 27, 20, 16, 19]
50.656[21, 22, 19, 21, 23, 23, 16, 19]
50.678[21, 22, 20, 18, 23, 22, 17, 19]
50.701[20, 22, 20, 19, 22, 21, 17, 20]
50.715[20, 21, 19, 19, 22, 20, 20, 22]
50.738[18, 25, 19, 19, 23, 20, 19, 21]
50.76[19, 24, 21, 19, 22, 19, 22, 21]
50.775[21, 24, 19, 19, 22, 20, 21, 20]
50.798[20, 25, 19, 19, 25, 21, 22, 20]
50.821[19, 26, 19, 20, 23, 21, 22, 19]
50.836[18, 22, 18, 19, 23, 21, 24, 17]
50.858[19, 26, 17, 19, 22, 19, 23, 18]
50.88[17, 26, 20, 19, 24, 18, 24, 20]
50.896[18, 27, 20, 21, 24, 17, 23, 20]
50.918[18, 29, 23, 20, 28, 18, 21, 20]
50.941[18, 28, 23, 21, 29, 19, 19, 23]
50.956[20, 25, 23, 20, 29, 20, 21, 22]
50.978[20, 24, 22, 20, 27, 20, 19, 23]
51.009[20, 22, 23, 19, 25, 21, 20, 21]
51.015[20, 20, 21, 21, 22, 21, 21, 21]
51.038[22, 22, 20, 20, 21, 19, 21, 19]
51.061[20, 25, 20, 22, 25, 22, 19, 20]
51.075[24, 23, 20, 24, 26, 22, 19, 19]
51.098[24, 25, 19, 26, 24, 21, 17, 21]
51.128[25, 28, 23, 25, 24, 21, 18, 21]
51.136[24, 29, 24, 25, 24, 23, 19, 21]
51.158