[22, 21, 74, 22, 17, 16, 15, 19]
0.811[20, 18, 104, 26, 18, 20, 15, 18]
0.834[18, 18, 131, 32, 19, 19, 16, 18]
0.856[18, 17, 131, 33, 20, 21, 18, 18]
0.871[16, 18, 133, 31, 18, 20, 19, 18]
0.894[17, 18, 136, 36, 20, 22, 19, 18]
0.916[19, 18, 122, 35, 21, 22, 24, 21]
0.931[24, 23, 98, 31, 23, 25, 26, 24]
0.954[25, 25, 99, 32, 25, 26, 26, 23]
0.976[26, 25, 94, 32, 27, 28, 27, 25]
0.991[26, 25, 93, 30, 26, 26, 27, 25]
1.02[26, 26, 108, 29, 25, 24, 24, 23]
1.036[22, 23, 110, 27, 23, 22, 22, 19]
1.051[21, 21, 103, 25, 21, 21, 20, 21]
1.074[19, 24, 117, 30, 20, 19, 19, 20]
1.096[18, 23, 119, 31, 20, 20, 18, 20]
1.111[17, 23, 105, 29, 20, 20, 18, 20]
1.134[17, 23, 100, 28, 21, 20, 17, 22]
1.155[16, 23, 107, 34, 20, 21, 17, 22]
1.171[17, 22, 98, 33, 19, 20, 18, 21]
1.194[17, 23, 89, 30, 20, 19, 20, 20]
1.215[19, 22, 80, 31, 18, 19, 19, 22]
1.231[21, 24, 136, 35, 21, 18, 19, 19]
1.254[20, 25, 132, 30, 22, 18, 20, 18]
1.275[23, 28, 137, 28, 24, 21, 20, 19]
1.291[24, 28, 141, 28, 25, 22, 18, 19]
1.314[24, 34, 205, 33, 27, 22, 20, 19]
1.335[22, 31, 188, 30, 24, 23, 23, 19]
1.351[22, 31, 189, 31, 24, 22, 21, 19]
1.374[20, 27, 186, 32, 23, 20, 20, 19]
1.395[20, 27, 195, 33, 23, 19, 21, 18]
1.411[19, 22, 146, 29, 21, 19, 19, 17]
1.434[19, 23, 130, 29, 22, 20, 18, 17]
1.455[20, 24, 137, 34, 23, 20, 20, 18]
1.471[21, 23, 129, 33, 22, 19, 20, 19]
1.494[21, 22, 109, 31, 22, 18, 18, 20]
1.515[20, 23, 92, 30, 21, 18, 18, 21]
1.531[21, 21, 95, 30, 18, 17, 18, 21]
1.554[21, 20, 87, 24, 18, 18, 17, 19]
1.575[20, 20, 89, 22, 18, 19, 18, 18]
1.591[19, 21, 89, 23, 17, 19, 20, 18]
1.614[19, 19, 78, 23, 19, 19, 20, 19]
1.635[20, 20, 73, 21, 21, 19, 19, 20]
1.657[19, 20, 63, 24, 21, 19, 20, 21]
1.674[17, 21, 77, 26, 21, 20, 20, 22]
1.702[18, 21, 77, 24, 21, 20, 20, 21]
1.717[19, 21, 85, 27, 20, 20, 20, 21]
1.74[17, 21, 82, 29, 19, 19, 20, 21]
1.755[18, 23, 79, 26, 18, 19, 20, 21]
1.778[17, 21, 67, 23, 21, 17, 20, 22]
1.8[17, 24, 100, 30, 21, 18, 18, 21]
1.815[17, 24, 100, 28, 23, 19, 18, 20]
1.837[19, 23, 100, 26, 24, 19, 17, 19]
1.86[19, 23, 100, 28, 25, 20, 15, 19]
1.875[20, 22, 100, 28, 24, 23, 16, 16]
1.897[20, 20, 71, 23, 24, 23, 17, 17]
1.92[20, 21, 80, 24, 24, 22, 18, 18]
1.935[21, 22, 88, 25, 23, 23, 18, 18]
1.958[20, 21, 88, 23, 23, 20, 18, 18]
1.981[20, 22, 86, 24, 23, 19, 18, 18]
1.995[20, 20, 105, 26, 22, 19, 18, 19]
2.018[19, 21, 107, 27, 20, 20, 18, 19]
2.04[17, 22, 96, 25, 20, 20, 17, 18]
2.055[18, 23, 96, 27, 20, 21, 19, 17]
2.077[19, 22, 96, 27, 19, 19, 20, 17]
2.1[19, 22, 85, 25, 18, 18, 20, 15]
2.115[19, 23, 67, 24, 19, 18, 18, 17]
2.137[19, 23, 69, 25, 18, 17, 19, 17]
2.16[20, 24, 71, 24, 17, 19, 18, 18]
2.182[20, 25, 72, 23, 16, 19, 17, 19]
2.197[19, 25, 60, 24, 18, 18, 17, 19]
2.22[20, 23, 60, 25, 17, 19, 19, 20]
2.242[21, 22, 65, 25, 18, 19, 20, 20]
2.259[20, 23, 65, 26, 19, 17, 20, 19]
2.28[19, 21, 63, 26, 19, 18, 19, 20]
2.303[19, 20, 63, 28, 19, 19, 19, 19]
2.317[18, 20, 63, 26, 21, 19, 19, 17]
2.34[18, 20, 56, 25, 19, 18, 19, 16]
2.362[18, 20, 55, 24, 19, 18, 20, 18]
2.377[19, 20, 63, 27, 20, 17, 20, 17]
2.4[20, 21, 66, 23, 19, 15, 20, 18]
2.422[21, 23, 64, 24, 19, 14, 21, 18]
2.437[21, 23, 66, 25, 18, 14, 19, 18]
2.46[21, 21, 70, 26, 19, 19, 18, 16]
2.482[20, 21, 75, 24, 17, 18, 19, 18]
2.497[19, 22, 70, 25, 17, 20, 19, 17]
2.52[18, 21, 68, 23, 16, 20, 18, 17]
2.542[19, 21, 78, 23, 17, 22, 19, 18]
2.557[19, 22, 85, 24, 16, 19, 19, 18]
2.58[19, 22, 77, 24, 17, 18, 20, 17]
2.602[21, 21, 76, 23, 19, 19, 20, 17]
2.617[21, 20, 83, 26, 20, 20, 20, 17]
2.64[19, 22, 71, 25, 20, 18, 20, 17]
2.662[20, 25, 63, 24, 21, 17, 21, 18]
2.677[20, 26, 69, 24, 21, 18, 18, 17]
2.7[19, 25, 68, 25, 19, 17, 19, 18]
2.722[20, 26, 61, 25, 19, 15, 18, 17]
2.737[19, 24, 69, 29, 20, 16, 19, 17]
2.76[18, 23, 70, 30, 17, 17, 16, 19]
2.782[18, 22, 73, 30, 18, 17, 19, 20]
2.797[16, 23, 76, 30, 18, 16, 18, 18]
2.82[16, 22, 88, 29, 18, 18, 19, 19]
2.842[17, 22, 86, 25, 19, 17, 18, 18]
2.857[17, 23, 84, 24, 20, 17, 19, 16]
2.88[19, 21, 84, 24, 19, 18, 17, 16]
2.902[19, 20, 91, 21, 20, 18, 17, 18]
2.917[19, 21, 83, 23, 20, 17, 17, 16]
2.94[21, 22, 79, 22, 20, 18, 19, 19]
2.962[21, 22, 87, 23, 22, 18, 20, 21]
2.977[19, 21, 81, 23, 24, 18, 21, 20]
3.0[20, 21, 67, 24, 23, 19, 21, 20]
3.022[20, 21, 62, 23, 22, 20, 20, 21]
3.037[19, 20, 68, 26, 23, 20, 20, 19]
3.06[19, 19, 60, 26, 20, 20, 18, 17]
3.082[19, 19, 58, 25, 19, 20, 18, 19]
3.105[17, 21, 62, 27, 18, 21, 18, 18]
3.12[19, 22, 70, 29, 17, 19, 17, 17]
3.142[18, 23, 68, 27, 16, 19, 18, 17]
3.165[19, 22, 66, 26, 16, 19, 18, 19]
3.18[19, 24, 65, 25, 19, 18, 19, 19]
3.202[19, 24, 80, 27, 19, 18, 19, 21]
3.225[18, 22, 77, 25, 21, 17, 19, 20]
3.241[18, 21, 72, 23, 21, 17, 19, 21]
3.262[19, 21, 75, 25, 22, 16, 19, 21]
3.286[20, 22, 80, 28, 20, 17, 18, 19]
3.3[22, 20, 60, 26, 20, 18, 18, 18]
3.322[23, 22, 54, 25, 21, 18, 18, 19]
3.345[21, 20, 55, 26, 22, 19, 16, 18]
3.36[22, 21, 82, 28, 22, 19, 16, 17]
3.382[22, 21, 75, 26, 22, 19, 16, 19]
3.406[20, 21, 77, 25, 21, 17, 17, 18]
3.42[21, 19, 78, 24, 21, 18, 17, 19]
3.442[23, 21, 78, 23, 21, 18, 18, 20]
3.466[22, 20, 68, 22, 20, 18, 19, 20]
3.48[22, 20, 82, 24, 19, 18, 18, 19]
3.502[21, 20, 81, 26, 20, 18, 19, 20]
3.525[20, 23, 88, 26, 21, 20, 20, 21]
3.54[20, 22, 102, 27, 20, 21, 19, 20]
3.563[19, 22, 94, 25, 20, 21, 20, 19]
3.585[20, 23, 84, 23, 20, 20, 22, 19]
3.6[19, 23, 110, 27, 21, 21, 22, 19]
3.622[20, 23, 113, 29, 19, 18, 21, 18]
3.645[18, 24, 101, 27, 19, 17, 21, 17]
3.66[16, 23, 98, 27, 20, 18, 21, 18]
3.682[16, 21, 103, 28, 20, 18, 18, 17]
3.705[16, 21, 78, 24, 21, 18, 20, 17]
3.72[15, 20, 67, 23, 20, 18, 20, 17]
3.742[17, 20, 83, 26, 22, 19, 21, 19]
3.765[16, 20, 102, 25, 20, 19, 19, 19]
3.78[16, 23, 109, 27, 20, 20, 21, 18]
3.802[17, 22, 106, 27, 18, 21, 19, 20]
3.825[18, 21, 108, 27, 18, 21, 19, 21]
3.84[18, 20, 101, 25, 17, 20, 18, 21]
3.862[18, 22, 91, 27, 18, 20, 20, 20]
3.885[18, 20, 73, 23, 19, 20, 20, 21]
3.9[18, 23, 106, 27, 18, 17, 19, 19]
3.922[17, 23, 105, 29, 18, 18, 20, 19]
3.945[17, 23, 100, 29, 19, 17, 19, 18]
3.96[19, 25, 92, 28, 20, 18, 21, 17]
3.982[20, 26, 97, 28, 21, 17, 20, 17]
4.005[20, 24, 73, 27, 22, 19, 21, 17]
4.02[21, 23, 71, 26, 24, 19, 21, 17]
4.042[21, 23, 72, 26, 24, 21, 22, 16]
4.066[20, 20, 73, 26, 23, 20, 18, 19]
4.088[18, 20, 81, 30, 24, 20, 17, 20]
4.102[19, 21, 73, 29, 23, 19, 17, 20]
4.126[18, 20, 75, 28, 23, 18, 17, 20]
4.148[19, 20, 74, 29, 22, 17, 17, 21]
4.162[19, 21, 79, 30, 23, 17, 18, 21]
4.185[18, 20, 67, 27, 23, 18, 19, 19]
4.208[17, 20, 77, 28, 22, 19, 20, 20]
4.222[17, 21, 76, 28, 21, 18, 21, 20]
4.245[18, 21, 83, 29, 21, 18, 20, 18]
4.268[18, 20, 77, 27, 19, 17, 20, 17]
4.282[18, 20, 78, 27, 19, 17, 19, 19]
4.306[18, 21, 66, 23, 19, 18, 19, 19]
4.328[17, 20, 72, 25, 21, 19, 18, 17]
4.342[16, 21, 72, 25, 21, 19, 19, 18]
4.365[19, 23, 68, 25, 22, 20, 18, 19]
4.388[19, 22, 64, 24, 21, 20, 19, 16]
4.402[22, 22, 62, 26, 20, 19, 20, 16]
4.425[24, 22, 50, 24, 19, 18, 19, 17]
4.448[24, 22, 44, 23, 21, 20, 19, 20]
4.462[23, 21, 39, 21, 19, 21, 20, 20]
4.485[24, 22, 39, 21, 20, 19, 19, 20]
4.508[22, 20, 38, 19, 20, 20, 18, 22]
4.522[20, 20, 74, 22, 21, 19, 18, 23]
4.546[21, 22, 78, 25, 19, 19, 18, 19]
4.568[20, 21, 78, 25, 19, 18, 17, 18]
4.582[19, 22, 78, 26, 19, 19, 19, 19]
4.606[19, 22, 90, 27, 21, 20, 20, 19]
4.628[19, 23, 72, 25, 22, 20, 20, 18]
4.643[18, 20, 64, 23, 22, 20, 19, 18]
4.665[18, 20, 64, 24, 23, 20, 19, 20]
4.688[19, 21, 72, 24, 23, 19, 17, 20]
4.702[20, 20, 70, 23, 20, 18, 18, 20]
4.725[20, 20, 68, 23, 19, 20, 19, 20]
4.748[19, 20, 68, 25, 20, 19, 19, 21]
4.762[19, 21, 67, 23, 21, 19, 21, 20]
4.786[20, 19, 58, 23, 21, 19, 21, 20]
4.808[19, 20, 47, 24, 22, 19, 20, 20]
4.822[19, 20, 59, 26, 23, 20, 20, 20]
4.846[19, 21, 65, 25, 21, 20, 20, 19]
4.868[19, 19, 69, 27, 22, 21, 17, 18]
4.882[16, 21, 70, 27, 23, 21, 19, 18]
4.913[18, 20, 66, 26, 23, 21, 19, 16]
4.928[19, 20, 66, 26, 23, 21, 19, 16]
4.943[21, 22, 65, 24, 24, 20, 21, 16]
4.966[21, 23, 68, 23, 23, 19, 21, 17]
4.988[22, 23, 76, 24, 21, 19, 21, 16]
5.01[20, 23, 85, 24, 21, 19, 21, 17]
5.033[20, 23, 74, 21, 20, 18, 22, 18]
5.048[18, 22, 69, 22, 20, 20, 19, 18]
5.071[17, 21, 66, 22, 19, 19, 19, 16]
5.086[18, 19, 58, 21, 19, 20, 20, 17]
5.108[18, 20, 44, 20, 18, 20, 20, 18]
5.131[18, 19, 57, 22, 18, 18, 19, 18]
5.146[19, 19, 61, 22, 17, 17, 20, 18]
5.168[20, 20, 55, 22, 18, 18, 21, 18]
5.191[20, 20, 57, 22, 18, 19, 20, 20]
5.205[20, 22, 59, 23, 18, 19, 20, 20]
5.228[20, 23, 43, 18, 19, 19, 20, 20]
5.251[19, 23, 46, 19, 22, 21, 19, 21]
5.266[17, 22, 59, 19, 21, 21, 19, 22]
5.288[16, 23, 63, 22, 21, 20, 19, 21]
5.311[16, 20, 61, 23, 22, 21, 20, 19]
5.325[17, 20, 63, 24, 22, 21, 21, 20]
5.349[17, 19, 77, 25, 21, 19, 22, 20]
5.371[17, 19, 75, 25, 21, 18, 21, 18]
5.386[18, 19, 69, 24, 23, 18, 21, 19]
5.408[18, 18, 69, 23, 22, 17, 20, 20]
5.431[19, 22, 87, 25, 22, 18, 20, 19]
5.446[19, 22, 77, 24, 21, 19, 18, 18]
5.469[20, 24, 73, 24, 21, 19, 19, 20]
5.491[19, 24, 72, 22, 19, 20, 21, 19]
5.505[20, 24, 74, 21, 20, 20, 20, 22]
5.529[19, 21, 66, 21, 19, 20, 19, 20]
5.551[19, 21, 61, 22, 19, 20, 21, 22]
5.565[20, 20, 56, 20, 19, 20, 21, 20]
5.588[20, 20, 59, 21, 18, 19, 18, 21]
5.611[22, 21, 66, 22, 19, 19, 19, 20]
5.625[21, 23, 64, 22, 19, 19, 20, 22]
5.648[21, 22, 59, 21, 19, 18, 18, 19]
5.671[20, 22, 62, 21, 21, 20, 17, 20]
5.685[20, 22, 63, 21, 22, 21, 17, 19]
5.708[16, 22, 71, 25, 20, 21, 17, 17]
5.731[17, 21, 60, 27, 20, 21, 16, 18]
5.745[17, 21, 63, 27, 20, 21, 16, 19]
5.768[17, 21, 69, 27, 19, 19, 17, 19]
5.79[18, 20, 68, 26, 18, 17, 17, 18]
5.813[20, 20, 62, 25, 20, 17, 19, 20]
5.829[20, 18, 65, 23, 20, 16, 20, 18]
5.85[19, 17, 63, 22, 21, 17, 19, 19]
5.873[18, 17, 63, 24, 21, 17, 20, 20]
5.889[18, 17, 70, 25, 22, 19, 20, 21]
5.91[17, 16, 64, 23, 19, 17, 21, 20]
5.932[17, 16, 60, 22, 21, 17, 20, 21]
5.949[17, 17, 75, 27, 20, 17, 21, 21]
5.97[17, 15, 77, 26, 19, 18, 20, 20]
5.992[16, 16, 72, 27, 19, 18, 21, 19]
6.009[15, 18, 70, 26, 19, 18, 20, 21]
6.03[17, 19, 84, 29, 19, 19, 20, 20]
6.053[18, 19, 77, 28, 19, 20, 21, 20]
6.069[19, 20, 71, 27, 19, 21, 21, 20]
6.09[20, 19, 68, 26, 20, 21, 20, 21]
6.113[21, 18, 66, 28, 22, 22, 20, 19]
6.129[20, 18, 55, 25, 21, 23, 20, 20]
6.151[20, 18, 50, 23, 22, 21, 19, 20]
6.172[18, 21, 47, 23, 21, 20, 18, 20]
6.189[17, 22, 53, 24, 22, 20, 18, 21]
6.21[18, 22, 71, 26, 19, 18, 16, 21]
6.233[17, 22, 64, 28, 19, 19, 16, 21]
6.249[18, 23, 62, 27, 19, 20, 16, 20]
6.27[18, 21, 72, 30, 20, 18, 17, 22]
6.293[19, 22, 74, 30, 19, 16, 18, 18]
6.309[18, 22, 59, 30, 20, 18, 19, 18]
6.33[18, 22, 61, 29, 21, 18, 20, 18]
6.353[18, 21, 61, 30, 20, 19, 20, 18]
6.369[18, 21, 73, 28, 19, 21, 21, 16]
6.39[18, 22, 69, 27, 20, 21, 20, 17]
6.42[19, 21, 73, 25, 20, 21, 20, 17]
6.429[19, 21, 71, 24, 19, 20, 21, 19]
6.45[19, 22, 79, 24, 18, 19, 20, 17]
6.473[21, 23, 68, 24, 19, 17, 19, 19]
6.489[21, 20, 74, 24, 17, 18, 20, 20]
6.51[21, 19, 68, 24, 17, 17, 19, 19]
6.532[21, 20, 74, 24, 18, 17, 16, 17]
6.549[21, 19, 82, 23, 20, 19, 17, 19]
6.57[20, 20, 81, 24, 19, 20, 18, 20]
6.592[20, 21, 75, 24, 19, 19, 18, 19]
6.609[18, 22, 75, 24, 19, 21, 18, 20]
6.63[19, 23, 76, 25, 19, 21, 20, 20]
6.652[17, 22, 73, 27, 18, 19, 23, 19]
6.669[18, 21, 66, 25, 18, 19, 23, 17]
6.69[19, 20, 69, 25, 19, 20, 23, 17]
6.713[20, 19, 69, 26, 20, 19, 23, 19]
6.729[21, 20, 74, 27, 21, 19, 22, 18]
6.75[23, 21, 62, 26, 22, 21, 19, 18]
6.772[23, 21, 60, 25, 21, 20, 19, 18]
6.787[24, 22, 57, 26, 21, 20, 18, 20]
6.81[22, 23, 63, 26, 22, 20, 17, 19]
6.833[22, 22, 50, 24, 22, 21, 17, 19]
6.848[22, 21, 48, 24, 20, 19, 19, 17]
6.87[22, 21, 47, 25, 21, 19, 18, 18]
6.893[20, 19, 54, 24, 21, 18, 18, 17]
6.915[21, 19, 54, 23, 19, 18, 19, 15]
6.93[21, 19, 52, 23, 19, 16, 20, 17]
6.953[19, 20, 61, 23, 19, 19, 19, 18]
6.976[19, 21, 71, 24, 19, 21, 19, 18]
6.99[19, 22, 69, 23, 18, 21, 20, 18]
7.013[18, 21, 70, 24, 19, 20, 19, 20]
7.035[20, 20, 74, 26, 18, 20, 18, 19]
7.05[21, 22, 65, 25, 18, 18, 18, 19]
7.073[21, 20, 59, 23, 18, 16, 19, 19]
7.095[21, 20, 71, 25, 19, 17, 18, 19]
7.11[20, 20, 69, 25, 20, 18, 18, 17]
7.133[17, 21, 69, 22, 21, 18, 19, 18]
7.155[18, 19, 72, 24, 21, 18, 19, 18]
7.17[18, 20, 68, 24, 21, 19, 19, 19]
7.192[18, 20, 66, 25, 21, 19, 20, 18]
7.215[18, 20, 66, 25, 19, 18, 21, 19]
7.23[20, 19, 66, 26, 18, 17, 19, 20]
7.252[19, 19, 63, 24, 18, 18, 19, 21]
7.275[18, 20, 86, 24, 19, 17, 19, 20]
7.29[19, 20, 83, 23, 18, 19, 20, 20]
7.313[20, 22, 78, 22, 20, 18, 19, 20]
7.335[19, 22, 76, 23, 20, 19, 21, 19]
7.35[19, 20, 76, 23, 20, 20, 23, 20]
7.373[20, 21, 71, 26, 19, 21, 22, 19]
7.395[19, 21, 66, 26, 19, 20, 21, 20]
7.41[17, 21, 70, 26, 19, 22, 21, 20]
7.433[19, 23, 79, 27, 21, 21, 18, 19]
7.455[18, 24, 85, 29, 23, 20, 18, 17]
7.47[19, 22, 72, 26, 23, 19, 19, 19]
7.493[18, 23, 66, 25, 24, 17, 20, 19]
7.515[19, 23, 68, 26, 23, 15, 19, 19]
7.53[18, 20, 69, 23, 20, 16, 19, 21]
7.553[18, 23, 73, 26, 20, 15, 19, 20]
7.575[16, 23, 71, 25, 19, 18, 17, 22]
7.59[17, 21, 73, 26, 20, 19, 16, 22]
7.612[18, 22, 78, 26, 21, 19, 16, 24]
7.635[19, 22, 71, 28, 21, 19, 16, 23]
7.65[19, 21, 62, 27, 19, 19, 17, 22]
7.673[19, 21, 64, 27, 20, 18, 17, 19]
7.695[19, 23, 71, 28, 20, 17, 18, 20]
7.71[18, 23, 64, 28, 19, 17, 19, 16]
7.733[16, 22, 59, 28, 19, 18, 19, 18]
7.755[18, 21, 56, 26, 19, 19, 17, 18]
7.77[18, 20, 65, 27, 19, 21, 18, 20]
7.793[18, 19, 63, 25, 19, 20, 18, 18]
7.815[19, 21, 61, 23, 18, 21, 18, 20]
7.837[20, 21, 65, 23, 21, 22, 19, 18]
7.853[19, 20, 65, 22, 21, 23, 19, 19]
7.875[20, 22, 51, 21, 20, 20, 20, 18]
7.897[20, 21, 38, 20, 20, 22, 20, 18]
7.912[20, 19, 50, 24, 23, 21, 20, 17]
7.935[20, 19, 65, 26, 21, 19, 21, 17]
7.966[21, 19, 67, 27, 21, 19, 24, 18]
7.973[21, 19, 67, 27, 22, 20, 24, 17]
7.995[20, 19, 80, 31, 24, 19, 23, 18]
8.017[21, 21, 79, 29, 20, 21, 24, 18]
8.033[18, 23, 65, 27, 22, 21, 22, 19]
8.055[18, 22, 64, 26, 23, 20, 18, 17]
8.077[19, 25, 84, 28, 23, 18, 18, 19]
8.093[19, 25, 74, 24, 23, 19, 18, 19]
8.115[18, 24, 69, 23, 24, 19, 16, 20]
8.137[22, 24, 68, 23, 25, 21, 16, 19]
8.153[22, 24, 76, 25, 23, 21, 17, 20]
8.175[20, 21, 63, 25, 22, 21, 16, 18]
8.198[20, 20, 62, 25, 20, 20, 18, 17]
8.212[21, 21, 60, 24, 20, 19, 20, 16]
8.235[18, 20, 63, 25, 17, 18, 20, 16]
8.258[19, 21, 61, 25, 17, 17, 19, 16]
8.273[19, 22, 52, 24, 18, 17, 20, 20]
8.295[20, 23, 55, 25, 19, 17, 19, 21]
8.317[19, 22, 63, 26, 20, 17, 18, 22]
8.332[19, 22, 59, 26, 20, 17, 19, 22]
8.355[19, 22, 53, 25, 20, 18, 20, 23]
8.377[19, 22, 54, 23, 21, 18, 19, 20]
8.392[19, 21, 71, 26, 21, 20, 19, 20]
8.415[20, 21, 65, 25, 19, 20, 19, 20]
8.438[20, 21, 67, 25, 18, 19, 19, 19]
8.453[18, 22, 86, 27, 18, 20, 18, 19]
8.475[18, 21, 94, 30, 16, 19, 18, 18]
8.498[19, 23, 84, 28, 17, 18, 18, 17]
8.521[19, 22, 83, 27, 19, 18, 18, 19]
8.535[19, 22, 83, 26, 21, 18, 19, 19]
8.558[19, 22, 71, 26, 20, 19, 21, 19]
8.573[20, 22, 61, 24, 23, 19, 20, 19]
8.595[17, 20, 54, 25, 23, 19, 20, 20]
8.618[17, 22, 57, 25, 23, 19, 21, 19]
8.633[17, 21, 60, 26, 22, 20, 20, 18]
8.655[15, 20, 58, 27, 22, 18, 17, 17]
8.678[18, 21, 56, 28, 21, 19, 19, 18]
8.693[19, 23, 58, 27, 22, 17, 18, 17]
8.715[20, 23, 55, 28, 22, 18, 18, 18]
8.738[20, 22, 73, 28, 22, 18, 18, 20]
8.752[20, 24, 67, 25, 22, 19, 19, 21]
8.775[18, 24, 64, 23, 22, 18, 19, 23]
8.798[18, 21, 65, 23, 21, 20, 19, 23]
8.821[16, 21, 74, 24, 21, 19, 18, 22]
8.835[17, 23, 63, 23, 22, 19, 19, 21]
8.859[20, 22, 63, 25, 24, 18, 18, 20]
8.881[20, 23, 65, 24, 24, 18, 18, 17]
8.895[19, 24, 69, 25, 24, 20, 18, 16]
8.919[19, 24, 75, 24, 23, 20, 18, 18]
8.941[19, 21, 68, 23, 22, 20, 17, 18]
8.955[19, 21, 65, 21, 19, 20, 17, 20]
8.978[20, 23, 70, 21, 18, 19, 16, 20]
9.001[20, 23, 79, 22, 17, 16, 16, 19]
9.015[21, 22, 69, 22, 17, 17, 17, 17]
9.038[22, 22, 68, 22, 15, 17, 18, 17]
9.061[20, 22, 70, 21, 19, 17, 18, 17]
9.075[19, 20, 65, 22, 21, 20, 21, 17]
9.098[18, 19, 63, 27, 23, 20, 20, 20]
9.121[17, 21, 62, 28, 23, 19, 23, 19]
9.135[16, 21, 64, 28, 24, 19, 23, 19]
9.158[17, 21, 64, 28, 21, 20, 22, 20]
9.181[18, 22, 76, 31, 20, 18, 19, 20]
9.195[20, 22, 66, 26, 18, 18, 19, 18]
9.218[21, 21, 62, 24, 19, 18, 15, 19]
9.241[20, 20, 62, 26, 20, 19, 15, 19]
9.255[21, 21, 66, 26, 21, 18, 16, 17]
9.278[21, 20, 72, 26, 20, 18, 17, 16]
9.301[21, 20, 69, 27, 21, 19, 18, 17]
9.315[21, 22, 69, 27, 20, 18, 18, 18]
9.338[22, 22, 71, 25, 20, 19, 18, 18]
9.361[22, 21, 79, 27, 18, 18, 16, 19]
9.375[22, 20, 68, 24, 19, 17, 16, 19]
9.398[21, 21, 67, 21, 19, 17, 17, 19]
9.421[19, 20, 68, 21, 18, 16, 16, 19]
9.435[17, 20, 75, 21, 17, 18, 17, 20]
9.459[17, 21, 81, 21, 18, 17, 17, 18]
9.481[16, 22, 78, 21, 19, 19, 16, 19]
9.495[16, 21, 81, 22, 18, 20, 16, 20]
9.518[16, 19, 81, 22, 21, 19, 16, 20]
9.541[17, 20, 74, 24, 23, 18, 17, 21]
9.556[17, 19, 60, 21, 22, 19, 21, 22]
9.578[19, 20, 68, 23, 24, 19, 21, 21]
9.601[20, 24, 66, 23, 25, 18, 21, 20]
9.615[22, 23, 80, 26, 23, 21, 21, 20]
9.638[22, 22, 79, 25, 23, 21, 19, 20]
9.661[21, 21, 74, 24, 23, 21, 18, 20]
9.675[20, 20, 64, 24, 20, 20, 18, 20]
9.698[20, 18, 60, 23, 19, 19, 18, 21]
9.721[18, 20, 56, 22, 19, 18, 18, 21]
9.751[17, 21, 68, 23, 20, 17, 19, 20]
9.758[18, 21, 69, 24, 20, 18, 19, 18]
9.781[19, 23, 69, 22, 20, 17, 18, 19]
9.803[19, 24, 75, 24, 20, 18, 17, 18]
9.818[20, 22, 70, 23, 21, 19, 16, 18]
9.841[21, 21, 64, 23, 21, 19, 15, 18]
9.863[19, 22, 63, 22, 20, 20, 17, 19]
9.878[19, 21, 63, 24, 20, 21, 17, 18]
9.901[20, 19, 63, 23, 20, 21, 17, 18]
9.923[19, 20, 66, 21, 19, 20, 18, 19]
9.938[19, 22, 63, 21, 18, 19, 19, 19]
9.961[19, 21, 63, 21, 19, 20, 19, 19]
9.983[20, 23, 69, 23, 19, 18, 20, 20]
9.998[19, 24, 73, 24, 19, 19, 20, 21]
10.021[18, 24, 65, 25, 21, 21, 20, 19]
10.044[22, 23, 60, 24, 20, 22, 19, 19]
10.058[21, 24, 59, 24, 19, 20, 19, 21]
10.081[20, 22, 62, 23, 22, 20, 21, 20]
10.104[19, 22, 56, 23, 21, 21, 21, 18]
10.118[19, 22, 55, 24, 20, 18, 21, 19]
10.141[16, 22, 56, 23, 21, 16, 21, 18]
10.163[17, 21, 58, 24, 22, 17, 21, 17]
10.178[18, 23, 59, 26, 20, 16, 19, 17]
10.201[18, 22, 60, 25, 20, 16, 19, 18]
10.223[19, 24, 63, 25, 21, 15, 19, 19]
10.238[19, 24, 63, 25, 21, 16, 18, 18]
10.261[20, 24, 80, 28, 20, 16, 18, 17]
10.283[25, 23, 160, 31, 22, 19, 21, 25]
10.306[115, 71, 252, 62, 28, 23, 34, 106]
10.321[283, 211, 305, 78, 39, 35, 57, 320]
10.343[318, 368, 386, 107, 49, 39, 69, 352]
10.358[377, 448, 424, 142, 68, 53, 83, 415]
10.381[401, 509, 459, 150, 74, 57, 86, 432]
10.404[412, 605, 567, 176, 83, 61, 89, 463]
10.418[379, 641, 664, 191, 86, 62, 99, 478]
10.441[385, 683, 720, 189, 86, 64, 111, 677]
10.463[359, 844, 790, 191, 84, 60, 112, 704]
10.478[364, 869, 805, 197, 93, 68, 123, 755]
10.501[356, 848, 765, 212, 102, 76, 126, 740]
10.523[306, 822, 687, 207, 102, 75, 119, 715]
10.538[309, 824, 657, 216, 111, 80, 110, 618]
10.561[312, 675, 597, 198, 104, 76, 111, 678]
10.583[312, 656, 608, 211, 100, 69, 104, 661]
10.598[330, 753, 606, 177, 84, 58, 96, 656]
10.621[355, 773, 626, 169, 79, 53, 91, 650]
10.644[381, 805, 611, 156, 67, 44, 83, 584]
10.657[389, 804, 598, 160, 67, 47, 70, 483]
10.681[424, 848, 600, 135, 57, 44, 61, 466]
10.703[401, 777, 552, 134, 59, 44, 66, 464]
10.726[401, 777, 536, 124, 56, 43, 63, 443]
10.741[354, 686, 548, 114, 50, 42, 63, 424]
10.763[326, 695, 637, 110, 52, 41, 64, 357]
10.786[262, 676, 648, 110, 51, 40, 70, 351]
10.801[261, 682, 711, 116, 46, 36, 63, 382]
10.824[246, 673, 773, 122, 49, 38, 64, 460]
10.846[262, 824, 730, 121, 46, 36, 65, 474]
10.862[274, 789, 673, 113, 48, 36, 62, 515]
10.883[261, 773, 630, 117, 47, 33, 57, 536]
10.905[305, 736, 604, 110, 46, 36, 59, 548]
10.922[289, 743, 531, 107, 43, 35, 56, 497]
10.942[304, 583, 569, 109, 44, 33, 55, 505]
10.965[355, 601, 559, 124, 45, 37, 52, 499]
10.982[371, 582, 537, 117, 52, 43, 55, 454]
11.003[358, 560, 501, 107, 54, 43, 57, 425]
11.025[408, 564, 496, 108, 55, 43, 54, 382]
11.041[381, 506, 488, 116, 55, 45, 52, 330]
11.063[353, 516, 454, 125, 59, 46, 63, 339]
11.085[349, 492, 543, 156, 55, 42, 59, 351]
11.102[387, 608, 538, 164, 60, 47, 73, 426]
11.123[334, 587, 604, 167, 63, 47, 73, 415]
11.145[332, 602, 600, 158, 61, 44, 74, 437]
11.162[319, 578, 625, 138, 52, 39, 67, 403]
11.183[308, 594, 591, 101, 49, 38, 66, 365]
11.205[258, 526, 631, 97, 39, 29, 49, 271]
11.222[253, 511, 567, 93, 35, 28, 47, 288]
11.243[249, 559, 553, 98, 38, 28, 41, 244]
11.265[242, 607, 537, 100, 39, 28, 47, 332]
11.282[232, 601, 514, 102, 43, 27, 48, 331]
11.302[255, 597, 450, 94, 47, 30, 44, 393]
11.325[260, 618, 444, 108, 50, 32, 54, 446]
11.342[289, 657, 449, 106, 51, 31, 56, 469]
11.363[280, 611, 448, 106, 50, 31, 51, 420]
11.385[285, 594, 404, 99, 46, 31, 62, 450]
11.401[239, 560, 421, 97, 43, 31, 72, 496]
11.423[241, 558, 384, 76, 38, 29, 67, 447]
11.445[216, 450, 358, 70, 35, 30, 71, 432]
11.462[223, 519, 484, 91, 38, 33, 72, 448]
11.483[233, 568, 502, 92, 40, 33, 64, 429]
11.505[248, 601, 509, 94, 38, 30, 53, 313]
11.522[244, 581, 504, 93, 41, 33, 62, 381]
11.543[250, 657, 502, 97, 43, 33, 56, 372]
11.565[249, 675, 353, 76, 39, 31, 56, 351]
11.582[238, 645, 352, 81, 37, 30, 56, 349]
11.603[247, 615, 345, 82, 39, 33, 60, 378]
11.625[285, 640, 371, 92, 40, 33, 50, 298]
11.648[278, 577, 386, 97, 40, 31, 52, 323]
11.663[275, 535, 409, 104, 40, 32, 55, 353]
11.693[285, 574, 442, 103, 40, 33, 52, 352]
11.708[273, 654, 447, 105, 42, 32, 49, 347]
11.723[225, 720, 498, 108, 43, 32, 47, 382]
11.745[216, 738, 570, 116, 45, 32, 52, 376]
11.767[214, 718, 608, 116, 46, 31, 48, 387]
11.782[194, 704, 600, 119, 46, 31, 51, 399]
11.806[161, 676, 591, 115, 45, 29, 49, 356]
11.827[209, 565, 574, 112, 40, 28, 52, 403]
11.85[211, 555, 539, 109, 43, 31, 48, 407]
11.866[222, 568, 490, 101, 41, 29, 48, 375]
11.888[239, 514, 496, 101, 42, 29, 47, 443]
11.903[261, 495, 514, 108, 39, 30, 50, 453]
11.925[240, 550, 482, 101, 44, 32, 58, 448]
11.948[236, 528, 437, 91, 39, 28, 59, 457]
11.963[203, 525, 465, 97, 39, 29, 56, 455]
11.985[191, 563, 465, 105, 43, 30, 59, 397]
12.008[224, 575, 478, 97, 45, 30, 58, 407]
12.023[232, 557, 491, 93, 43, 29, 47, 328]
12.045[273, 553, 541, 99, 44, 31, 50, 314]
12.068[285, 566, 596, 101, 48, 32, 58, 357]
12.083[303, 570, 591, 89, 44, 33, 57, 347]
12.105[269, 548, 550, 87, 43, 33, 57, 341]
12.128[259, 605, 575, 103, 47, 33, 59, 382]
12.143[252, 667, 551, 113, 50, 32, 60, 423]
12.165[259, 637, 497, 112, 51, 31, 54, 373]
12.188[255, 664, 522, 117, 50, 30, 52, 420]
12.203[261, 677, 580, 122, 52, 33, 56, 443]
12.225[267, 637, 609, 116, 47, 32, 59, 463]
12.247[267, 672, 589, 100, 44, 33, 58, 446]
12.262[278, 695, 553, 104, 45, 35, 64, 464]
12.285[262, 684, 534, 103, 45, 34, 62, 413]
12.308[254, 644, 536, 105, 41, 30, 60, 371]
12.323[265, 657, 487, 103, 41, 30, 54, 334]
12.345[250, 571, 474, 105, 39, 30, 52, 324]
12.368[246, 552, 547, 106, 35, 31, 46, 292]
12.383[252, 525, 530, 99, 34, 31, 52, 397]
12.405[291, 542, 493, 97, 37, 33, 50, 411]
12.428[296, 519, 463, 97, 37, 32, 53, 395]
12.442[292, 525, 496, 101, 39, 29, 49, 379]
12.465[275, 487, 523, 113, 40, 25, 51, 394]
12.488[271, 578, 519, 113, 42, 27, 54, 360]
12.503[243, 606, 613, 123, 39, 24, 60, 394]
12.525[258, 569, 697, 137, 41, 26, 66, 464]
12.556[277, 550, 720, 135, 38, 28, 68, 472]
12.563[278, 634, 657, 120, 38, 28, 67, 470]
12.585[282, 627, 698, 122, 37, 29, 69, 482]
12.608[286, 659, 640, 109, 41, 31, 69, 493]
12.63[246, 683, 599, 91, 40, 29, 63, 416]
12.645[214, 693, 578, 92, 39, 28, 61, 409]
12.667[220, 619, 621, 103, 36, 29, 58, 413]
12.69[250, 547, 679, 126, 38, 28, 52, 368]
12.705[255, 496, 670, 128, 37, 29, 50, 334]
12.729[278, 483, 649, 125, 37, 30, 52, 393]
12.75[278, 480, 669, 127, 42, 32, 56, 393]
12.765[277, 548, 623, 117, 43, 31, 55, 369]
12.788[290, 568, 532, 97, 42, 31, 56, 378]
12.81[268, 555, 495, 90, 39, 29, 52, 383]
12.825[265, 594, 485, 90, 41, 28, 46, 340]
12.848[272, 599, 425, 85, 38, 28, 43, 321]
12.87[272, 555, 451, 86, 38, 30, 50, 383]
12.885[246, 518, 445, 90, 40, 28, 50, 363]
12.908[242, 531, 481, 98, 44, 31, 55, 350]
12.93[279, 482, 495, 100, 43, 32, 64, 400]
12.945[301, 471, 515, 103, 43, 31, 67, 433]
12.968[305, 482, 506, 107, 42, 31, 65, 440]
12.99[296, 484, 502, 99, 36, 30, 62, 432]
13.006[299, 498, 490, 96, 37, 29, 69, 483]
13.028[258, 517, 446, 92, 41, 29, 60, 454]
13.05[238, 556, 404, 86, 39, 28, 59, 492]
13.065[226, 535, 358, 77, 42, 27, 58, 483]
13.088[210, 537, 309, 73, 42, 29, 59, 475]
13.11[200, 494, 267, 66, 40, 28, 49, 429]
13.125[221, 553, 286, 70, 35, 28, 48, 399]
13.148[199, 519, 298, 66, 36, 29, 50, 373]
13.17[238, 571, 345, 72, 37, 29, 52, 370]
13.185[271, 537, 367, 78, 41, 28, 51, 382]
13.208[289, 580, 423, 83, 43, 28, 49, 355]
13.23[271, 593, 456, 86, 44, 28, 54, 428]
13.245[287, 566, 465, 90, 46, 31, 50, 389]
13.268[295, 553, 518, 93, 43, 31, 47, 375]
13.29[271, 576, 504, 89, 40, 31, 48, 392]
13.305[274, 553, 462, 82, 36, 31, 55, 425]
13.328[280, 485, 556, 83, 34, 31, 51, 362]
13.358[282, 493, 567, 87, 30, 30, 53, 386]
13.365[282, 479, 493, 79, 35, 31, 58, 425]
13.388[300, 490, 502, 77, 33, 31, 59, 422]
13.411[285, 509, 501, 79, 32, 30, 53, 402]
13.425[263, 482, 388, 72, 32, 29, 54, 413]
13.448[249, 500, 389, 63, 33, 27, 50, 378]
13.47[217, 547, 434, 65, 27, 25, 45, 308]
13.485[197, 549, 473, 69, 27, 25, 50, 337]
13.508[215, 523, 483, 71, 32, 26, 56, 374]
13.53[224, 515, 508, 77, 32, 27, 56, 372]
13.553[244, 522, 485, 75, 30, 26, 59, 396]
13.568[233, 518, 459, 75, 31, 27, 59, 418]
13.59[260, 488, 429, 77, 33, 25, 58, 417]
13.614[237, 491, 436, 79, 34, 24, 55, 391]
13.636[265, 523, 370, 78, 34, 26, 57, 378]
13.65[254, 499, 383, 90, 39, 28, 54, 390]
13.681[245, 487, 359, 88, 38, 29, 49, 393]
13.688[212, 518, 335, 86, 39, 29, 48, 358]
13.71[271, 491, 366, 97, 39, 31, 52, 390]
13.733[244, 529, 365, 91, 39, 28, 53, 420]
13.748[230, 529, 374, 81, 35, 26, 51, 428]
13.77[234, 495, 389, 84, 35, 26, 52, 422]
13.793[241, 496, 401, 84, 33, 26, 50, 410]
13.808[189, 502, 384, 72, 32, 27, 62, 474]
13.83[213, 455, 399, 79, 31, 25, 60, 483]
13.853[247, 489, 436, 94, 38, 27, 62, 454]
13.868[249, 473, 423, 92, 36, 27, 69, 449]
13.89[247, 477, 442, 97, 40, 28, 68, 443]
13.913[249, 505, 415, 101, 43, 28, 56, 343]
13.928[224, 475, 403, 95, 44, 28, 53, 337]
13.95[221, 486, 361, 85, 39, 28, 59, 383]
13.973[228, 526, 404, 91, 41, 27, 50, 367]
13.988[298, 535, 377, 92, 40, 28, 52, 375]
14.01[296, 519, 419, 91, 38, 28, 51, 399]
14.033[329, 559, 421, 92, 39, 29, 53, 401]
14.048[318, 527, 423, 87, 40, 29, 48, 368]
14.071[310, 493, 418, 90, 39, 30, 48, 369]
14.093[273, 460, 429, 85, 38, 28, 49, 405]
14.108[281, 477, 374, 79, 35, 28, 58, 386]
14.13[254, 444, 354, 79, 36, 27, 57, 367]
14.154[254, 485, 378, 83, 35, 26, 57, 367]
14.168[272, 458, 384, 90, 34, 24, 65, 402]
14.191[242, 459, 377, 90, 36, 24, 62, 365]
14.213[231, 458, 396, 89, 37, 22, 52, 340]
14.228[229, 507, 436, 92, 34, 25, 58, 392]
14.251[232, 475, 393, 90, 37, 27, 60, 417]
14.274[245, 574, 369, 77, 38, 27, 52, 389]
14.288[236, 552, 358, 78, 36, 27, 52, 393]
14.319[240, 583, 343, 79, 36, 27, 53, 406]
14.334[279, 560, 335, 91, 39, 25, 45, 353]
14.348[274, 588, 334, 90, 37, 26, 42, 315]
14.371[251, 537, 311, 91, 37, 26, 42, 302]
14.394[268, 589, 366, 87, 36, 24, 49, 362]
14.408[274, 543, 364, 85, 38, 28, 52, 389]
14.431[218, 642, 386, 67, 35, 28, 53, 400]
14.454[219, 624, 398, 69, 36, 31, 59, 417]
14.476[214, 584, 412, 69, 40, 32, 61, 434]
14.491[212, 587, 388, 74, 40, 36, 68, 398]
14.513[201, 579, 403, 71, 38, 35, 67, 381]
14.536[206, 459, 351, 70, 39, 34, 67, 365]
14.551[224, 491, 400, 71, 39, 32, 62, 348]
14.573[218, 538, 423, 71, 33, 31, 60, 348]
14.596[196, 510, 395, 67, 35, 28, 45, 327]
14.612[232, 599, 399, 70, 37, 28, 48, 348]
14.633[237, 576, 392, 69, 36, 32, 46, 340]
14.656[257, 584, 325, 66, 38, 33, 52, 379]
14.671[297, 572, 289, 65, 39, 33, 54, 369]
14.693[307, 544, 285, 66, 40, 34, 62, 424]
14.716[309, 460, 237, 64, 37, 33, 61, 379]
14.731[307, 520, 292, 65, 42, 33, 62, 374]
14.753[290, 523, 289, 65, 40, 31, 65, 391]
14.776[284, 516, 298, 64, 40, 31, 66, 428]
14.791[278, 521, 304, 63, 37, 31, 62, 380]
14.813[252, 504, 336, 69, 35, 31, 65, 414]
14.836[261, 463, 310, 68, 32, 28, 63, 418]
14.851[263, 446, 370, 71, 29, 26, 63, 402]
14.873[223, 435, 355, 69, 28, 26, 62, 361]
14.896[302, 441, 396, 70, 29, 25, 64, 421]
14.911[290, 439, 392, 71, 32, 26, 57, 390]
14.934[289, 439, 405, 69, 30, 25, 60, 406]
14.956[312, 443, 364, 62, 29, 27, 49, 380]
14.97[336, 458, 405, 64, 31, 28, 54, 397]
14.993[286, 470, 386, 64, 35, 33, 49, 350]
15.023[303, 463, 432, 81, 34, 32, 48, 372]
15.03[320, 439, 400, 80, 35, 32, 50, 450]
15.053[279, 378, 422, 80, 37, 31, 52, 428]
15.076[262, 372, 488, 98, 36, 30, 47, 405]
15.091[330, 384, 489, 105, 34, 24, 46, 492]
15.113[317, 412, 445, 88, 36, 26, 49, 514]
15.143[307, 442, 482, 96, 35, 27, 46, 464]
15.15[300, 495, 452, 96, 37, 28, 49, 480]
15.173[314, 507, 377, 86, 39, 29, 50, 490]
15.196[231, 506, 386, 80, 38, 30, 53, 419]
15.21[241, 496, 408, 81, 35, 29, 55, 393]
15.233[264, 533, 368, 79, 38, 31, 57, 404]
15.256[303, 518, 401, 82, 39, 32, 62, 428]
15.271[273, 505, 360, 77, 37, 30, 61, 423]
15.294[265, 498, 329, 70, 38, 29, 61, 420]
15.316[264, 493, 286, 65, 36, 30, 57, 394]
15.33[220, 465, 288, 71, 33, 30, 59, 349]
15.353[177, 409, 244, 68, 29, 28, 52, 329]
15.376[185, 385, 256, 64, 28, 29, 54, 346]
15.39[202, 358, 278, 70, 27, 27, 56, 376]
15.413[198, 346, 319, 74, 29, 27, 56, 401]
15.436[207, 317, 334, 65, 28, 24, 51, 406]
15.459[261, 346, 351, 63, 29, 23, 51, 391]
15.474[275, 359, 352, 63, 29, 23, 48, 394]
15.496[262, 402, 317, 59, 30, 26, 44, 340]
15.518[258, 432, 299, 55, 28, 27, 42, 318]
15.533[250, 447, 298, 52, 30, 26, 41, 296]
15.556[183, 462, 283, 50, 31, 27, 42, 311]
15.578[181, 444, 289, 61, 34, 27, 40, 303]
15.593[177, 456, 311, 72, 36, 28, 39, 306]
15.616[179, 434, 301, 77, 38, 29, 57, 376]
15.638[190, 412, 289, 83, 40, 30, 55, 408]
15.653[226, 434, 342, 87, 40, 30, 53, 383]
15.676[249, 438, 370, 85, 37, 31, 55, 421]
15.698[278, 431, 393, 73, 35, 30, 68, 414]
15.713[286, 480, 403, 71, 34, 30, 60, 400]
15.737[302, 470, 427, 79, 32, 29, 62, 376]
15.759[288, 414, 410, 85, 31, 31, 66, 436]
15.773[260, 408, 448, 92, 32, 29, 68, 395]
15.796[277, 383, 430, 96, 31, 29, 58, 410]
15.818[269, 430, 441, 100, 32, 30, 55, 379]
15.833[255, 506, 455, 92, 32, 28, 56, 390]
15.857[246, 544, 485, 95, 33, 26, 59, 413]
15.878[243, 555, 437, 90, 34, 28, 53, 398]
15.894[221, 580, 467, 95, 36, 28, 58, 414]
15.917[243, 557, 438, 94, 37, 27, 61, 466]
15.938[260, 507, 418, 92, 37, 31, 64, 512]
15.954[285, 465, 354, 80, 38, 34, 58, 454]
15.977[284, 482, 342, 74, 40, 34, 59, 460]
15.999[268, 514, 303, 67, 42, 33, 56, 462]
16.014[263, 491, 298, 58, 40, 34, 52, 410]
16.037[269, 554, 332, 57, 39, 31, 51, 344]
16.058[237, 559, 338, 67, 38, 28, 52, 346]
16.074[241, 547, 339, 65, 36, 31, 58, 339]
16.095[265, 467, 361, 63, 31, 31, 56, 318]
16.118[260, 443, 363, 70, 32, 31, 65, 340]
16.134[252, 374, 347, 77, 33, 32, 60, 347]
16.155[273, 372, 349, 71, 34, 33, 60, 345]
16.178[274, 349, 353, 74, 31, 30, 54, 352]
16.194[245, 382, 344, 75, 32, 30, 55, 402]
16.215[254, 427, 383, 75, 33, 29, 44, 381]
16.238[261, 407, 367, 66, 32, 27, 48, 381]
16.254[264, 449, 397, 69, 33, 30, 50, 373]
16.276[269, 460, 399, 64, 36, 29, 59, 385]
16.298[304, 432, 396, 69, 36, 29, 56, 327]
16.32[287, 387, 351, 63, 35, 29, 57, 339]
16.336[292, 371, 360, 72, 36, 29, 58, 349]
16.358[325, 354, 322, 71, 33, 25, 54, 386]
16.38[324, 371, 317, 74, 33, 25, 48, 380]
16.395[297, 397, 313, 70, 31, 25, 45, 369]
16.419[305, 384, 317, 70, 32, 24, 51, 400]
16.441[274, 407, 296, 61, 30, 24, 48, 386]
16.456[224, 388, 325, 60, 31, 25, 52, 384]
16.478[274, 432, 415, 80, 33, 23, 57, 410]
16.501[279, 436, 422, 81, 34, 24, 57, 433]
16.515[277, 439, 436, 82, 32, 25, 51, 389]
16.538[295, 458, 428, 85, 34, 27, 54, 383]
16.56[294, 481, 443, 85, 35, 29, 57, 397]
16.575[245, 439, 378, 67, 31, 31, 56, 383]
16.598[234, 445, 410, 73, 29, 29, 58, 361]
16.62[241, 479, 412, 71, 31, 29, 62, 382]
16.635[234, 451, 436, 75, 29, 26, 68, 403]
16.658[267, 423, 423, 84, 31, 23, 73, 427]
16.689[285, 406, 416, 92, 33, 23, 73, 407]
16.695[278, 363, 350, 85, 34, 23, 72, 458]
16.718[270, 323, 332, 90, 36, 25, 68, 430]
16.74[296, 394, 375, 87, 35, 27, 62, 404]
16.755[264, 369, 366, 79, 38, 28, 54, 358]
16.778[257, 384, 394, 77, 36, 26, 56, 413]
16.801[261, 418, 408, 79, 38, 27, 58, 371]
16.815[274, 419, 451, 78, 36, 26, 60, 395]
16.838[266, 414, 431, 81, 36, 24, 57, 412]
16.861[256, 431, 454, 82, 32, 23, 57, 455]
16.875[270, 432, 415, 79, 34, 25, 53, 402]
16.898[271, 404, 404, 74, 33, 24, 48, 391]
16.921[257, 377, 354, 70, 30, 26, 44, 367]
16.935[258, 281, 349, 75, 30, 27, 52, 385]
16.958[268, 279, 317, 75, 30, 30, 49, 317]
16.981[235, 297, 342, 68, 29, 31, 49, 315]
16.995[249, 335, 361, 72, 29, 31, 56, 377]
17.018[251, 376, 396, 75, 31, 30, 56, 370]
17.041[240, 391, 415, 70, 33, 29, 52, 374]
17.055[268, 432, 392, 69, 33, 27, 53, 392]
17.079[273, 431, 365, 69, 34, 26, 53, 407]
17.101[283, 422, 374, 82, 39, 28, 51, 340]
17.115[277, 402, 390, 87, 41, 30, 58, 375]
17.138[246, 418, 327, 81, 38, 28, 58, 345]
17.16[221, 390, 376, 90, 38, 27, 61, 352]
17.175[232, 364, 383, 100, 41, 28, 59, 382]
17.198[224, 348, 360, 91, 37, 26, 55, 376]
17.22[221, 345, 377, 89, 36, 25, 54, 400]
17.243[231, 296, 412, 95, 37, 27, 56, 416]
17.258[253, 300, 444, 96, 37, 27, 56, 379]
17.28[248, 340, 433, 88, 33, 27, 59, 334]
17.295[236, 375, 498, 90, 31, 27, 65, 394]
17.319[234, 374, 449, 87, 31, 26, 63, 406]
17.34[237, 400, 459, 84, 29, 27, 61, 388]
17.363[225, 398, 524, 98, 32, 28, 58, 403]
17.378[224, 365, 520, 94, 32, 29, 69, 513]
17.401[239, 353, 468, 93, 33, 30, 64, 470]
17.423[327, 427, 510, 93, 33, 33, 62, 431]
17.438[326, 444, 478, 97, 39, 31, 65, 478]
17.46[319, 435, 379, 81, 36, 30, 63, 478]
17.483[329, 438, 393, 79, 35, 29, 49, 363]
17.498[320, 409, 392, 77, 33, 29, 46, 406]
17.52[231, 327, 345, 73, 32, 25, 54, 439]
17.543[266, 294, 358, 68, 27, 25, 51, 384]
17.558[252, 270, 314, 66, 30, 27, 54, 367]
17.581[234, 286, 341, 71, 30, 27, 56, 374]
17.603[221, 286, 321, 67, 30, 26, 55, 319]
17.618[219, 288, 401, 80, 33, 29, 58, 305]
17.64[179, 282, 380, 78, 34, 29, 57, 334]
17.663[182, 385, 367, 85, 35, 30, 58, 361]
17.678[169, 362, 398, 95, 34, 28, 54, 357]
17.7[207, 371, 426, 101, 37, 28, 57, 352]
17.723[205, 386, 345, 91, 35, 24, 49, 361]
17.738[202, 449, 385, 93, 37, 27, 48, 382]
17.76[202, 402, 378, 84, 35, 23, 47, 395]
17.783[226, 397, 329, 72, 34, 24, 71, 415]
17.798[193, 389, 438, 74, 36, 26, 73, 417]
17.821[192, 359, 451, 74, 34, 27, 70, 384]
17.843[190, 328, 435, 77, 33, 27, 75, 400]
17.858[208, 319, 458, 71, 33, 27, 73, 400]
17.88[193, 378, 451, 68, 33, 30, 51, 364]
17.903[197, 386, 380, 69, 30, 30, 48, 395]
17.918[213, 402, 393, 69, 31, 29, 59, 433]
17.94[220, 377, 392, 61, 30, 28, 53, 384]
17.963[207, 405, 400, 64, 30, 28, 54, 375]
17.978[194, 400, 437, 64, 29, 26, 56, 386]
18.0[181, 410, 379, 51, 28, 23, 55, 358]
18.023[180, 409, 360, 52, 30, 23, 43, 288]
18.038[167, 386, 405, 72, 31, 23, 42, 285]
18.061[157, 343, 384, 66, 31, 23, 41, 300]
18.083[193, 355, 356, 73, 34, 23, 40, 300]
18.098[200, 367, 408, 82, 37, 25, 38, 301]
18.121[204, 373, 409, 83, 37, 25, 37, 297]
18.143[223, 413, 392, 68, 36, 25, 37, 277]
18.166[231, 445, 387, 76, 36, 25, 47, 294]
18.181[221, 423, 363, 72, 37, 27, 51, 326]
18.203[236, 446, 326, 66, 35, 26, 53, 330]
18.219[228, 488, 349, 67, 33, 25, 58, 370]
18.241[207, 486, 339, 69, 32, 26, 59, 372]
18.263[192, 463, 356, 62, 32, 26, 50, 320]
18.286[178, 446, 363, 61, 29, 23, 43, 278]
18.301[160, 410, 344, 63, 30, 24, 44, 304]
18.323[201, 347, 362, 69, 31, 25, 43, 291]
18.362[206, 371, 319, 69, 30, 26, 42, 288]
18.363[202, 374, 308, 70, 29, 23, 40, 276]
18.384[226, 388, 363, 79, 32, 24, 40, 281]
18.406[267, 373, 372, 79, 33, 28, 58, 327]
18.421[244, 388, 324, 74, 34, 29, 59, 314]
18.443[252, 339, 350, 77, 35, 30, 61, 323]
18.467[255, 316, 378, 80, 34, 32, 64, 359]
18.48[236, 338, 353, 74, 32, 31, 63, 348]
18.503[213, 345, 422, 89, 34, 29, 64, 395]
18.526[196, 326, 441, 91, 33, 30, 63, 379]
18.54[182, 340, 490, 99, 35, 29, 63, 402]
18.563[191, 329, 497, 103, 36, 28, 62, 385]
18.586[200, 374, 481, 99, 36, 30, 64, 389]
18.609[185, 375, 479, 101, 34, 29, 51, 359]
18.623[193, 378, 495, 95, 35, 26, 48, 405]
18.646[199, 416, 440, 83, 30, 23, 45, 370]
18.66[218, 432, 423, 85, 30, 22, 42, 358]
18.683[230, 356, 445, 95, 32, 23, 55, 447]
18.706[225, 344, 373, 77, 30, 22, 51, 387]
18.72[267, 377, 346, 81, 29, 22, 54, 385]
18.743[267, 310, 336, 80, 29, 25, 51, 427]
18.766[241, 300, 327, 73, 29, 28, 53, 423]
18.78[215, 292, 276, 59, 27, 27, 52, 380]
18.803[216, 328, 280, 55, 25, 26, 53, 370]
18.826[172, 368, 267, 51, 25, 28, 57, 351]
18.841[172, 415, 347, 59, 26, 25, 62, 318]
18.863[191, 427, 359, 59, 27, 25, 63, 331]
18.886[217, 415, 424, 68, 28, 26, 69, 319]
18.9[218, 388, 451, 79, 32, 28, 68, 314]
18.923[222, 321, 447, 81, 32, 27, 63, 296]
18.946[214, 333, 459, 77, 34, 28, 60, 317]
18.961[211, 362, 459, 78, 32, 28, 60, 315]
18.983[191, 367, 407, 71, 32, 27, 41, 317]
19.006[214, 367, 462, 77, 33, 28, 53, 345]
19.02[213, 409, 514, 75, 33, 28, 57, 391]
19.043[216, 394, 447, 71, 32, 28, 58, 362]
19.066[213, 366, 456, 78, 34, 30, 61, 398]
19.08[223, 368, 456, 78, 34, 31, 67, 409]
19.103[196, 369, 375, 64, 31, 30, 63, 412]
19.126[193, 315, 277, 63, 32, 30, 62, 403]
19.14[193, 259, 294, 63, 31, 30, 62, 418]
19.163[214, 253, 330, 62, 31, 28, 59, 399]
19.186[206, 282, 322, 61, 34, 27, 58, 396]
19.21[205, 305, 340, 61, 35, 25, 53, 373]
19.223[199, 286, 343, 61, 34, 23, 52, 334]
19.246[211, 288, 327, 58, 33, 21, 48, 336]
19.269[173, 280, 239, 43, 31, 21, 46, 308]
19.283[161, 250, 236, 39, 28, 21, 34, 228]
19.306[143, 214, 182, 31, 25, 20, 32, 209]
19.329[123, 227, 165, 27, 24, 21, 27, 181]
19.343[79, 210, 142, 26, 23, 19, 24, 109]
19.366[106, 170, 97, 23, 22, 19, 22, 85]
19.389[100, 147, 62, 21, 20, 18, 19, 67]
19.403[100, 148, 54, 21, 18, 18, 18, 49]
19.426[90, 114, 50, 22, 18, 18, 17, 44]
19.449[85, 103, 47, 20, 18, 20, 16, 41]
19.463[42, 89, 37, 19, 19, 19, 18, 29]
19.486[36, 79, 31, 21, 19, 19, 17, 25]
19.509[26, 50, 25, 20, 18, 19, 19, 24]
19.523[27, 41, 23, 20, 19, 20, 19, 24]
19.546[23, 36, 25, 22, 19, 18, 20, 21]
19.569[21, 32, 45, 22, 21, 19, 18, 22]
19.583[21, 29, 47, 21, 21, 20, 18, 21]
19.606[21, 25, 47, 20, 23, 20, 17, 21]
19.629[20, 25, 47, 20, 23, 18, 18, 22]
19.643[19, 22, 46, 18, 26, 20, 17, 22]
19.666[19, 19, 27, 19, 23, 18, 17, 21]
19.689[19, 19, 25, 18, 23, 17, 19, 21]
19.703[19, 19, 31, 20, 22, 16, 18, 21]
19.726[20, 20, 30, 19, 21, 19, 19, 19]
19.749[21, 20, 30, 19, 21, 17, 20, 18]
19.763[19, 21, 30, 17, 22, 18, 20, 19]
19.786[19, 21, 27, 20, 24, 19, 19, 21]
19.809[18, 21, 19, 19, 24, 20, 20, 20]
19.823[19, 21, 19, 19, 24, 19, 20, 21]
19.846[19, 20, 21, 21, 24, 20, 21, 21]
19.869[19, 19, 20, 22, 24, 19, 20, 19]
19.883[17, 17, 22, 21, 22, 19, 19, 19]
19.906[19, 17, 21, 20, 22, 18, 19, 19]
19.929[19, 16, 19, 21, 22, 17, 19, 18]
19.943[19, 17, 18, 19, 20, 18, 17, 19]
19.966[19, 18, 19, 19, 19, 19, 17, 19]
19.989[20, 18, 18, 21, 18, 20, 19, 19]
20.011[19, 20, 17, 21, 18, 20, 18, 19]
20.026[20, 21, 19, 20, 17, 20, 19, 20]
20.049[20, 22, 19, 20, 16, 20, 20, 21]
20.063[20, 22, 17, 20, 17, 18, 20, 22]
20.086[20, 22, 19, 21, 18, 19, 18, 21]
20.109[21, 22, 22, 20, 18, 20, 18, 21]
20.123[21, 22, 21, 22, 18, 19, 17, 21]
20.146[22, 22, 24, 25, 19, 18, 17, 19]
20.169[21, 22, 36, 25, 18, 19, 19, 19]
20.191[20, 22, 48, 27, 19, 16, 20, 19]
20.206[22, 20, 59, 27, 20, 16, 22, 20]
20.23[21, 20, 63, 29, 21, 17, 21, 19]
20.251[20, 20, 63, 26, 22, 17, 20, 18]
20.266[20, 20, 63, 25, 23, 17, 19, 19]
20.289[20, 19, 55, 23, 21, 18, 18, 18]
20.311[17, 19, 48, 22, 21, 18, 16, 19]
20.326[19, 18, 45, 18, 21, 19, 18, 20]
20.349[20, 19, 44, 20, 21, 21, 19, 22]
20.371[20, 20, 42, 21, 21, 21, 20, 21]
20.386[20, 21, 52, 20, 20, 20, 19, 22]
20.409[21, 21, 49, 21, 20, 20, 19, 22]
20.431[19, 23, 52, 21, 19, 20, 19, 19]
20.454[18, 21, 55, 21, 17, 19, 20, 20]
20.469[20, 21, 66, 23, 18, 20, 18, 19]
20.491[20, 20, 63, 23, 19, 20, 17, 20]
20.506[19, 21, 66, 24, 19, 20, 20, 19]
20.529[19, 19, 65, 26, 21, 21, 19, 20]
20.551[17, 19, 64, 26, 20, 21, 17, 18]
20.566[16, 20, 48, 24, 18, 21, 16, 20]
20.589[17, 20, 61, 26, 19, 21, 18, 18]
20.611[18, 20, 61, 24, 21, 21, 17, 18]
20.626[20, 20, 58, 23, 20, 21, 19, 18]
20.649[21, 22, 56, 23, 21, 21, 21, 19]
20.671[21, 20, 55, 22, 23, 19, 22, 19]
20.685[21, 22, 33, 19, 22, 19, 24, 19]
20.709[20, 22, 22, 18, 19, 18, 24, 20]
20.731[20, 23, 32, 16, 20, 19, 24, 20]
20.745[18, 21, 34, 16, 19, 17, 23, 19]
20.769[18, 22, 33, 16, 16, 16, 23, 19]
20.791[17, 20, 33, 18, 16, 17, 23, 19]
20.805[17, 20, 33, 20, 17, 18, 21, 20]
20.829[17, 19, 23, 21, 18, 18, 19, 19]
20.851[20, 20, 22, 21, 20, 20, 20, 19]
20.873[20, 20, 21, 21, 20, 21, 20, 20]
20.889[20, 19, 20, 21, 21, 21, 18, 22]
20.911[20, 20, 19, 21, 21, 21, 21, 22]
20.933[20, 21, 20, 21, 23, 21, 21, 22]
20.949[18, 20, 18, 21, 22, 22, 19, 22]
20.97[17, 21, 20, 20, 21, 22, 20, 20]
20.993[19, 21, 20, 20, 21, 21, 20, 20]
21.009[19, 20, 21, 19, 22, 21, 18, 19]
21.03[18, 21, 22, 18, 19, 22, 18, 20]
21.053[19, 21, 21, 17, 23, 20, 19, 20]
21.07[18, 20, 20, 20, 24, 20, 19, 20]
21.09[15, 21, 20, 18, 24, 21, 19, 19]
21.113[16, 22, 18, 18, 23, 21, 21, 20]
21.129[18, 21, 18, 20, 23, 19, 21, 19]
21.15[19, 22, 20, 21, 19, 18, 21, 18]
21.173[21, 23, 22, 18, 19, 21, 21, 18]
21.19[22, 22, 22, 21, 19, 21, 22, 18]
21.21[21, 20, 22, 21, 20, 20, 23, 16]
21.233[20, 22, 22, 20, 21, 21, 22, 17]
21.25[19, 21, 23, 23, 20, 21, 22, 19]
21.271[18, 21, 25, 22, 21, 19, 21, 19]
21.293[18, 22, 26, 20, 20, 19, 20, 19]
21.309[17, 22, 25, 21, 21, 20, 16, 20]
21.33[18, 21, 25, 23, 20, 20, 17, 19]
21.353[17, 21, 24, 19, 21, 21, 17, 19]
21.369[18, 20, 21, 19, 23, 23, 16, 19]
21.391[18, 19, 22, 21, 23, 22, 17, 17]
21.421[20, 21, 22, 21, 24, 23, 18, 17]
21.435[20, 23, 22, 20, 24, 22, 20, 17]
21.45[20, 22, 21, 22, 23, 22, 20, 18]
21.481[20, 22, 20, 22, 20, 18, 21, 18]
21.489[21, 21, 20, 21, 22, 18, 21, 19]
21.511[20, 19, 19, 21, 18, 18, 21, 19]
21.533[22, 18, 21, 21, 18, 19, 19, 20]
21.549[22, 17, 21, 19, 18, 17, 20, 19]
21.571[22, 19, 21, 19, 20, 19, 20, 19]
21.593[22, 19, 20, 21, 18, 18, 19, 20]
21.609[21, 22, 22, 19, 19, 19, 20, 19]
21.631[18, 22, 22, 19, 20, 18, 19, 18]
21.654[19, 22, 23, 19, 21, 19, 19, 17]
21.668[18, 22, 23, 18, 21, 19, 19, 21]
21.69[17, 23, 22, 16, 22, 19, 17, 19]
21.713[19, 21, 20, 16, 23, 19, 18, 20]
21.729[20, 20, 20, 16, 21, 18, 19, 19]
21.751[19, 21, 20, 16, 20, 18, 17, 19]
21.773[18, 21, 22, 17, 20, 18, 17, 17]
21.788[19, 18, 22, 17, 20, 21, 17, 18]
21.81[17, 20, 24, 18, 17, 19, 17, 18]
21.833[16, 21, 23, 20, 16, 19, 17, 19]
21.849[19, 21, 24, 20, 17, 19, 18, 18]
21.87[20, 21, 26, 23, 16, 19, 19, 18]
21.893[22, 24, 31, 23, 16, 17, 20, 17]
21.908[23, 22, 31, 22, 17, 17, 21, 18]
21.93[23, 23, 34, 23, 19, 17, 22, 17]
21.953[22, 24, 39, 23, 19, 16, 23, 17]
21.969[20, 25, 37, 20, 19, 17, 23, 16]
21.991[17, 24, 34, 22, 20, 16, 23, 16]
22.013[19, 23, 33, 22, 19, 17, 23, 18]
22.029[20, 23, 33, 20, 20, 19, 22, 18]
22.05[21, 24, 28, 19, 20, 19, 21, 20]
22.081[22, 23, 27, 20, 19, 20, 20, 20]
22.096[22, 25, 26, 19, 17, 20, 19, 20]
22.118[20, 26, 26, 19, 18, 20, 18, 21]
22.133[19, 26, 22, 20, 18, 20, 17, 21]
22.156[21, 24, 21, 21, 18, 21, 17, 20]
22.17[20, 24, 23, 19, 20, 20, 17, 22]
22.201[20, 23, 29, 20, 21, 21, 18, 22]
22.215[20, 25, 30, 19, 21, 21, 19, 22]
22.23[19, 24, 32, 17, 20, 20, 19, 22]
22.253[18, 23, 30, 19, 20, 19, 20, 22]
22.276[19, 21, 29, 20, 20, 18, 20, 21]
22.29[18, 21, 23, 18, 19, 18, 19, 20]
22.313[19, 18, 22, 19, 19, 17, 19, 17]
22.336[21, 18, 20, 21, 20, 17, 19, 19]
22.35[18, 20, 22, 20, 19, 17, 18, 18]
22.373[19, 22, 26, 20, 19, 19, 18, 19]
22.396[19, 25, 31, 22, 19, 19, 18, 19]
22.41[16, 25, 31, 24, 20, 19, 17, 19]
22.433[16, 25, 31, 23, 19, 18, 17, 18]
22.456[17, 25, 30, 23, 21, 20, 16, 19]
22.471[17, 23, 28, 22, 20, 20, 17, 17]
22.493[18, 22, 29, 22, 20, 19, 18, 17]
22.516[19, 22, 28, 19, 18, 21, 19, 18]
22.53[20, 21, 27, 18, 19, 21, 20, 19]
22.553[21, 23, 28, 21, 17, 19, 21, 19]
22.584[20, 24, 29, 20, 17, 20, 22, 18]
22.591[22, 24, 24, 20, 19, 20, 21, 19]
22.613[22, 25, 26, 20, 19, 21, 20, 17]
22.635[23, 24, 28, 22, 20, 22, 19, 17]
22.651[21, 21, 26, 18, 21, 22, 20, 17]
22.673[20, 22, 25, 22, 20, 22, 17, 19]
22.695[19, 21, 28, 21, 19, 21, 18, 18]
22.71[21, 22, 27, 22, 20, 19, 19, 20]
22.733[18, 24, 26, 22, 20, 20, 20, 20]
22.755[20, 25, 28, 22, 21, 20, 20, 21]
22.771[20, 24, 28, 18, 22, 19, 21, 19]
22.793[19, 25, 24, 19, 23, 19, 21, 20]
22.815[18, 23, 25, 18, 23, 21, 22, 19]
22.83[19, 23, 30, 18, 23, 19, 21, 20]
22.853[17, 22, 29, 20, 22, 19, 22, 18]
22.875[18, 22, 28, 22, 22, 18, 22, 20]
22.89[19, 21, 32, 22, 23, 19, 22, 19]
22.913[19, 25, 33, 22, 23, 17, 22, 18]
22.935[19, 25, 29, 22, 21, 18, 22, 18]
22.953[19, 25, 28, 21, 22, 20, 19, 18]
22.973[18, 26, 30, 19, 22, 20, 20, 18]
22.995[17, 26, 24, 20, 20, 20, 18, 17]
23.018[18, 23, 23, 20, 19, 20, 19, 19]
23.033[18, 23, 24, 19, 20, 19, 19, 16]
23.055[20, 23, 27, 19, 18, 20, 21, 17]
23.078[23, 21, 27, 18, 21, 22, 21, 16]
23.093[24, 22, 27, 17, 20, 21, 21, 18]
23.116[26, 145, 35, 19, 21, 20, 20, 17]
23.139[26, 152, 39, 18, 23, 21, 21, 19]
23.153[25, 160, 39, 19, 23, 18, 20, 19]
23.176[23, 164, 38, 20, 21, 17, 19, 20]
23.198[23, 165, 38, 20, 20, 19, 19, 19]
23.213[22, 85, 31, 19, 20, 20, 18, 20]
23.236[20, 70, 27, 20, 19, 19, 17, 18]
23.258[20, 52, 26, 20, 19, 21, 17, 17]
23.273[20, 38, 25, 19, 18, 20, 19, 16]
23.296[19, 37, 27, 21, 21, 20, 19, 18]
23.318[17, 30, 28, 20, 20, 20, 21, 18]
23.333[18, 30, 29, 20, 22, 21, 21, 19]
23.356[18, 29, 29, 18, 22, 19, 21, 19]
23.378[19, 26, 29, 19, 22, 21, 19, 18]
23.393[19, 28, 29, 20, 21, 22, 19, 17]
23.416[21, 37, 29, 19, 22, 22, 18, 17]
23.438[21, 48, 26, 21, 19, 22, 19, 17]
23.453[22, 70, 26, 23, 20, 23, 19, 18]
23.476[23, 71, 26, 22, 21, 22, 20, 19]
23.506[22, 71, 25, 21, 21, 20, 20, 19]
23.513[22, 66, 25, 22, 20, 19, 21, 19]
23.536[23, 60, 26, 20, 20, 19, 19, 19]
23.559[21, 32, 26, 19, 20, 20, 19, 20]
23.573[21, 32, 29, 20, 20, 19, 18, 20]
23.596[21, 30, 28, 19, 19, 19, 20, 21]
23.619[21, 41, 28, 22, 20, 21, 18, 19]
23.633[18, 43, 30, 21, 20, 22, 20, 20]
23.655[20, 49, 31, 21, 21, 20, 19, 19]
23.679[21, 50, 29, 20, 19, 21, 20, 17]
23.693[21, 51, 29, 22, 20, 22, 18, 16]
23.716[22, 45, 29, 21, 20, 21, 20, 17]
23.739[23, 43, 29, 23, 20, 20, 19, 16]
23.753[20, 39, 29, 24, 20, 19, 20, 17]
23.775[19, 45, 30, 24, 21, 18, 20, 18]
23.799[19, 45, 30, 22, 20, 19, 20, 18]
23.813[18, 44, 31, 22, 21, 20, 19, 18]
23.835[18, 43, 28, 23, 22, 20, 21, 18]
23.859[19, 40, 27, 22, 21, 22, 19, 17]
23.873[18, 33, 27, 23, 22, 22, 18, 17]
23.896[19, 31, 28, 24, 24, 22, 20, 18]
23.919[20, 31, 28, 22, 23, 21, 21, 19]
23.933[21, 32, 29, 19, 25, 21, 19, 22]
23.955[20, 32, 28, 21, 26, 20, 19, 21]
23.979[21, 31, 27, 20, 28, 20, 21, 20]
24.002[19, 34, 25, 21, 26, 18, 19, 23]
24.016[19, 32, 24, 20, 26, 18, 18, 23]
24.039[19, 31, 23, 20, 23, 19, 20, 20]
24.061[18, 32, 23, 19, 22, 19, 20, 22]
24.075[21, 30, 23, 19, 20, 19, 19, 24]
24.099[20, 27, 24, 17, 23, 20, 19, 21]
24.121[19, 27, 23, 18, 23, 19, 18, 19]
24.136[19, 26, 24, 19, 25, 18, 17, 19]
24.159[20, 26, 25, 20, 23, 17, 17, 19]
24.181[19, 26, 25, 20, 24, 15, 16, 19]
24.196[20, 26, 27, 20, 22, 17, 17, 18]
24.219[19, 26, 28, 19, 24, 17, 16, 19]
24.241[20, 27, 28, 22, 23, 19, 17, 19]
24.256[19, 26, 30, 21, 23, 19, 16, 18]
24.279[18, 26, 30, 22, 23, 20, 17, 18]
24.301[17, 30, 28, 22, 21, 19, 18, 20]
24.315[19, 31, 25, 23, 19, 19, 17, 19]
24.34[17, 31, 25, 19, 18, 18, 16, 18]
24.361[18, 31, 19, 20, 19, 18, 18, 18]
24.376[19, 31, 21, 20, 18, 18, 18, 18]
24.399[19, 26, 21, 21, 19, 20, 16, 16]
24.421[20, 23, 23, 22, 19, 20, 17, 18]
24.436[20, 21, 23, 21, 19, 20, 18, 20]
24.459[19, 23, 24, 23, 20, 20, 17, 21]
24.481[20, 20, 21, 21, 20, 20, 18, 21]
24.495[20, 21, 20, 21, 20, 17, 18, 21]
24.519[19, 19, 18, 18, 20, 16, 20, 20]
24.542[19, 22, 23, 19, 21, 15, 19, 21]
24.564[19, 25, 26, 16, 20, 16, 19, 21]
24.579[19, 26, 27, 16, 21, 19, 18, 21]
24.601[19, 27, 30, 16, 21, 20, 19, 21]
24.616[18, 30, 31, 16, 20, 19, 16, 21]
24.639[18, 28, 28, 16, 19, 20, 19, 19]
24.661[17, 28, 27, 18, 19, 20, 18, 19]
24.676[17, 28, 26, 19, 19, 18, 19, 20]
24.699[16, 28, 23, 19, 20, 17, 19, 20]
24.721[17, 25, 23, 21, 21, 16, 19, 20]
24.736[16, 26, 23, 22, 21, 17, 18, 20]
24.759[18, 23, 20, 21, 21, 17, 19, 20]
24.781[19, 25, 21, 22, 20, 18, 19, 19]
24.796[21, 25, 21, 22, 20, 19, 19, 19]
24.819[21, 27, 20, 23, 20, 19, 19, 22]
24.841[21, 27, 20, 20, 20, 20, 18, 22]
24.856[19, 26, 20, 21, 20, 20, 19, 22]
24.879[18, 25, 19, 20, 19, 19, 19, 22]
24.902[17, 26, 21, 20, 18, 18, 22, 22]
24.924[16, 26, 22, 20, 19, 19, 21, 19]
24.939[17, 28, 25, 20, 20, 17, 22, 19]
24.961[18, 28, 26, 19, 18, 17, 21, 17]
24.984[19, 27, 27, 20, 21, 18, 20, 19]
24.999[20, 28, 26, 19, 22, 19, 20, 18]
25.021[21, 27, 27, 20, 22, 17, 21, 18]
25.044[21, 25, 25, 21, 22, 19, 20, 19]
25.059[20, 25, 26, 21, 23, 20, 21, 19]
25.081[20, 24, 26, 21, 21, 20, 22, 18]
25.104[20, 22, 26, 20, 21, 21, 21, 20]
25.119[18, 23, 26, 20, 19, 21, 20, 20]
25.141[19, 31, 26, 21, 20, 22, 20, 20]
25.171[19, 32, 25, 21, 21, 23, 19, 21]
25.179[18, 33, 25, 21, 22, 22, 19, 21]
25.201[18, 33, 25, 20, 22, 20, 21, 19]
25.224[18, 32, 24, 19, 22, 20, 20, 18]
25.239[17, 25, 23, 17, 23, 19, 21, 19]
25.261[17, 24, 23, 16, 21, 18, 20, 20]
25.291[17, 25, 22, 16, 22, 17, 22, 20]
25.299[16, 28, 22, 18, 22, 18, 22, 20]
25.321[18, 30, 22, 18, 22, 18, 23, 20]
25.344[18, 29, 23, 18, 22, 17, 22, 18]
25.359[18, 30, 23, 19, 21, 18, 22, 16]
25.381[19, 30, 26, 21, 21, 19, 20, 16]
25.404[20, 28, 27, 20, 24, 19, 19, 16]
25.418[19, 28, 27, 19, 23, 19, 20, 16]
25.441[18, 29, 27, 20, 23, 21, 20, 17]
25.464[19, 28, 26, 21, 24, 21, 21, 18]
25.478[18, 31, 26, 20, 24, 21, 20, 17]
25.501[18, 30, 26, 19, 22, 21, 21, 17]
25.524[18, 29, 25, 20, 22, 21, 20, 18]
25.538[20, 29, 25, 21, 21, 20, 19, 19]
25.561[20, 31, 24, 20, 21, 19, 17, 17]
25.584[20, 30, 23, 20, 20, 19, 18, 19]
25.598[21, 29, 22, 21, 20, 19, 18, 20]
25.621[22, 28, 22, 22, 20, 22, 18, 20]
25.644[21, 27, 20, 22, 20, 22, 17, 21]
25.658[21, 25, 21, 21, 21, 21, 18, 23]
25.681[22, 22, 20, 21, 21, 21, 18, 22]
25.704[20, 21, 20, 22, 20, 21, 16, 22]
25.718[20, 23, 20, 21, 22, 18, 17, 21]
25.741[20, 24, 22, 21, 22, 18, 18, 20]
25.764[20, 25, 21, 21, 20, 18, 18, 19]
25.778[19, 24, 20, 21, 21, 18, 16, 20]
25.801[19, 25, 19, 20, 21, 20, 17, 19]
25.824[19, 27, 20, 19, 22, 21, 18, 19]
25.847[20, 27, 21, 18, 21, 22, 18, 19]
25.862[21, 27, 22, 17, 21, 22, 18, 18]
25.884[22, 30, 23, 16, 20, 22, 19, 20]
25.906[21, 29, 24, 16, 20, 20, 20, 19]
25.922[22, 31, 23, 17, 18, 20, 18, 19]
25.943[21, 31, 20, 19, 18, 22, 19, 19]
25.966[20, 32, 22, 19, 18, 21, 20, 19]
25.982[19, 34, 23, 19, 17, 22, 20, 17]
26.003[19, 35, 23, 20, 18, 22, 19, 20]
26.025[19, 29, 24, 20, 19, 22, 20, 20]
26.042[19, 32, 25, 20, 20, 20, 20, 20]
26.063[20, 31, 23, 19, 22, 19, 21, 21]
26.085[20, 29, 21, 18, 24, 18, 21, 21]
26.102[21, 32, 23, 17, 24, 19, 21, 19]
26.123[21, 32, 22, 17, 23, 19, 22, 18]
26.146[21, 29, 21, 17, 25, 17, 23, 18]
26.162[20, 28, 22, 17, 25, 19, 22, 19]
26.183[19, 24, 22, 19, 24, 18, 22, 18]
26.206[18, 19, 22, 19, 24, 19, 22, 18]
26.222[17, 23, 21, 18, 24, 19, 22, 21]
26.243[19, 28, 22, 18, 22, 19, 21, 21]
26.266[20, 30, 22, 20, 21, 20, 21, 19]
26.282[22, 31, 24, 18, 17, 20, 21, 19]
26.304[23, 31, 25, 19, 16, 20, 20, 19]
26.326[22, 28, 25, 21, 15, 20, 18, 16]
26.342[19, 21, 23, 20, 15, 21, 19, 16]
26.363[19, 20, 23, 18, 16, 19, 18, 18]
26.386[18, 22, 25, 17, 17, 19, 17, 19]
26.41[18, 25, 23, 17, 18, 17, 21, 19]
26.423[18, 27, 24, 16, 18, 17, 20, 20]
26.447[20, 27, 25, 18, 19, 17, 20, 22]
26.462[20, 29, 26, 18, 21, 17, 20, 21]
26.483[19, 29, 23, 20, 21, 17, 20, 21]
26.506[20, 28, 25, 20, 21, 17, 17, 21]
26.522[20, 28, 25, 20, 21, 16, 18, 21]
26.544[20, 29, 24, 17, 21, 19, 18, 18]
26.567[22, 27, 23, 20, 20, 20, 19, 19]
26.582[23, 26, 23, 18, 20, 21, 19, 19]
26.603[22, 25, 21, 19, 21, 21, 20, 20]
26.625[22, 23, 20, 19, 21, 21, 19, 20]
26.642[22, 29, 25, 21, 21, 17, 19, 21]
26.663[22, 30, 28, 22, 21, 15, 19, 20]
26.686[21, 29, 28, 22, 22, 14, 20, 21]
26.702[21, 29, 29, 22, 21, 16, 19, 20]
26.724[21, 30, 30, 22, 22, 17, 19, 19]
26.746[21, 24, 26, 22, 24, 19, 20, 20]
26.762[20, 24, 27, 21, 22, 18, 19, 21]
26.783[20, 25, 28, 21, 20, 18, 20, 20]
26.806[19, 26, 28, 21, 21, 16, 20, 20]
26.828[20, 26, 27, 21, 18, 19, 21, 21]
26.843[22, 27, 26, 20, 17, 18, 21, 21]
26.866[22, 25, 24, 20, 19, 19, 21, 20]
26.888[20, 27, 24, 20, 20, 19, 19, 19]
26.903[21, 26, 21, 18, 20, 19, 19, 19]
26.926[20, 27, 23, 18, 20, 19, 19, 19]
26.956[18, 26, 22, 17, 20, 20, 19, 17]
26.965[19, 27, 22, 16, 19, 20, 18, 16]
26.986[20, 25, 21, 16, 20, 21, 19, 17]
27.008[19, 26, 22, 17, 18, 21, 18, 17]
27.023[18, 25, 22, 17, 20, 22, 20, 16]
27.045[18, 25, 22, 18, 20, 21, 19, 17]
27.068[17, 26, 22, 18, 20, 20, 20, 19]
27.083[17, 27, 23, 18, 20, 20, 19, 17]
27.106[17, 25, 23, 19, 20, 19, 20, 18]
27.129[18, 24, 22, 21, 21, 19, 18, 20]
27.143[17, 23, 22, 21, 20, 21, 18, 19]
27.166[17, 27, 24, 21, 20, 22, 17, 22]
27.188[17, 27, 23, 22, 20, 22, 19, 22]
27.203[19, 28, 24, 21, 22, 22, 18, 22]
27.226[19, 29, 23, 19, 22, 21, 19, 20]
27.248[20, 31, 24, 21, 22, 19, 20, 20]
27.263[20, 30, 24, 20, 22, 21, 20, 18]
27.286[20, 30, 23, 22, 22, 20, 21, 18]
27.308[18, 29, 22, 22, 20, 20, 20, 17]
27.323[18, 29, 23, 23, 18, 19, 21, 19]
27.354[15, 28, 23, 21, 17, 19, 20, 21]
27.369[15, 25, 22, 20, 19, 17, 21, 20]
27.391[14, 25, 24, 19, 18, 18, 20, 20]
27.406[14, 26, 24, 18, 18, 19, 21, 22]
27.428[15, 23, 23, 18, 19, 21, 18, 22]
27.443[16, 21, 22, 18, 21, 22, 18, 21]
27.466[16, 21, 22, 20, 21, 22, 18, 21]
27.488[17, 19, 20, 20, 22, 22, 18, 20]
27.503[18, 18, 21, 19, 22, 22, 17, 20]
27.526[20, 20, 21, 18, 21, 20, 20, 18]
27.548[20, 21, 22, 20, 20, 17, 20, 19]
27.563[21, 20, 22, 19, 20, 19, 19, 18]
27.586[23, 23, 24, 18, 20, 19, 20, 18]
27.609[22, 25, 23, 21, 21, 19, 20, 16]
27.623[22, 26, 23, 21, 20, 19, 18, 17]
27.646[21, 25, 23, 21, 19, 20, 19, 17]
27.668[22, 27, 23, 21, 19, 18, 20, 17]
27.683[19, 25, 20, 21, 20, 17, 20, 18]
27.706[19, 23, 20, 19, 20, 18, 21, 18]
27.728[20, 23, 19, 19, 21, 19, 22, 20]
27.751[20, 24, 21, 18, 22, 20, 21, 20]
27.766[19, 24, 20, 19, 22, 19, 21, 20]
27.789[19, 25, 22, 22, 22, 20, 21, 21]
27.811[21, 25, 22, 22, 20, 19, 20, 21]
27.826[19, 30, 22, 21, 19, 18, 20, 18]
27.848[19, 30, 21, 23, 19, 18, 20, 18]
27.871[19, 30, 21, 23, 19, 21, 19, 19]
27.886[20, 28, 19, 20, 19, 21, 19, 18]
27.908[19, 28, 21, 20, 19, 22, 19, 18]
27.931[19, 24, 22, 22, 20, 22, 20, 19]
27.947[19, 23, 22, 19, 21, 23, 19, 20]
27.968[19, 22, 21, 20, 19, 21, 19, 20]
27.991[19, 21, 23, 21, 20, 20, 17, 19]
28.006[19, 21, 22, 22, 21, 22, 18, 20]
28.028[20, 21, 20, 21, 20, 23, 18, 20]
28.051[21, 20, 20, 23, 20, 22, 18, 22]
28.066[20, 20, 18, 22, 20, 22, 18, 20]
28.088[19, 21, 17, 23, 18, 21, 18, 21]
28.111[21, 24, 20, 22, 18, 19, 16, 20]
28.125[20, 23, 20, 22, 19, 18, 16, 20]
28.148[19, 23, 20, 21, 19, 18, 18, 18]
28.171[20, 23, 21, 20, 19, 17, 19, 19]
28.185[19, 24, 22, 17, 21, 20, 19, 18]
28.208[19, 20, 21, 18, 20, 20, 22, 18]
28.231[19, 20, 21, 19, 20, 19, 22, 18]
28.246[19, 20, 20, 18, 20, 19, 21, 17]
28.268[18, 19, 21, 19, 21, 20, 22, 16]
28.291[19, 20, 20, 20, 19, 18, 22, 17]
28.306[19, 22, 21, 19, 19, 17, 21, 19]
28.328[18, 23, 22, 17, 19, 18, 21, 18]
28.351[18, 22, 23, 17, 19, 19, 21, 17]
28.366[19, 23, 23, 18, 18, 20, 20, 19]
28.388[18, 22, 24, 16, 20, 20, 21, 18]
28.411[18, 21, 23, 18, 20, 21, 21, 15]
28.426[19, 21, 24, 18, 20, 20, 22, 16]
28.448[20, 21, 23, 19, 22, 20, 21, 18]
28.47[20, 21, 24, 18, 22, 19, 21, 16]
28.486[20, 21, 23, 19, 21, 19, 19, 20]
28.509[20, 19, 23, 19, 20, 18, 18, 21]
28.531[19, 21, 22, 20, 19, 19, 16, 22]
28.546[17, 22, 22, 20, 18, 19, 15, 23]
28.568[17, 23, 21, 20, 17, 18, 14, 22]
28.591[20, 25, 23, 19, 17, 20, 14, 20]
28.606[19, 25, 23, 21, 18, 21, 15, 19]
28.629[20, 24, 23, 20, 18, 20, 17, 20]
28.651[21, 24, 24, 19, 19, 19, 17, 17]
28.666[21, 22, 24, 20, 20, 19, 17, 20]
28.689[19, 19, 23, 20, 19, 18, 17, 21]
28.711[19, 19, 22, 19, 20, 17, 15, 21]
28.734[19, 19, 22, 19, 20, 16, 15, 21]
28.748[19, 19, 21, 19, 21, 17, 16, 21]
28.771[21, 19, 20, 20, 20, 16, 18, 19]
28.794[22, 23, 23, 20, 21, 17, 20, 19]
28.808[22, 22, 24, 20, 21, 18, 20, 21]
28.831[21, 24, 23, 20, 20, 19, 20, 20]
28.854[22, 23, 25, 20, 19, 18, 19, 20]
28.868[21, 24, 23, 19, 19, 20, 17, 22]
28.891[20, 21, 23, 19, 21, 19, 17, 21]
28.914[20, 23, 24, 19, 20, 18, 17, 18]
28.928[21, 21, 25, 18, 22, 19, 18, 20]
28.951[21, 23, 24, 18, 22, 22, 19, 19]
28.974[19, 21, 25, 18, 23, 21, 19, 17]
28.988[18, 23, 24, 18, 22, 20, 19, 17]
29.011[21, 23, 22, 17, 22, 20, 20, 18]
29.034[20, 24, 22, 18, 21, 19, 20, 16]
29.048[20, 22, 22, 19, 19, 16, 19, 19]
29.071[21, 22, 22, 19, 19, 18, 19, 18]
29.094[21, 20, 21, 21, 18, 20, 19, 19]
29.108[20, 20, 23, 21, 16, 19, 18, 19]
29.131[20, 19, 22, 20, 17, 21, 18, 20]
29.154[20, 20, 23, 20, 17, 21, 18, 18]
29.168[22, 19, 23, 20, 17, 21, 18, 18]
29.191[21, 20, 22, 17, 17, 21, 19, 16]
29.214[22, 19, 22, 19, 19, 22, 19, 16]
29.228[22, 18, 22, 19, 17, 21, 19, 17]
29.252[21, 19, 23, 20, 17, 21, 19, 18]
29.274[20, 21, 24, 18, 19, 19, 19, 17]
29.288[20, 21, 24, 18, 19, 17, 17, 18]
29.312[18, 21, 24, 16, 18, 18, 20, 18]
29.334[17, 23, 24, 20, 19, 19, 21, 16]
29.348[17, 23, 23, 19, 21, 19, 21, 17]
29.371[16, 22, 21, 21, 19, 20, 22, 18]
29.394[18, 23, 22, 21, 19, 21, 21, 18]
29.408[20, 23, 24, 22, 20, 21, 20, 18]
29.432[19, 24, 23, 20, 20, 22, 19, 17]
29.454[18, 25, 22, 20, 21, 23, 19, 17]
29.468[19, 27, 22, 19, 22, 22, 19, 16]
29.492[18, 26, 22, 19, 22, 22, 21, 15]
29.514[18, 27, 20, 19, 23, 23, 20, 16]
29.528[18, 27, 22, 18, 23, 22, 20, 17]
29.551[18, 28, 23, 18, 21, 19, 19, 18]
29.574[19, 26, 22, 18, 21, 19, 18, 18]
29.588[19, 27, 23, 22, 20, 18, 17, 19]
29.612[18, 25, 24, 21, 19, 18, 18, 19]
29.634[19, 24, 23, 23, 21, 19, 19, 19]
29.656[20, 24, 23, 24, 21, 20, 19, 17]
29.672[19, 24, 22, 23, 20, 21, 20, 17]
29.694[20, 24, 20, 21, 21, 21, 21, 19]
29.717[21, 26, 18, 22, 23, 19, 21, 19]
29.731[21, 26, 19, 21, 21, 18, 19, 20]
29.754[21, 24, 21, 21, 21, 20, 21, 20]
29.777[21, 25, 22, 22, 22, 19, 20, 20]
29.792[21, 24, 22, 19, 19, 19, 17, 20]
29.814[21, 23, 22, 19, 19, 19, 19, 18]
29.836[20, 24, 24, 19, 19, 20, 19, 17]
29.852[21, 24, 21, 20, 19, 20, 19, 18]
29.874[21, 24, 21, 20, 18, 21, 17, 18]
29.896[21, 25, 20, 20, 19, 22, 20, 17]
29.912[20, 25, 20, 20, 16, 22, 20, 22]
29.934[26, 25, 18, 20, 19, 23, 25, 45]
29.957[27, 26, 19, 17, 20, 21, 25, 47]
29.972[28, 27, 19, 18, 20, 20, 26, 48]
29.994[28, 27, 22, 21, 22, 20, 24, 49]
30.017[28, 26, 21, 21, 24, 20, 24, 48]
30.032[21, 26, 22, 23, 22, 21, 18, 28]
30.054[21, 26, 23, 25, 21, 19, 20, 25]
30.076[20, 24, 23, 23, 20, 21, 20, 23]
30.092[19, 22, 22, 21, 19, 20, 21, 21]
30.114[20, 21, 24, 21, 19, 21, 20, 21]
30.137[23, 40, 56, 37, 23, 21, 21, 22]
30.151[26, 59, 136, 51, 26, 24, 20, 23]
30.174[36, 89, 402, 147, 64, 46, 33, 31]
30.196[47, 137, 552, 385, 88, 58, 52, 43]
30.211[63, 166, 589, 425, 139, 78, 65, 54]
30.234[78, 209, 614, 485, 274, 109, 71, 59]
30.257[80, 222, 727, 501, 304, 121, 74, 61]
30.271[85, 269, 767, 594, 319, 132, 72, 59]
30.294[85, 264, 710, 496, 322, 140, 65, 55]
30.317[78, 262, 780, 612, 331, 141, 58, 49]
30.331[76, 261, 763, 636, 309, 154, 63, 49]
30.354[81, 291, 695, 784, 334, 154, 61, 47]
30.377[76, 270, 590, 746, 334, 145, 61, 47]
30.391[75, 280, 597, 767, 338, 140, 57, 47]
30.414[79, 299, 500, 719, 341, 143, 56, 44]
30.437[70, 278, 550, 670, 281, 109, 47, 38]
30.451[67, 256, 522, 566, 253, 120, 54, 41]
30.474[69, 243, 510, 570, 250, 123, 53, 42]
30.497[65, 225, 459, 566, 256, 126, 54, 39]
30.511[61, 190, 474, 511, 244, 120, 56, 41]
30.534[60, 192, 429, 542, 270, 134, 60, 42]
30.564[61, 182, 440, 468, 246, 117, 56, 41]
30.579[56, 169, 411, 448, 240, 112, 55, 40]
30.594[58, 183, 460, 505, 240, 105, 55, 40]
30.617[64, 208, 423, 514, 222, 104, 51, 39]
30.639[63, 203, 429, 511, 204, 91, 49, 39]
30.654[58, 190, 402, 511, 199, 96, 50, 39]
30.677[60, 189, 381, 478, 193, 99, 52, 39]
30.699[60, 182, 326, 417, 172, 94, 51, 39]
30.714[50, 151, 319, 475, 179, 87, 50, 38]
30.737[51, 149, 331, 455, 182, 95, 46, 35]
30.759[50, 140, 325, 456, 177, 91, 42, 34]
30.774[45, 144, 323, 482, 192, 89, 39, 33]
30.797[42, 129, 317, 448, 196, 94, 39, 34]
30.819[41, 127, 480, 415, 245, 121, 44, 36]
30.834[49, 143, 477, 415, 243, 114, 45, 38]
30.857[49, 143, 466, 439, 245, 116, 48, 39]
30.879[50, 139, 472, 447, 235, 118, 51, 39]
30.894[56, 153, 531, 495, 235, 116, 53, 41]
30.917[56, 155, 387, 471, 198, 92, 49, 43]
30.938[49, 140, 361, 465, 182, 85, 47, 40]
30.955[52, 144, 382, 431, 186, 82, 48, 43]
30.976[51, 144, 408, 415, 182, 76, 45, 42]
30.998[46, 124, 324, 362, 181, 76, 47, 40]
31.015[45, 115, 320, 330, 143, 76, 45, 37]
31.036[43, 111, 330, 343, 144, 73, 50, 40]
31.058[38, 110, 361, 390, 136, 67, 47, 36]
31.081[41, 116, 324, 373, 129, 68, 48, 36]
31.096[40, 117, 362, 405, 126, 67, 44, 35]
31.118[40, 126, 393, 435, 142, 63, 45, 35]
31.135[40, 125, 395, 421, 133, 63, 39, 29]
31.163[50, 136, 349, 439, 189, 86, 48, 36]
31.178[46, 118, 346, 464, 188, 86, 46, 36]
31.195[49, 128, 378, 497, 218, 98, 51, 39]
31.216[48, 123, 362, 479, 206, 95, 50, 40]
31.239[50, 131, 361, 468, 215, 99, 53, 42]
31.255[42, 117, 380, 417, 172, 82, 45, 37]
31.276[42, 118, 377, 412, 198, 87, 44, 35]
31.298[36, 101, 319, 426, 194, 82, 38, 31]
31.315[36, 107, 291, 409, 205, 87, 40, 30]
31.336[34, 109, 321, 410, 206, 88, 40, 31]
31.366[34, 116, 293, 412, 198, 89, 40, 31]
31.375[35, 113, 302, 390, 181, 83, 39, 31]
31.397[39, 126, 309, 323, 164, 79, 42, 33]
31.418[37, 113, 334, 382, 172, 81, 41, 32]
31.435[39, 105, 307, 404, 168, 76, 39, 27]
31.456[43, 96, 301, 403, 172, 72, 37, 28]
31.478[43, 104, 328, 393, 184, 75, 35, 26]
31.495[45, 116, 362, 393, 183, 75, 30, 24]
31.516[46, 132, 360, 402, 202, 77, 34, 26]
31.538[43, 138, 364, 412, 200, 78, 33, 26]
31.561[43, 138, 372, 430, 203, 83, 37, 26]
31.576[44, 140, 341, 510, 206, 85, 41, 29]
31.599[41, 133, 339, 506, 214, 85, 44, 30]
31.621[42, 127, 318, 462, 179, 78, 41, 29]
31.636[42, 121, 366, 459, 194, 80, 41, 31]
31.658[40, 126, 378, 436, 188, 77, 39, 29]
31.681[36, 118, 380, 360, 169, 73, 35, 30]
31.696[34, 108, 322, 372, 154, 69, 34, 28]
31.718[32, 103, 320, 379, 166, 74, 33, 31]
31.741[32, 104, 299, 349, 146, 70, 36, 32]
31.756[31, 94, 293, 383, 169, 76, 37, 32]
31.779[36, 106, 286, 390, 176, 79, 37, 32]
31.801[39, 118, 297, 353, 164, 75, 36, 33]
31.816[42, 123, 289, 342, 156, 70, 36, 32]
31.838[45, 120, 235, 345, 159, 69, 35, 30]
31.861[47, 119, 247, 336, 160, 63, 34, 30]
31.876[47, 111, 247, 340, 176, 71, 38, 34]
31.898[45, 96, 245, 361, 175, 72, 39, 34]
31.921[42, 86, 244, 362, 180, 76, 41, 35]
31.936[43, 98, 233, 348, 176, 75, 42, 34]
31.958[40, 98, 253, 355, 160, 73, 42, 35]
31.981[37, 97, 303, 421, 156, 64, 40, 30]
31.996[36, 92, 335, 403, 169, 73, 40, 32]
32.018[39, 107, 352, 448, 173, 72, 37, 29]
32.041[34, 90, 350, 466, 191, 77, 35, 28]
32.056[36, 100, 360, 441, 185, 74, 34, 27]
32.078[37, 95, 337, 337, 155, 69, 32, 26]
32.101[39, 94, 312, 324, 141, 57, 29, 24]
32.116[37, 74, 317, 235, 126, 54, 30, 29]
32.14[37, 79, 379, 225, 100, 48, 30, 28]
32.161[38, 62, 339, 230, 102, 54, 29, 29]
32.176[38, 67, 346, 224, 112, 59, 29, 29]
32.198[38, 77, 335, 233, 115, 66, 34, 30]
32.221[39, 78, 323, 239, 114, 65, 34, 29]
32.236[41, 76, 309, 265, 112, 65, 36, 31]
32.258[37, 76, 307, 246, 116, 63, 37, 32]
32.281[39, 82, 293, 317, 130, 66, 40, 34]
32.296[40, 91, 306, 334, 138, 61, 36, 33]
32.318[39, 99, 349, 364, 138, 59, 35, 31]
32.341[39, 98, 330, 343, 143, 64, 37, 31]
32.356[43, 108, 334, 412, 182, 82, 41, 31]
32.378[42, 106, 351, 394, 170, 76, 38, 29]
32.401[45, 101, 355, 400, 159, 73, 40, 32]
32.416[42, 96, 324, 408, 162, 76, 40, 31]
32.438[42, 101, 309, 427, 161, 73, 37, 30]
32.461[43, 101, 316, 375, 111, 52, 30, 28]
32.483[43, 99, 291, 376, 123, 54, 29, 26]
32.498[42, 95, 274, 360, 141, 61, 34, 28]
32.521[43, 93, 281, 357, 146, 62, 35, 27]
32.544[47, 93, 297, 379, 152, 61, 37, 30]
32.558[44, 90, 293, 425, 176, 68, 41, 30]
32.581[43, 91, 288, 461, 177, 67, 42, 32]
32.603[40, 89, 282, 472, 179, 65, 37, 28]
32.618[39, 86, 254, 479, 178, 63, 36, 27]
32.641[35, 93, 273, 503, 179, 63, 33, 28]
32.663[34, 93, 258, 495, 169, 60, 33, 28]
32.678[33, 95, 273, 458, 161, 59, 33, 27]
32.701[32, 90, 278, 492, 161, 56, 33, 27]
32.723[30, 90, 289, 466, 158, 56, 33, 27]
32.739[29, 83, 248, 397, 143, 55, 34, 26]
32.761[30, 83, 268, 351, 133, 51, 31, 24]
32.784[32, 78, 263, 394, 136, 55, 30, 27]
32.799[36, 79, 285, 376, 118, 56, 35, 33]
32.821[37, 92, 278, 383, 124, 60, 36, 35]
32.843[36, 88, 333, 436, 137, 62, 35, 34]
32.858[37, 91, 334, 448, 134, 61, 36, 35]
32.881[37, 90, 337, 383, 128, 60, 38, 34]
32.904[34, 99, 354, 342, 133, 61, 34, 28]
32.918[33, 90, 355, 343, 121, 53, 31, 25]
32.941[35, 94, 315, 309, 120, 51, 32, 23]
32.963[31, 82, 363, 321, 127, 52, 35, 25]
32.978[31, 85, 357, 326, 125, 52, 32, 25]
33.001[31, 76, 317, 321, 118, 48, 31, 26]
33.024[33, 75, 321, 330, 127, 49, 32, 26]
33.038[35, 72, 300, 319, 130, 54, 33, 28]
33.061[36, 79, 248, 335, 126, 51, 30, 26]
33.083[38, 81, 286, 365, 141, 56, 35, 27]
33.098[38, 85, 297, 382, 147, 56, 35, 26]
33.121[37, 81, 292, 408, 140, 59, 38, 29]
33.152[33, 80, 312, 413, 154, 58, 35, 27]
33.158[32, 84, 345, 386, 153, 63, 35, 28]
33.181[30, 85, 327, 352, 139, 59, 34, 28]
33.212[29, 78, 327, 359, 143, 64, 34, 30]
33.218[30, 77, 325, 332, 165, 67, 33, 27]
33.241[31, 75, 303, 308, 151, 66, 36, 29]
33.264[34, 74, 245, 290, 147, 62, 36, 29]
33.278[36, 76, 244, 350, 160, 62, 34, 28]
33.301[36, 87, 261, 354, 201, 71, 48, 27]
33.324[34, 93, 277, 340, 190, 73, 55, 29]
33.338[34, 94, 310, 380, 220, 80, 56, 30]
33.361[33, 88, 303, 377, 221, 80, 57, 28]
33.383[30, 84, 274, 320, 209, 77, 57, 28]
33.407[29, 70, 263, 285, 162, 67, 47, 27]
33.421[29, 68, 268, 280, 176, 68, 40, 26]
33.444[28, 68, 230, 212, 135, 59, 37, 25]
33.467[26, 68, 219, 207, 138, 61, 36, 28]
33.481[26, 70, 222, 218, 148, 66, 34, 29]
33.504[28, 74, 309, 198, 154, 66, 32, 29]
33.527[31, 81, 301, 193, 127, 57, 31, 29]
33.541[32, 79, 310, 195, 120, 54, 29, 27]
33.563[32, 80, 314, 195, 109, 50, 29, 24]
33.587[32, 77, 320, 220, 96, 44, 27, 26]
33.601[29, 71, 261, 287, 93, 39, 27, 25]
33.623[25, 65, 263, 273, 94, 41, 25, 23]
33.647[26, 69, 293, 275, 93, 43, 26, 25]
33.661[28, 71, 329, 313, 106, 46, 30, 28]
33.683[28, 68, 331, 288, 114, 55, 32, 25]
33.707[30, 78, 300, 239, 106, 54, 33, 26]
33.721[30, 71, 306, 248, 106, 54, 33, 27]
33.743[29, 68, 309, 266, 104, 51, 32, 25]
33.767[29, 74, 320, 228, 102, 57, 30, 24]
33.781[30, 82, 332, 256, 101, 50, 28, 23]
33.804[27, 76, 333, 284, 119, 51, 27, 21]
33.827[29, 73, 329, 303, 119, 50, 29, 23]
33.841[33, 83, 290, 283, 119, 52, 31, 24]
33.863[31, 73, 299, 320, 124, 43, 30, 25]
33.887[34, 78, 275, 346, 128, 49, 32, 27]
33.901[34, 78, 321, 342, 116, 55, 34, 28]
33.923[33, 86, 325, 321, 117, 58, 34, 26]
33.947[30, 80, 334, 326, 121, 57, 32, 26]
33.961[30, 79, 285, 345, 121, 66, 33, 25]
33.983[26, 66, 326, 298, 124, 65, 36, 24]
34.006[27, 67, 282, 262, 120, 59, 34, 23]
34.021[26, 62, 291, 277, 122, 59, 33, 24]
34.044[27, 59, 280, 331, 128, 60, 34, 22]
34.067[27, 70, 283, 303, 125, 57, 32, 22]
34.081[30, 70, 319, 303, 117, 52, 30, 22]
34.104[32, 74, 312, 334, 122, 55, 32, 24]
34.127[33, 72, 284, 360, 120, 54, 33, 23]
34.141[33, 76, 298, 308, 105, 50, 33, 25]
34.172[35, 78, 306, 358, 110, 52, 33, 25]
34.187[32, 78, 280, 366, 108, 53, 31, 24]
34.201[30, 75, 307, 344, 111, 54, 31, 23]
34.224[28, 81, 314, 344, 117, 51, 28, 24]
34.247[30, 76, 302, 342, 118, 52, 29, 24]
34.261[26, 64, 308, 290, 109, 49, 29, 23]
34.283[27, 68, 276, 312, 109, 48, 31, 23]
34.307[27, 68, 253, 315, 98, 43, 28, 23]
34.329[32, 71, 243, 270, 88, 45, 30, 25]
34.343[29, 72, 240, 287, 96, 48, 29, 22]
34.367[32, 77, 209, 343, 110, 46, 31, 25]
34.389[35, 79, 250, 330, 115, 55, 33, 27]
34.404[35, 75, 286, 370, 124, 57, 33, 28]
34.427[33, 72, 309, 384, 163, 68, 34, 29]
34.45[34, 83, 416, 390, 178, 72, 34, 29]
34.464[32, 83, 414, 313, 168, 70, 32, 26]
34.487[29, 82, 396, 331, 163, 63, 28, 24]
34.509[30, 82, 388, 327, 170, 65, 29, 23]
34.524[29, 78, 377, 309, 137, 54, 27, 20]
34.547[29, 64, 284, 348, 122, 47, 27, 22]
34.569[28, 63, 297, 410, 143, 55, 30, 22]
34.584[28, 75, 294, 386, 145, 54, 30, 23]
34.607[29, 76, 266, 353, 137, 53, 30, 23]
34.629[31, 85, 285, 377, 133, 53, 28, 25]
34.643[32, 85, 277, 350, 131, 53, 27, 24]
34.666[33, 83, 352, 304, 113, 48, 26, 25]
34.69[31, 71, 355, 307, 112, 49, 26, 25]
34.703[31, 75, 368, 334, 116, 52, 25, 25]
34.727[28, 69, 373, 398, 129, 54, 26, 24]
34.75[26, 64, 362, 392, 132, 53, 28, 24]
34.764[28, 69, 285, 376, 125, 50, 29, 24]
34.787[30, 71, 253, 374, 123, 52, 28, 21]
34.809[29, 67, 227, 355, 119, 50, 30, 24]
34.824[28, 60, 192, 265, 100, 50, 32, 26]
34.847[30, 66, 176, 233, 89, 52, 31, 26]
34.869[27, 63, 236, 271, 118, 54, 29, 25]
34.884[25, 58, 293, 311, 131, 50, 28, 27]
34.907[25, 57, 326, 299, 126, 47, 28, 24]
34.929[24, 59, 313, 340, 138, 53, 28, 22]
34.943[23, 56, 319, 351, 137, 49, 28, 22]
34.967[26, 61, 284, 321, 122, 57, 28, 24]
34.989[26, 60, 240, 279, 111, 61, 31, 22]
35.004[29, 62, 223, 360, 140, 78, 35, 25]
35.026[29, 61, 224, 327, 134, 73, 33, 24]
35.049[35, 76, 370, 389, 146, 78, 36, 30]
35.064[34, 70, 388, 391, 148, 77, 35, 30]
35.087[37, 95, 389, 478, 202, 99, 41, 32]
35.109[35, 93, 379, 427, 202, 94, 38, 31]
35.123[38, 96, 404, 417, 205, 98, 40, 33]
35.147[30, 84, 317, 370, 200, 96, 37, 28]
35.169[30, 88, 320, 372, 196, 93, 37, 27]
35.183[27, 62, 311, 246, 142, 69, 32, 26]
35.207[29, 74, 357, 265, 121, 60, 30, 24]
35.229[25, 69, 335, 274, 114, 54, 30, 24]
35.243[34, 70, 326, 249, 107, 53, 33, 26]
35.267[33, 67, 329, 253, 96, 51, 33, 26]
35.289[32, 65, 337, 277, 94, 48, 29, 23]
35.303[32, 52, 296, 266, 98, 52, 35, 25]
35.327[36, 61, 310, 280, 106, 58, 50, 26]
35.349[30, 58, 314, 288, 107, 57, 52, 26]
35.372[32, 62, 281, 281, 112, 60, 63, 28]
35.387[34, 74, 335, 301, 114, 61, 64, 29]
35.409[34, 76, 345, 307, 123, 61, 62, 29]
35.432[31, 68, 337, 309, 116, 54, 51, 25]
35.446[32, 72, 295, 300, 129, 57, 46, 26]
35.469[34, 70, 282, 317, 134, 62, 32, 26]
35.491[33, 55, 243, 282, 128, 59, 29, 25]
35.507[34, 67, 217, 292, 125, 61, 28, 24]
35.529[33, 68, 193, 277, 123, 63, 28, 25]
35.552[33, 63, 341, 316, 112, 63, 29, 24]
35.567[27, 60, 353, 325, 102, 53, 26, 23]
35.589[31, 66, 339, 384, 117, 55, 29, 24]
35.612[28, 50, 338, 376, 108, 49, 30, 22]
35.627[28, 57, 408, 386, 126, 49, 30, 23]
35.649[29, 58, 304, 358, 132, 51, 31, 25]
35.672[29, 63, 294, 330, 134, 51, 32, 23]
35.687[26, 61, 289, 270, 130, 52, 30, 24]
35.709[26, 63, 294, 323, 128, 53, 29, 25]
35.732[26, 60, 222, 347, 121, 53, 27, 25]
35.747[24, 60, 283, 338, 113, 46, 26, 23]
35.769[25, 54, 292, 341, 112, 46, 23, 24]
35.792[25, 52, 289, 343, 99, 42, 21, 24]
35.807[29, 56, 294, 287, 110, 49, 26, 27]
35.837[32, 57, 278, 244, 106, 50, 28, 27]
35.852[31, 60, 234, 249, 111, 53, 28, 26]
35.866[32, 63, 233, 245, 108, 55, 29, 28]
35.889[34, 63, 245, 230, 112, 61, 36, 29]
35.912[32, 60, 234, 250, 118, 56, 33, 27]
35.926[33, 62, 264, 251, 109, 54, 35, 30]
35.951[33, 59, 278, 266, 104, 52, 36, 31]
35.971[33, 60, 339, 260, 110, 52, 35, 29]
35.993[31, 64, 334, 261, 119, 50, 30, 26]
36.01[30, 64, 335, 359, 127, 50, 31, 26]
36.031[26, 64, 334, 402, 133, 49, 27, 24]
36.053[25, 71, 320, 418, 145, 51, 28, 22]
36.07[26, 69, 295, 439, 140, 50, 28, 23]
36.091[25, 65, 275, 439, 132, 46, 27, 24]
36.115[26, 67, 298, 354, 121, 50, 25, 24]
36.13[28, 64, 278, 308, 124, 54, 31, 25]
36.151[29, 60, 275, 273, 105, 52, 29, 25]
36.173[28, 61, 221, 274, 106, 52, 31, 26]
36.19[29, 61, 232, 263, 103, 51, 33, 26]
36.211[29, 61, 227, 271, 85, 51, 34, 28]
36.234[28, 62, 242, 257, 84, 52, 32, 25]
36.25[29, 66, 239, 279, 88, 55, 31, 24]
36.272[28, 64, 275, 283, 95, 55, 30, 23]
36.294[27, 59, 285, 333, 97, 55, 28, 24]
36.31[27, 57, 287, 317, 111, 52, 27, 21]
36.331[28, 52, 275, 337, 108, 48, 25, 25]
36.353[27, 43, 284, 317, 114, 45, 29, 27]
36.37[28, 49, 297, 299, 115, 46, 27, 26]
36.391[28, 51, 291, 241, 125, 59, 29, 26]
36.413[25, 51, 274, 238, 121, 59, 31, 28]
36.43[26, 51, 261, 221, 116, 57, 32, 26]
36.451[26, 62, 271, 243, 115, 60, 29, 24]
36.473[25, 62, 251, 236, 120, 65, 31, 25]
36.49[26, 68, 283, 243, 115, 54, 28, 25]
36.511[30, 69, 296, 246, 111, 56, 26, 25]
36.533[29, 76, 300, 254, 121, 58, 27, 28]
36.548[30, 70, 277, 235, 126, 56, 31, 29]
36.571[30, 67, 247, 234, 114, 50, 31, 28]
36.593[33, 67, 261, 250, 119, 52, 31, 29]
36.608[31, 67, 245, 238, 112, 48, 31, 28]
36.631[31, 62, 264, 294, 114, 45, 30, 26]
36.653[31, 62, 274, 334, 111, 44, 27, 25]
36.67[30, 62, 296, 333, 112, 46, 30, 27]
36.692[26, 56, 244, 323, 110, 47, 29, 24]
36.713[27, 59, 248, 341, 116, 50, 32, 25]
36.728[28, 56, 236, 291, 108, 52, 34, 25]
36.751[28, 57, 230, 300, 110, 55, 32, 25]
36.773[30, 58, 221, 306, 116, 54, 30, 24]
36.796[31, 61, 244, 315, 113, 55, 31, 26]
36.811[29, 61, 253, 301, 111, 53, 25, 24]
36.833[27, 60, 274, 292, 118, 55, 25, 25]
36.849[25, 59, 265, 247, 118, 53, 27, 26]
36.871[26, 64, 274, 242, 112, 54, 28, 26]
36.893[26, 61, 289, 230, 112, 51, 27, 25]
36.908[27, 59, 274, 232, 110, 52, 29, 26]
36.931[26, 61, 242, 269, 120, 53, 28, 25]
36.953[34, 68, 248, 288, 116, 57, 32, 26]
36.968[33, 73, 300, 353, 138, 60, 32, 25]
36.991[33, 75, 281, 356, 147, 59, 34, 25]
37.013[33, 75, 276, 369, 155, 67, 39, 30]
37.029[34, 77, 282, 353, 143, 64, 40, 29]
37.051[27, 72, 296, 331, 136, 59, 37, 29]
37.074[27, 68, 306, 262, 118, 54, 39, 30]
37.089[28, 79, 339, 255, 108, 61, 39, 31]
37.111[30, 80, 346, 232, 100, 53, 33, 27]
37.133[29, 76, 343, 227, 101, 53, 33, 26]
37.149[27, 74, 341, 214, 107, 59, 36, 27]
37.171[27, 68, 272, 204, 110, 62, 36, 25]
37.194[26, 51, 272, 212, 103, 53, 34, 23]
37.224[24, 49, 267, 202, 102, 53, 34, 22]
37.231[25, 50, 284, 184, 91, 54, 34, 23]
37.254[23, 52, 258, 187, 87, 51, 29, 21]
37.276[25, 52, 241, 218, 92, 50, 27, 22]
37.291[29, 57, 180, 284, 96, 51, 28, 23]
37.314[27, 57, 219, 306, 99, 45, 28, 23]
37.337[28, 55, 211, 302, 107, 44, 27, 22]
37.352[31, 58, 223, 339, 123, 43, 28, 24]
37.373[32, 62, 254, 342, 117, 42, 31, 23]
37.396[29, 58, 249, 332, 131, 47, 32, 24]
37.411[29, 59, 285, 325, 132, 50, 31, 24]
37.434[28, 60, 276, 332, 132, 50, 30, 23]
37.456[28, 55, 271, 308, 117, 50, 31, 23]
37.471[27, 54, 283, 285, 123, 49, 28, 24]
37.502[26, 56, 311, 227, 115, 45, 28, 23]
37.516[26, 56, 297, 211, 105, 42, 30, 24]
37.531[32, 72, 343, 245, 114, 50, 33, 28]
37.553[30, 75, 364, 249, 123, 51, 34, 27]
37.576[30, 76, 354, 258, 114, 51, 34, 27]
37.591[30, 78, 343, 332, 108, 53, 34, 26]
37.613[31, 81, 368, 358, 114, 52, 35, 28]
37.636[28, 75, 332, 338, 111, 54, 35, 27]
37.651[30, 75, 313, 368, 108, 59, 34, 29]
37.674[30, 75, 329, 375, 110, 60, 35, 29]
37.696[30, 77, 325, 318, 121, 61, 35, 30]
37.712[30, 73, 243, 298, 116, 61, 31, 28]
37.733[29, 61, 233, 295, 112, 54, 29, 26]
37.756[27, 61, 247, 252, 105, 44, 26, 22]
37.779[26, 54, 199, 229, 100, 40, 25, 21]
37.793[24, 46, 211, 261, 103, 43, 28, 22]
37.816[23, 44, 235, 259, 114, 50, 31, 22]
37.831[24, 47, 288, 253, 111, 51, 32, 23]
37.853[24, 43, 291, 251, 111, 51, 35, 24]
37.876[25, 49, 335, 267, 112, 54, 38, 24]
37.891[25, 57, 330, 282, 101, 51, 35, 23]
37.913[26, 58, 319, 275, 94, 47, 35, 26]
37.937[29, 63, 341, 287, 109, 52, 35, 25]
37.952[29, 64, 342, 271, 109, 51, 31, 25]
37.973[34, 68, 350, 265, 110, 50, 28, 26]
37.996[34, 62, 345, 292, 117, 49, 28, 26]
38.011[34, 63, 365, 347, 121, 47, 27, 24]
38.034[32, 60, 298, 343, 105, 41, 25, 23]
38.056[33, 62, 298, 380, 109, 45, 28, 24]
38.071[30, 60, 243, 442, 136, 50, 26, 24]
38.093[30, 70, 341, 409, 129, 50, 27, 24]
38.116[30, 72, 375, 373, 133, 52, 27, 23]
38.131[31, 76, 411, 371, 132, 53, 28, 24]
38.153[29, 74, 411, 364, 138, 53, 27, 25]
38.176[27, 71, 418, 281, 117, 52, 28, 23]
38.199[28, 65, 351, 253, 116, 52, 29, 22]
38.213[27, 61, 284, 242, 104, 50, 30, 24]
38.237[27, 56, 286, 283, 108, 49, 32, 26]
38.259[29, 57, 316, 262, 95, 45, 31, 24]
38.274[29, 56, 306, 353, 108, 46, 30, 26]
38.296[30, 49, 299, 378, 108, 48, 30, 26]
38.318[31, 54, 346, 451, 136, 53, 29, 25]
38.334[30, 58, 317, 437, 176, 70, 27, 22]
38.357[32, 62, 279, 435, 184, 72, 31, 26]
38.378[31, 61, 275, 362, 174, 69, 29, 25]
38.393[30, 62, 285, 333, 173, 68, 31, 26]
38.416[34, 63, 224, 246, 158, 67, 32, 29]
38.439[35, 62, 237, 251, 135, 57, 33, 29]
38.454[33, 59, 313, 306, 129, 54, 30, 27]
38.476[37, 66, 327, 309, 124, 52, 31, 28]
38.499[35, 72, 320, 308, 123, 51, 27, 27]
38.513[31, 68, 336, 294, 115, 47, 27, 23]
38.536[30, 64, 325, 306, 86, 36, 26, 24]
38.559[28, 66, 257, 236, 77, 35, 26, 25]
38.573[24, 59, 277, 232, 83, 35, 25, 23]
38.596[25, 56, 331, 253, 88, 35, 25, 24]
38.619[26, 59, 342, 290, 91, 38, 26, 25]
38.634[22, 55, 331, 248, 93, 39, 25, 25]
38.656[26, 51, 315, 271, 114, 44, 29, 25]
38.679[26, 53, 284, 312, 127, 46, 29, 27]
38.694[25, 50, 244, 327, 134, 51, 30, 26]
38.716[25, 53, 292, 352, 131, 47, 32, 25]
38.739[27, 60, 292, 364, 133, 50, 34, 24]
38.754[25, 63, 305, 375, 119, 48, 32, 23]
38.776[28, 64, 314, 344, 101, 45, 33, 21]
38.8[29, 64, 286, 389, 118, 45, 34, 22]
38.813[28, 59, 226, 403, 130, 49, 34, 26]
38.836[27, 57, 261, 392, 132, 46, 31, 26]
38.859[28, 52, 255, 377, 135, 48, 31, 25]
38.874[25, 49, 236, 406, 140, 49, 30, 24]
38.896[25, 51, 233, 403, 127, 47, 31, 25]
38.919[25, 51, 213, 335, 110, 42, 26, 21]
38.934[25, 48, 162, 328, 101, 41, 26, 23]
38.956[23, 43, 140, 309, 87, 36, 27, 23]
38.979[24, 39, 130, 257, 76, 36, 27, 24]
38.994[23, 32, 116, 111, 44, 28, 24, 22]
39.016[21, 27, 86, 87, 36, 25, 23, 22]
39.039[22, 23, 54, 68, 29, 26, 24, 21]
39.054[29, 23, 48, 51, 25, 26, 25, 24]
39.076[52, 24, 43, 44, 23, 24, 24, 35]
39.099[60, 23, 37, 28, 21, 27, 25, 36]
39.122[82, 24, 28, 26, 20, 26, 26, 41]
39.136[90, 25, 24, 21, 20, 26, 25, 42]
39.167[88, 23, 24, 18, 21, 23, 21, 40]
39.182[77, 21, 23, 19, 20, 22, 21, 31]
39.197[71, 22, 22, 20, 21, 20, 19, 29]
39.219[44, 21, 21, 19, 24, 20, 17, 21]
39.242[24, 20, 20, 21, 23, 20, 16, 20]
39.256[22, 20, 21, 21, 22, 20, 16, 20]
39.279[20, 19, 20, 21, 22, 20, 15, 18]
39.301[18, 19, 22, 21, 22, 21, 14, 18]
39.316[19, 20, 22, 21, 18, 20, 18, 18]
39.339[20, 21, 21, 18, 20, 18, 19, 19]
39.362[19, 21, 20, 18, 20, 19, 20, 20]
39.376[19, 23, 20, 18, 20, 19, 23, 21]
39.399[19, 21, 20, 17, 21, 18, 24, 22]
39.422[20, 20, 20, 16, 23, 18, 22, 21]
39.436[19, 18, 22, 18, 21, 19, 22, 20]
39.459[20, 18, 21, 18, 19, 18, 20, 18]
39.482[21, 17, 21, 18, 19, 19, 17, 20]
39.497[20, 19, 20, 20, 18, 19, 16, 19]
39.519[19, 19, 19, 19, 18, 19, 15, 19]
39.542[18, 21, 18, 18, 19, 18, 18, 17]
39.557[18, 20, 17, 19, 21, 18, 18, 17]
39.579[17, 20, 17, 19, 22, 17, 23, 15]
39.602[24, 33, 19, 20, 21, 19, 27, 17]
39.616[25, 34, 20, 20, 21, 20, 28, 18]
39.639[26, 35, 20, 22, 20, 20, 27, 19]
39.662[27, 35, 21, 24, 20, 20, 28, 19]
39.676[27, 36, 19, 25, 20, 20, 24, 21]
39.699[21, 26, 19, 23, 20, 19, 20, 19]
39.722[20, 24, 18, 23, 23, 18, 21, 19]
39.736[21, 22, 19, 22, 25, 19, 20, 21]
39.759[19, 21, 18, 20, 24, 20, 20, 22]
39.782[19, 21, 19, 18, 23, 20, 22, 20]
39.796[20, 21, 19, 20, 23, 20, 26, 22]
39.819[20, 21, 18, 20, 22, 19, 25, 20]
39.842[19, 21, 19, 19, 20, 19, 26, 20]
39.856[19, 23, 19, 20, 21, 17, 27, 19]
39.88[21, 23, 20, 20, 22, 19, 25, 19]
39.902[20, 20, 20, 20, 21, 17, 22, 18]
39.916[20, 19, 20, 20, 20, 20, 21, 19]
39.939[20, 20, 20, 20, 19, 20, 19, 17]
39.962[20, 17, 19, 19, 20, 19, 18, 19]
39.976[18, 16, 21, 19, 20, 18, 19, 19]
39.999[18, 20, 20, 18, 19, 21, 18, 20]
40.022[23, 41, 24, 22, 22, 19, 20, 21]
40.036[38, 63, 29, 29, 25, 20, 21, 24]
40.059[40, 70, 36, 33, 29, 20, 28, 24]
40.082[42, 72, 35, 33, 28, 19, 34, 25]
40.104[42, 72, 36, 36, 28, 18, 34, 25]
40.12[39, 65, 34, 35, 26, 18, 34, 24]
40.142[26, 44, 30, 30, 25, 18, 34, 21]
40.165[22, 35, 22, 27, 23, 18, 29, 20]
40.179[22, 31, 24, 28, 24, 18, 27, 19]
40.202[25, 27, 22, 26, 24, 18, 28, 18]
40.225[26, 24, 22, 22, 22, 19, 28, 19]
40.24[26, 23, 23, 23, 22, 18, 29, 18]
40.262[28, 23, 24, 22, 18, 17, 28, 20]
40.285[27, 22, 23, 23, 18, 17, 22, 20]
40.299[25, 23, 23, 22, 19, 16, 20, 19]
40.322[25, 22, 23, 25, 22, 17, 21, 21]
40.345[28, 32, 25, 26, 21, 17, 19, 22]
40.359[25, 32, 27, 27, 22, 19, 18, 21]
40.382[26, 34, 26, 26, 23, 18, 18, 23]
40.405[26, 34, 27, 28, 24, 18, 18, 24]
40.419[26, 33, 25, 28, 22, 16, 17, 22]
40.442[24, 26, 23, 28, 22, 17, 17, 23]
40.464[24, 25, 20, 26, 22, 17, 17, 23]
40.479[22, 24, 21, 24, 21, 19, 16, 23]
40.502[20, 25, 20, 24, 23, 19, 18, 22]
40.524[22, 26, 27, 28, 26, 21, 19, 21]
40.539[20, 24, 27, 27, 26, 19, 18, 19]
40.562[20, 21, 27, 29, 26, 20, 17, 19]
40.584[20, 20, 28, 30, 25, 19, 18, 17]
40.599[22, 20, 29, 28, 23, 18, 16, 17]
40.622[19, 19, 23, 23, 21, 18, 14, 18]
40.644[18, 19, 21, 23, 21, 18, 17, 19]
40.659[18, 21, 20, 23, 20, 17, 18, 18]
40.682[19, 21, 17, 22, 21, 17, 18, 19]
40.712[19, 19, 21, 23, 21, 18, 20, 21]
40.719[19, 20, 21, 22, 21, 18, 20, 20]
40.742[21, 19, 23, 22, 21, 18, 19, 21]
40.764[21, 20, 23, 21, 21, 18, 19, 23]
40.779[21, 20, 24, 22, 22, 17, 19, 23]
40.802[21, 23, 22, 21, 21, 18, 18, 22]
40.824[21, 23, 23, 23, 22, 18, 19, 21]
40.839[21, 23, 23, 22, 22, 21, 20, 21]
40.862[22, 22, 24, 23, 24, 21, 20, 17]
40.884[21, 21, 26, 22, 24, 21, 20, 16]
40.899[21, 19, 23, 22, 26, 21, 21, 15]
40.922[23, 21, 21, 20, 25, 20, 22, 19]
40.944[22, 20, 21, 21, 24, 18, 21, 20]
40.966[22, 20, 19, 18, 23, 18, 21, 20]
40.982[23, 21, 18, 19, 21, 18, 21, 23]
41.004[22, 20, 19, 21, 18, 17, 20, 23]
41.026[18, 17, 21, 23, 17, 19, 18, 22]
41.043[19, 17, 20, 23, 18, 19, 20, 22]
41.064[18, 16, 22, 25, 17, 20, 19, 23]
41.086[16, 18, 22, 24, 18, 20, 19, 21]
41.11[17, 19, 23, 23, 18, 20, 20, 20]
41.124[18, 20, 22, 22, 20, 19, 20, 19]
41.146[17, 21, 22, 21, 21, 19, 20, 22]
41.163[18, 21, 22, 20, 22, 19, 20, 22]
41.184[18, 21, 20, 20, 20, 22, 20, 22]
41.206[18, 23, 20, 20, 21, 22, 19, 24]
41.223[18, 21, 20, 20, 21, 22, 21, 26]
41.244[19, 21, 21, 21, 20, 23, 21, 21]
41.268[19, 22, 20, 21, 20, 22, 20, 22]
41.283[19, 21, 21, 21, 22, 21, 21, 21]
41.304[17, 19, 20, 22, 24, 22, 21, 20]
41.327[17, 20, 21, 21, 23, 22, 19, 17]
41.343[18, 19, 20, 21, 23, 21, 18, 19]
41.364[19, 17, 21, 19, 23, 20, 18, 17]
41.388[18, 17, 19, 20, 23, 19, 15, 19]
41.403[18, 18, 21, 21, 21, 18, 16, 19]
41.424[22, 18, 21, 19, 22, 16, 16, 19]
41.446[21, 19, 20, 21, 22, 17, 17, 18]
41.463[21, 19, 21, 22, 21, 19, 18, 19]
41.484[23, 19, 21, 21, 19, 17, 18, 18]
41.506[23, 19, 19, 21, 19, 19, 17, 18]
41.523[20, 20, 19, 23, 18, 18, 18, 18]
41.544[19, 21, 20, 22, 17, 17, 18, 19]
41.566[18, 22, 20, 22, 17, 16, 18, 17]
41.583[19, 21, 20, 22, 17, 18, 19, 18]
41.604[19, 22, 19, 20, 17, 17, 20, 18]
41.626[20, 21, 21, 20, 19, 18, 19, 17]
41.643[20, 20, 21, 20, 19, 21, 20, 19]
41.665[20, 20, 20, 20, 21, 21, 21, 19]
41.686[18, 21, 22, 19, 23, 20, 20, 18]
41.703[19, 21, 22, 21, 25, 20, 20, 19]
41.724[18, 22, 20, 19, 25, 20, 18, 19]
41.746[19, 21, 20, 19, 26, 19, 20, 19]
41.763[19, 21, 20, 20, 27, 18, 18, 19]
41.784[19, 20, 19, 22, 27, 18, 19, 19]
41.806[20, 20, 19, 22, 25, 19, 19, 18]
41.829[21, 19, 20, 22, 23, 19, 19, 18]
41.845[19, 21, 23, 21, 24, 19, 17, 18]
41.866[21, 21, 21, 21, 21, 20, 18, 18]
41.883[22, 22, 22, 20, 20, 21, 16, 18]
41.904[20, 22, 22, 18, 20, 20, 16, 17]
41.926[20, 22, 22, 18, 20, 19, 17, 19]
41.951[22, 21, 20, 21, 19, 19, 17, 18]
41.964[21, 21, 28, 19, 19, 19, 17, 17]
41.986[21, 20, 32, 19, 20, 16, 18, 19]
42.009[26, 22, 37, 20, 22, 18, 19, 20]
42.023[26, 23, 38, 21, 23, 18, 18, 18]
42.054[25, 23, 37, 19, 23, 19, 18, 20]
42.069[25, 24, 33, 19, 23, 20, 18, 20]
42.084[25, 24, 28, 21, 23, 22, 18, 20]
42.106[21, 24, 23, 21, 20, 21, 18, 19]
42.129[21, 24, 21, 21, 19, 20, 19, 20]
42.144[21, 24, 23, 21, 19, 20, 19, 18]
42.166[20, 24, 22, 21, 18, 19, 20, 18]
42.189[19, 23, 22, 20, 18, 17, 18, 18]
42.204[18, 20, 21, 19, 18, 18, 20, 20]
42.226[19, 21, 21, 19, 20, 18, 20, 18]
42.257[19, 19, 17, 19, 20, 19, 20, 19]
42.264[19, 20, 17, 19, 19, 20, 20, 20]
42.286[18, 19, 18, 21, 20, 18, 21, 21]
42.309[19, 20, 17, 23, 20, 20, 21, 20]
42.324[20, 18, 20, 22, 19, 20, 20, 20]
42.346[19, 18, 22, 22, 20, 19, 20, 21]
42.377[19, 20, 22, 24, 20, 19, 20, 21]
42.384[21, 22, 23, 21, 19, 21, 20, 18]
42.406[20, 21, 24, 20, 20, 19, 18, 19]
42.43[19, 22, 24, 22, 21, 21, 19, 21]
42.444[19, 21, 24, 23, 20, 20, 18, 20]
42.466[20, 20, 24, 22, 22, 19, 17, 18]
42.489[19, 22, 24, 23, 22, 18, 17, 20]
42.504[21, 22, 23, 23, 22, 19, 18, 20]
42.526[21, 22, 22, 23, 22, 17, 20, 18]
42.549[21, 22, 21, 22, 24, 18, 22, 20]
42.564[22, 22, 21, 21, 20, 17, 21, 20]
42.587[21, 20, 21, 22, 20, 18, 20, 21]
42.609[21, 20, 21, 22, 22, 18, 20, 21]
42.628[21, 19, 20, 22, 21, 17, 18, 21]
42.655[21, 24, 21, 22, 21, 17, 18, 21]
42.669[21, 24, 23, 23, 22, 19, 19, 21]
42.684[21, 24, 22, 23, 23, 18, 20, 19]
42.709[20, 26, 23, 22, 21, 18, 20, 19]
42.729[20, 26, 24, 20, 22, 18, 19, 19]
42.744[21, 24, 23, 22, 21, 17, 17, 18]
42.766[20, 23, 21, 21, 21, 16, 17, 18]
42.788[21, 24, 20, 20, 19, 16, 19, 19]
42.804[21, 23, 21, 19, 18, 16, 19, 19]
42.826[20, 23, 21, 21, 18, 16, 21, 19]
42.849[19, 22, 20, 18, 18, 19, 21, 20]
42.864[19, 22, 20, 20, 19, 19, 21, 21]
42.886[19, 20, 23, 19, 20, 20, 19, 20]
42.909[19, 19, 21, 19, 21, 21, 20, 20]
42.94[19, 18, 20, 17, 20, 21, 18, 19]
42.946[20, 18, 21, 18, 20, 18, 18, 19]
42.969[20, 18, 22, 17, 22, 19, 17, 17]
42.991[20, 19, 21, 18, 22, 20, 16, 17]
43.006[20, 19, 21, 18, 22, 21, 13, 17]
43.029[19, 19, 22, 18, 21, 22, 15, 18]
43.051[18, 19, 21, 19, 22, 23, 16, 19]
43.066[20, 21, 20, 18, 20, 23, 16, 20]
43.097[19, 20, 20, 21, 20, 21, 16, 21]
43.111[21, 20, 20, 22, 20, 22, 17, 21]
43.126[21, 21, 19, 23, 20, 22, 16, 21]
43.149[23, 22, 21, 22, 19, 21, 15, 20]
43.171[21, 21, 22, 22, 18, 20, 16, 20]
43.186[21, 21, 22, 21, 18, 22, 16, 17]
43.209[19, 22, 23, 22, 18, 19, 16, 20]
43.231[21, 20, 23, 22, 20, 18, 18, 22]
43.246[18, 19, 23, 24, 20, 18, 19, 21]
43.277[19, 20, 22, 24, 21, 18, 19, 21]
43.291[20, 19, 22, 23, 20, 16, 19, 23]
43.306[21, 19, 21, 22, 20, 17, 20, 22]
43.329[20, 20, 20, 23, 20, 16, 19, 21]
43.351[21, 20, 20, 21, 20, 17, 19, 22]
43.366[22, 19, 21, 21, 19, 17, 19, 23]
43.389[20, 19, 21, 23, 21, 19, 19, 23]
43.411[20, 19, 20, 21, 23, 19, 20, 21]
43.426[19, 19, 19, 19, 21, 21, 19, 21]
43.449[20, 19, 20, 18, 23, 21, 19, 21]
43.471[19, 20, 20, 18, 23, 23, 19, 21]
43.486[20, 20, 20, 18, 22, 22, 19, 20]
43.509[19, 20, 20, 21, 21, 22, 18, 22]
43.531[19, 20, 20, 21, 20, 21, 18, 20]
43.546[18, 18, 20, 20, 20, 18, 18, 21]
43.569[19, 19, 22, 20, 19, 17, 17, 18]
43.591[18, 19, 21, 18, 18, 17, 17, 18]
43.606[18, 20, 23, 15, 18, 17, 18, 17]
43.629[18, 19, 23, 18, 17, 17, 18, 17]
43.652[18, 22, 23, 19, 16, 20, 16, 17]
43.666[18, 21, 22, 19, 18, 18, 16, 17]
43.689[20, 22, 22, 19, 19, 18, 17, 17]
43.711[21, 22, 21, 20, 18, 17, 18, 19]
43.726[21, 23, 23, 20, 19, 19, 19, 19]
43.749[22, 22, 22, 20, 19, 17, 22, 18]
43.771[21, 23, 24, 20, 19, 18, 24, 18]
43.786[20, 24, 23, 21, 19, 20, 23, 19]
43.809[19, 23, 23, 21, 21, 22, 21, 17]
43.831[19, 22, 22, 20, 21, 20, 20, 21]
43.855[17, 20, 21, 20, 22, 20, 17, 21]
43.869[17, 19, 19, 21, 21, 20, 16, 21]
43.891[18, 17, 18, 19, 21, 19, 17, 20]
43.914[17, 18, 18, 18, 21, 18, 17, 21]
43.929[17, 20, 18, 20, 20, 19, 19, 18]
43.951[18, 19, 19, 21, 19, 20, 20, 19]
43.974[19, 18, 18, 20, 19, 20, 20, 19]
43.989[16, 17, 19, 20, 18, 19, 20, 18]
44.012[15, 17, 19, 21, 18, 19, 21, 17]
44.034[16, 16, 20, 17, 18, 19, 19, 17]
44.049[15, 17, 22, 15, 19, 20, 20, 17]
44.072[15, 19, 23, 17, 17, 20, 20, 16]
44.094[19, 20, 24, 18, 17, 20, 20, 17]
44.109[20, 22, 24, 18, 19, 20, 20, 15]
44.132[20, 22, 24, 19, 19, 20, 21, 16]
44.162[20, 23, 21, 20, 19, 20, 21, 19]
44.17[21, 22, 22, 19, 22, 21, 20, 19]
44.192[19, 21, 21, 19, 23, 22, 20, 22]
44.214[20, 21, 23, 18, 23, 23, 19, 23]
44.229[20, 22, 22, 19, 22, 22, 19, 21]
44.252[20, 22, 25, 21, 22, 24, 19, 21]
44.274[20, 22, 25, 21, 19, 22, 20, 22]
44.289[20, 24, 25, 20, 21, 21, 20, 18]
44.319[20, 24, 23, 23, 20, 21, 20, 18]
44.334[19, 22, 22, 22, 20, 22, 20, 20]
44.349[19, 21, 21, 21, 21, 19, 21, 20]
44.372[18, 21, 19, 23, 20, 18, 19, 20]
44.394[18, 19, 17, 22, 19, 20, 19, 23]
44.409[17, 21, 16, 20, 18, 20, 19, 22]
44.432[17, 22, 17, 21, 20, 21, 21, 20]
44.455[18, 22, 18, 21, 20, 21, 18, 18]
44.469[20, 25, 19, 19, 21, 21, 20, 18]
44.492[19, 24, 21, 20, 20, 21, 20, 15]
44.514[18, 23, 21, 20, 21, 21, 19, 16]
44.529[21, 22, 20, 21, 20, 20, 17, 18]
44.552[22, 21, 18, 19, 19, 20, 18, 19]
44.574[21, 18, 19, 19, 20, 21, 16, 19]
44.589[22, 20, 18, 19, 20, 20, 17, 19]
44.612[23, 20, 18, 19, 20, 20, 17, 18]
44.634[21, 20, 20, 18, 21, 18, 17, 19]
44.649[20, 21, 22, 19, 21, 20, 17, 17]
44.673[20, 20, 22, 20, 22, 19, 18, 16]
44.694[19, 19, 24, 20, 22, 18, 18, 19]
44.709[18, 19, 25, 20, 23, 19, 17, 19]
44.732[18, 19, 25, 19, 22, 19, 18, 20]
44.754[17, 20, 24, 18, 22, 18, 19, 20]
44.769[16, 20, 22, 18, 21, 19, 20, 22]
44.793[16, 20, 20, 19, 20, 19, 19, 19]
44.814[17, 19, 19, 19, 21, 16, 19, 19]
44.837[17, 20, 19, 19, 21, 17, 18, 17]
44.852[16, 18, 17, 20, 20, 17, 18, 18]
44.875[18, 20, 21, 21, 20, 17, 16, 17]
44.897[19, 22, 21, 20, 20, 16, 18, 20]
44.912[17, 21, 21, 20, 19, 18, 19, 22]
44.934[18, 21, 21, 21, 19, 16, 20, 22]
44.957[18, 21, 22, 20, 19, 17, 19, 22]
44.972[17, 20, 21, 20, 19, 17, 19, 22]
44.994[17, 19, 21, 22, 19, 17, 18, 20]
45.017[17, 20, 22, 21, 18, 17, 17, 17]
45.032[18, 19, 21, 21, 17, 17, 17, 16]
45.055[19, 20, 21, 22, 19, 17, 19, 16]
45.077[19, 22, 19, 22, 18, 18, 18, 17]
45.092[19, 21, 18, 20, 19, 18, 18, 16]
45.114[20, 19, 18, 19, 21, 17, 18, 17]
45.137[21, 20, 19, 18, 22, 19, 18, 18]
45.152[21, 18, 19, 20, 21, 17, 18, 17]
45.174[19, 18, 19, 18, 23, 17, 19, 19]
45.197[19, 16, 20, 17, 22, 19, 18, 21]
45.212[20, 19, 18, 18, 22, 19, 19, 20]
45.234[17, 19, 19, 20, 22, 18, 17, 21]
45.257[18, 19, 21, 18, 21, 20, 17, 21]
45.272[18, 19, 22, 19, 20, 21, 16, 19]
45.295[19, 20, 21, 20, 22, 21, 17, 17]
45.317[18, 18, 21, 20, 20, 21, 17, 19]
45.331[18, 18, 20, 17, 19, 21, 18, 20]
45.354[17, 19, 19, 17, 20, 19, 19, 20]
45.377[18, 18, 17, 16, 22, 18, 20, 20]
45.392[18, 19, 17, 16, 22, 16, 19, 21]
45.414[18, 19, 17, 17, 24, 17, 20, 21]
45.437[17, 19, 17, 19, 23, 18, 19, 19]
45.451[18, 19, 19, 19, 22, 17, 20, 19]
45.475[17, 21, 20, 19, 21, 19, 19, 21]
45.497[19, 21, 20, 18, 19, 19, 21, 21]
45.511[18, 20, 20, 17, 20, 21, 21, 21]
45.535[20, 20, 21, 18, 19, 20, 23, 20]
45.557[18, 20, 19, 18, 20, 21, 24, 20]
45.572[18, 19, 20, 19, 20, 19, 23, 17]
45.594[16, 20, 18, 19, 21, 20, 22, 19]
45.617[16, 23, 18, 20, 20, 19, 21, 20]
45.631[17, 23, 20, 19, 20, 19, 18, 22]
45.654[18, 24, 20, 20, 19, 18, 19, 22]
45.677[18, 23, 18, 22, 19, 20, 20, 21]
45.692[19, 23, 22, 22, 19, 19, 18, 20]
45.714[20, 22, 20, 22, 19, 18, 19, 18]
45.737[19, 22, 20, 21, 20, 18, 19, 17]
45.76[18, 20, 20, 20, 22, 19, 16, 17]
45.774[19, 20, 19, 18, 20, 17, 16, 19]
45.797[19, 19, 17, 19, 20, 17, 19, 18]
45.819[19, 19, 19, 19, 20, 15, 18, 21]
45.834[20, 19, 19, 20, 21, 14, 18, 22]
45.857[19, 20, 18, 20, 21, 14, 19, 22]
45.88[18, 22, 20, 19, 22, 15, 19, 21]
45.895[20, 22, 20, 18, 23, 16, 16, 21]
45.917[19, 21, 19, 17, 22, 19, 17, 18]
45.94[18, 21, 20, 16, 21, 18, 17, 18]
45.954[18, 22, 21, 15, 20, 18, 17, 17]
45.977[19, 21, 19, 16, 19, 19, 17, 17]
46.0[19, 22, 19, 16, 18, 17, 19, 16]
46.015[20, 21, 21, 17, 18, 17, 18, 15]
46.036[20, 20, 19, 15, 16, 17, 18, 17]
46.059[21, 21, 18, 16, 17, 17, 18, 20]
46.075[20, 21, 18, 16, 17, 17, 18, 20]
46.096[18, 19, 19, 16, 17, 18, 16, 22]
46.119[18, 20, 19, 16, 18, 16, 17, 23]
46.136[19, 20, 20, 17, 19, 17, 17, 23]
46.156[18, 20, 21, 19, 18, 18, 17, 21]
46.179[20, 21, 21, 18, 19, 17, 17, 20]
46.195[20, 22, 22, 20, 18, 16, 17, 21]
46.216[19, 21, 21, 21, 18, 17, 18, 21]
46.239[19, 20, 21, 22, 17, 17, 18, 20]
46.263[18, 20, 19, 20, 19, 19, 19, 21]
46.277[17, 21, 21, 20, 17, 22, 20, 21]
46.299[18, 19, 20, 19, 18, 21, 21, 19]
46.316[17, 20, 21, 18, 18, 21, 21, 20]
46.336[18, 21, 23, 17, 20, 22, 21, 20]
46.359[17, 20, 25, 18, 20, 22, 21, 20]
46.375[17, 18, 23, 17, 20, 21, 20, 21]
46.396[18, 20, 23, 17, 23, 22, 19, 20]
46.419[18, 20, 23, 17, 23, 21, 19, 19]
46.435[18, 20, 21, 19, 21, 20, 18, 19]
46.457[18, 20, 23, 18, 22, 19, 18, 17]
46.479[17, 21, 22, 19, 23, 20, 18, 17]
46.495[16, 21, 24, 20, 19, 20, 19, 18]
46.516[17, 20, 23, 21, 21, 19, 19, 19]
46.539[18, 20, 24, 21, 22, 18, 19, 18]
46.555[18, 20, 21, 22, 21, 19, 19, 18]
46.576[20, 19, 22, 21, 20, 18, 19, 18]
46.599[19, 18, 21, 21, 21, 17, 19, 19]
46.615[19, 19, 20, 19, 19, 18, 18, 19]
46.636[20, 19, 20, 19, 19, 18, 18, 19]
46.66[19, 22, 18, 17, 18, 18, 18, 20]
46.681[19, 22, 19, 18, 19, 17, 18, 19]
46.696[20, 22, 18, 18, 18, 17, 17, 18]
46.719[20, 21, 19, 18, 19, 16, 18, 19]
46.742[19, 22, 21, 17, 19, 17, 17, 19]
46.756[19, 20, 22, 19, 19, 16, 18, 20]
46.779[19, 19, 20, 21, 20, 18, 19, 20]
46.801[19, 19, 21, 20, 21, 19, 20, 21]
46.817[19, 20, 21, 21, 21, 18, 20, 19]
46.839[18, 20, 21, 23, 21, 18, 20, 18]
46.862[18, 20, 20, 21, 22, 20, 20, 17]
46.876[18, 20, 20, 21, 21, 18, 21, 18]
46.899[17, 20, 18, 21, 20, 18, 21, 18]
46.921[17, 19, 18, 20, 21, 19, 20, 18]
46.937[18, 19, 15, 20, 20, 20, 20, 18]
46.959[19, 18, 16, 22, 21, 19, 20, 19]
46.981[19, 18, 17, 20, 19, 18, 19, 20]
46.996[19, 19, 19, 20, 21, 19, 18, 18]
47.019[20, 21, 18, 20, 21, 18, 21, 19]
47.041[19, 20, 19, 22, 22, 17, 21, 20]
47.056[18, 21, 21, 22, 20, 18, 20, 18]
47.079[19, 22, 20, 22, 22, 17, 20, 17]
47.101[17, 22, 19, 23, 21, 17, 20, 18]
47.116[18, 21, 23, 23, 21, 18, 17, 19]
47.139[18, 21, 23, 19, 21, 18, 16, 17]
47.161[17, 19, 22, 17, 23, 16, 18, 17]
47.177[18, 20, 22, 17, 22, 17, 17, 18]
47.199[18, 20, 22, 16, 23, 17, 17, 18]
47.221[17, 21, 20, 17, 24, 15, 21, 16]
47.236[16, 20, 20, 18, 24, 17, 21, 17]
47.259[19, 21, 19, 19, 23, 18, 21, 18]
47.281[17, 19, 20, 20, 23, 20, 23, 18]
47.297[18, 19, 21, 19, 21, 21, 22, 19]
47.319[20, 19, 21, 18, 20, 22, 20, 20]
47.343[21, 20, 22, 16, 21, 23, 22, 20]
47.357[19, 19, 23, 18, 20, 23, 20, 20]
47.379[20, 22, 24, 17, 19, 20, 18, 19]
47.401[20, 22, 23, 17, 20, 21, 19, 19]
47.417[19, 22, 23, 17, 20, 20, 19, 19]
47.439[17, 21, 22, 18, 19, 18, 17, 17]
47.462[18, 22, 23, 19, 19, 17, 18, 18]
47.477[18, 20, 22, 19, 21, 18, 20, 18]
47.498[18, 20, 21, 20, 21, 17, 19, 17]
47.521[17, 19, 21, 21, 21, 17, 18, 16]
47.538[18, 19, 21, 22, 21, 18, 20, 17]
47.559[18, 20, 21, 20, 23, 17, 20, 16]
47.581[19, 20, 20, 21, 22, 17, 20, 18]
47.604[19, 20, 19, 20, 22, 16, 20, 19]
47.619[19, 20, 21, 19, 21, 16, 20, 19]
47.649[19, 20, 20, 20, 22, 17, 21, 19]
47.664[19, 21, 20, 21, 19, 19, 20, 19]
47.679[18, 21, 20, 20, 20, 20, 20, 19]
47.701[18, 22, 21, 20, 20, 19, 19, 19]
47.724[18, 22, 19, 21, 20, 20, 18, 20]
47.739[19, 21, 21, 21, 20, 19, 18, 20]
47.761[17, 20, 22, 19, 19, 18, 17, 19]
47.784[21, 19, 22, 20, 21, 17, 16, 19]
47.799[21, 19, 21, 20, 21, 19, 19, 19]
47.821[20, 19, 23, 21, 20, 19, 20, 19]
47.844[19, 18, 19, 19, 20, 21, 19, 19]
47.859[21, 18, 20, 20, 22, 20, 21, 20]
47.881[17, 20, 20, 19, 20, 20, 22, 18]
47.904[17, 20, 20, 19, 19, 18, 19, 18]
47.919[17, 19, 21, 17, 20, 17, 18, 18]
47.941[17, 20, 23, 18, 21, 16, 19, 18]
47.964[16, 20, 22, 20, 18, 16, 21, 18]
47.979[17, 20, 21, 21, 19, 17, 20, 19]
48.001[17, 19, 22, 20, 20, 16, 19, 18]
48.024[16, 21, 20, 19, 18, 18, 21, 17]
48.047[16, 21, 22, 20, 18, 18, 19, 18]
48.061[17, 20, 22, 18, 19, 18, 17, 18]
48.084[16, 19, 23, 17, 19, 18, 18, 16]
48.099[17, 20, 21, 17, 19, 19, 21, 18]
48.121[17, 19, 23, 19, 21, 19, 20, 20]
48.144[18, 19, 21, 19, 21, 20, 20, 19]
48.159[19, 18, 21, 19, 20, 20, 19, 19]
48.181[19, 21, 20, 19, 20, 20, 20, 20]
48.204[20, 20, 23, 20, 20, 20, 17, 20]
48.219[21, 19, 22, 18, 18, 20, 19, 19]
48.241[21, 19, 22, 19, 18, 19, 20, 19]
48.264[19, 21, 23, 18, 19, 21, 21, 19]
48.279[21, 19, 23, 16, 19, 21, 20, 21]
48.301[19, 19, 21, 19, 19, 21, 21, 20]
48.324[21, 19, 22, 19, 20, 22, 21, 21]
48.339[20, 21, 21, 21, 20, 23, 20, 20]
48.361[20, 20, 22, 22, 20, 22, 19, 20]
48.384[20, 21, 21, 22, 20, 20, 18, 17]
48.399[20, 21, 23, 21, 19, 20, 18, 17]
48.422[17, 21, 21, 22, 19, 19, 19, 16]
48.444[18, 22, 23, 20, 21, 19, 18, 16]
48.459[19, 22, 23, 21, 21, 18, 19, 17]
48.481[18, 20, 23, 21, 20, 18, 20, 18]
48.504[20, 20, 24, 19, 21, 19, 21, 17]
48.519[22, 19, 23, 18, 22, 18, 19, 17]
48.541[21, 17, 22, 20, 21, 18, 18, 17]
48.564[22, 20, 21, 20, 20, 19, 19, 19]
48.587[20, 19, 20, 22, 20, 19, 20, 19]
48.601[18, 19, 19, 22, 19, 18, 19, 19]
48.624[17, 20, 19, 24, 19, 19, 18, 20]
48.647[17, 19, 17, 21, 19, 17, 21, 20]
48.661[16, 17, 17, 23, 20, 17, 20, 18]
48.684[17, 18, 19, 22, 22, 17, 20, 18]
48.707[17, 18, 18, 22, 21, 18, 19, 17]
48.721[17, 18, 20, 21, 21, 17, 19, 18]
48.744[17, 19, 20, 22, 22, 17, 15, 17]
48.767[17, 18, 20, 21, 21, 18, 18, 17]
48.781[17, 18, 21, 20, 21, 18, 17, 17]
48.804[17, 18, 23, 22, 23, 19, 19, 18]
48.827[16, 17, 22, 22, 22, 19, 21, 18]
48.841[16, 18, 24, 21, 21, 20, 21, 18]
48.864[18, 20, 24, 21, 20, 20, 19, 19]
48.887[18, 19, 23, 21, 20, 19, 20, 19]
48.901[18, 20, 22, 19, 18, 20, 17, 19]
48.924[18, 20, 23, 19, 19, 19, 16, 18]
48.947[19, 21, 23, 19, 18, 18, 17, 19]
48.961[18, 20, 22, 20, 18, 19, 16, 19]
48.984[18, 20, 23, 19, 17, 19, 16, 19]
49.007[18, 19, 23, 17, 18, 19, 18, 18]
49.021[19, 19, 24, 19, 17, 20, 18, 19]
49.044[20, 18, 23, 19, 19, 22, 18, 19]
49.067[18, 18, 23, 17, 20, 21, 19, 20]
49.081[18, 19, 21, 19, 21, 22, 20, 20]
49.104[20, 20, 22, 21, 20, 21, 20, 19]
49.128[20, 21, 22, 20, 20, 21, 20, 20]
49.141[17, 21, 20, 20, 20, 19, 20, 20]
49.164[19, 19, 23, 21, 18, 19, 19, 18]
49.187[19, 19, 24, 20, 17, 18, 19, 18]
49.202[17, 18, 24, 19, 18, 18, 19, 23]
49.224[17, 19, 22, 19, 17, 18, 18, 23]
49.247[18, 17, 24, 18, 17, 20, 18, 23]
49.261[19, 18, 20, 18, 18, 19, 19, 23]
49.284[18, 18, 18, 18, 20, 19, 18, 23]
49.307[20, 18, 20, 18, 20, 18, 17, 19]
49.321[19, 17, 22, 17, 21, 19, 16, 18]
49.344[18, 20, 22, 18, 23, 17, 16, 19]
49.367[18, 20, 22, 17, 21, 18, 14, 20]
49.381[19, 19, 23, 16, 22, 19, 15, 18]
49.404[18, 20, 21, 18, 23, 21, 16, 18]
49.435[19, 20, 19, 18, 23, 19, 18, 20]
49.441[19, 19, 20, 19, 22, 19, 18, 19]
49.464[19, 18, 20, 19, 24, 19, 20, 18]
49.487[18, 19, 19, 19, 22, 18, 20, 19]
49.501[20, 19, 22, 19, 21, 18, 20, 19]
49.524[20, 19, 22, 19, 21, 20, 18, 17]
49.547[21, 19, 21, 19, 20, 19, 19, 18]
49.57[21, 21, 21, 18, 20, 19, 17, 18]
49.585[19, 20, 21, 19, 21, 20, 16, 20]
49.607[19, 21, 19, 18, 21, 19, 15, 19]
49.63[17, 19, 21, 19, 22, 19, 16, 20]
49.645[17, 21, 20, 20, 22, 20, 18, 20]
49.667[18, 21, 20, 20, 20, 19, 18, 20]
49.69[19, 22, 19, 20, 19, 18, 18, 19]
49.705[17, 21, 19, 21, 19, 20, 20, 21]
49.727[19, 23, 17, 21, 19, 19, 20, 19]
49.749[19, 22, 19, 20, 18, 19, 18, 19]
49.765[19, 21, 19, 21, 18, 19, 18, 19]
49.787[20, 21, 18, 21, 18, 19, 18, 18]
49.809[21, 20, 19, 20, 16, 18, 16, 18]
49.825[20, 19, 21, 18, 16, 19, 16, 18]
49.847[21, 18, 20, 18, 19, 19, 18, 19]
49.87[20, 18, 22, 18, 19, 19, 20, 19]
49.885[20, 20, 23, 17, 19, 18, 21, 20]
49.908[21, 20, 22, 17, 20, 17, 21, 18]
49.93[19, 19, 21, 17, 20, 17, 22, 19]
49.945[20, 19, 20, 16, 21, 17, 22, 19]
49.967[20, 19, 20, 16, 21, 17, 20, 19]
49.99[18, 19, 19, 17, 22, 17, 19, 20]
50.005[16, 19, 22, 17, 22, 18, 20, 20]
50.027[18, 19, 22, 17, 22, 18, 20, 20]
50.05[17, 18, 23, 18, 20, 18, 19, 20]
50.064[16, 19, 22, 20, 21, 18, 19, 20]
50.087[17, 17, 23, 22, 19, 18, 19, 19]
50.11[18, 19, 21, 22, 20, 17, 19, 19]
50.124[16, 19, 21, 23, 22, 16, 18, 19]
50.147[17, 20, 21, 22, 23, 15, 18, 19]
50.17[18, 21, 22, 20, 24, 18, 19, 19]
50.184[19, 20, 21, 18, 26, 18, 19, 18]
50.207[21, 20, 20, 18, 23, 19, 19, 18]
50.23[21, 20, 22, 18, 22, 18, 20, 19]
50.244[21, 21, 29, 20, 22, 19, 20, 18]
50.267[21, 20, 28, 19, 23, 17, 20, 17]
50.29[19, 21, 29, 18, 22, 18, 20, 18]
50.304[17, 20, 29, 18, 24, 17, 22, 18]
50.327[17, 21, 28, 17, 24, 17, 20, 18]
50.349[19, 20, 21, 16, 24, 17, 20, 17]
50.364[18, 20, 25, 16, 22, 18, 20, 17]
50.387[20, 20, 28, 16, 22, 21, 19, 16]
50.41[20, 22, 30, 15, 21, 22, 31, 16]
50.424[19, 20, 30, 14, 20, 23, 35, 15]
50.447