[16, 22, 20, 22, 18, 29, 20, 22]
1.71[20, 26, 25, 24, 23, 34, 27, 25]
1.734[21, 27, 30, 24, 24, 33, 29, 28]
1.756[25, 28, 30, 21, 25, 31, 29, 27]
1.771[26, 26, 32, 21, 27, 32, 26, 30]
1.793[28, 28, 32, 21, 26, 30, 30, 26]
1.816[26, 23, 29, 18, 25, 25, 24, 27]
1.831[27, 23, 25, 18, 25, 25, 23, 24]
1.853[23, 24, 27, 19, 25, 28, 22, 26]
1.876[23, 24, 23, 17, 24, 29, 20, 23]
1.89[23, 23, 24, 19, 26, 28, 20, 22]
1.913[23, 23, 23, 19, 23, 27, 21, 20]
1.936[20, 23, 21, 19, 21, 27, 22, 20]
1.95[21, 23, 21, 19, 22, 23, 24, 18]
1.973[22, 23, 20, 20, 22, 22, 25, 19]
1.996[21, 22, 22, 17, 21, 19, 23, 23]
2.01[19, 23, 21, 17, 23, 22, 23, 23]
2.033[20, 21, 25, 18, 24, 24, 21, 23]
2.057[23, 20, 24, 17, 23, 26, 19, 26]
2.07[21, 19, 25, 16, 22, 26, 21, 28]
2.093[21, 21, 23, 17, 20, 27, 22, 26]
2.116[21, 21, 24, 21, 19, 24, 22, 25]
2.131[22, 23, 22, 21, 19, 25, 23, 25]
2.153[18, 21, 22, 21, 19, 23, 26, 25]
2.176[22, 23, 20, 21, 20, 23, 24, 23]
2.199[21, 22, 23, 24, 23, 24, 23, 24]
2.213[20, 22, 23, 21, 23, 27, 24, 24]
2.236[20, 21, 21, 21, 24, 24, 26, 24]
2.26[22, 26, 21, 24, 23, 25, 24, 22]
2.273[17, 23, 20, 23, 24, 26, 25, 22]
2.297[18, 22, 18, 22, 22, 25, 24, 21]
2.319[17, 25, 18, 21, 22, 22, 24, 21]
2.336[18, 24, 21, 21, 21, 22, 22, 21]
2.356[16, 22, 21, 20, 22, 19, 22, 22]
2.378[16, 26, 22, 20, 22, 17, 20, 22]
2.393[18, 26, 22, 19, 23, 20, 22, 22]
2.417[19, 24, 19, 22, 24, 20, 20, 21]
2.439[19, 24, 18, 22, 24, 23, 19, 22]
2.453[19, 23, 16, 20, 25, 24, 21, 22]
2.476[19, 21, 19, 21, 24, 27, 21, 21]
2.498[19, 19, 19, 25, 26, 26, 22, 20]
2.513[19, 20, 21, 23, 26, 26, 25, 21]
2.536[20, 19, 21, 23, 25, 25, 25, 24]
2.558[21, 18, 23, 24, 23, 25, 25, 23]
2.573[22, 17, 20, 24, 24, 26, 25, 26]
2.596[21, 17, 21, 20, 19, 26, 26, 26]
2.618[22, 18, 20, 20, 18, 26, 25, 27]
2.642[23, 18, 23, 21, 19, 25, 26, 23]
2.655[22, 19, 21, 20, 17, 26, 24, 27]
2.678[22, 20, 21, 19, 19, 24, 25, 26]
2.701[21, 22, 26, 19, 20, 24, 22, 25]
2.724[19, 21, 25, 20, 19, 24, 21, 24]
2.738[17, 21, 24, 19, 20, 23, 19, 22]
2.761[19, 23, 25, 18, 19, 22, 20, 23]
2.783[18, 22, 26, 20, 18, 22, 22, 22]
2.799[20, 21, 21, 20, 19, 24, 22, 22]
2.829[21, 22, 24, 21, 21, 25, 23, 24]
2.844[23, 22, 22, 21, 21, 27, 24, 27]
2.859[24, 21, 22, 20, 24, 26, 22, 23]
2.881[26, 22, 22, 21, 23, 26, 20, 24]
2.904[26, 22, 22, 21, 23, 30, 21, 25]
2.927[27, 21, 22, 19, 24, 29, 22, 23]
2.94[25, 20, 22, 20, 24, 27, 20, 21]
2.963[26, 20, 20, 21, 22, 26, 25, 20]
2.979[23, 19, 21, 20, 22, 28, 26, 20]
3.001[22, 19, 21, 19, 21, 20, 24, 18]
3.025[21, 17, 19, 20, 20, 22, 22, 19]
3.039[20, 18, 21, 20, 21, 23, 26, 22]
3.061[18, 19, 24, 23, 22, 23, 23, 24]
3.083[21, 18, 23, 22, 23, 21, 24, 25]
3.099[20, 19, 23, 24, 23, 23, 26, 26]
3.12[22, 19, 23, 24, 23, 26, 27, 27]
3.143[25, 21, 24, 24, 23, 25, 24, 24]
3.159[25, 23, 23, 24, 21, 27, 25, 25]
3.18[24, 24, 22, 25, 22, 26, 23, 23]
3.203[24, 24, 23, 24, 22, 26, 21, 23]
3.22[25, 26, 23, 24, 22, 24, 21, 18]
3.24[23, 24, 22, 23, 21, 24, 20, 22]
3.263[24, 21, 21, 21, 22, 21, 17, 19]
3.279[23, 20, 22, 22, 22, 24, 20, 20]
3.3[23, 21, 22, 25, 22, 23, 20, 19]
3.323[24, 20, 25, 25, 23, 23, 18, 22]
3.339[26, 24, 26, 26, 23, 23, 21, 19]
3.36[26, 23, 25, 25, 23, 26, 21, 20]
3.383[25, 27, 26, 25, 22, 24, 21, 21]
3.399[27, 27, 24, 21, 21, 21, 21, 22]
3.42[25, 26, 21, 21, 19, 18, 24, 20]
3.443[20, 23, 22, 20, 20, 20, 23, 21]
3.459[22, 24, 23, 19, 20, 19, 22, 23]
3.481[22, 20, 22, 19, 19, 22, 21, 21]
3.503[23, 24, 24, 24, 21, 24, 22, 22]
3.519[23, 25, 24, 23, 21, 26, 20, 25]
3.541[25, 28, 21, 24, 21, 25, 21, 24]
3.563[23, 27, 22, 24, 20, 26, 21, 21]
3.58[24, 28, 23, 25, 22, 27, 22, 22]
3.6[22, 26, 20, 21, 21, 25, 20, 21]
3.623[20, 25, 21, 23, 19, 25, 20, 22]
3.645[22, 23, 23, 24, 19, 27, 22, 23]
3.661[23, 24, 23, 24, 19, 24, 23, 24]
3.683[22, 22, 23, 25, 18, 23, 22, 26]
3.706[23, 22, 23, 25, 21, 24, 24, 26]
3.72[23, 24, 23, 23, 21, 24, 25, 23]
3.751[24, 55, 31, 24, 22, 21, 23, 23]
3.765[31, 63, 30, 24, 25, 24, 24, 24]
3.78[30, 70, 34, 23, 25, 22, 24, 22]
3.803[30, 73, 36, 24, 23, 22, 21, 22]
3.825[31, 77, 35, 25, 25, 19, 21, 23]
3.84[29, 63, 29, 24, 25, 23, 20, 25]
3.863[22, 57, 28, 26, 24, 22, 18, 24]
3.885[22, 48, 26, 27, 22, 23, 17, 24]
3.901[22, 43, 23, 28, 24, 24, 21, 24]
3.923[27, 38, 22, 28, 23, 24, 18, 22]
3.945[29, 34, 23, 28, 25, 21, 21, 20]
3.961[30, 33, 23, 27, 26, 20, 21, 20]
3.983[31, 34, 24, 26, 27, 21, 21, 22]
4.007[31, 34, 28, 26, 26, 20, 21, 22]
4.021[30, 42, 29, 28, 26, 21, 21, 25]
4.043[29, 51, 32, 27, 27, 22, 19, 24]
4.067[36, 56, 37, 28, 24, 23, 21, 25]
4.081[37, 60, 36, 30, 24, 22, 22, 25]
4.103[38, 62, 35, 28, 24, 21, 22, 26]
4.127[37, 56, 33, 25, 24, 22, 21, 25]
4.141[37, 47, 32, 27, 24, 22, 24, 26]
4.163[32, 40, 30, 25, 26, 21, 25, 23]
4.185[30, 45, 29, 23, 26, 24, 26, 22]
4.201[30, 44, 28, 24, 26, 25, 24, 20]
4.223[30, 47, 30, 28, 27, 25, 24, 20]
4.246[29, 46, 27, 25, 25, 24, 22, 21]
4.261[27, 45, 25, 27, 24, 26, 21, 23]
4.29[26, 33, 25, 28, 24, 23, 19, 24]
4.305[25, 30, 24, 28, 22, 23, 21, 24]
4.321[24, 30, 22, 26, 23, 27, 21, 24]
4.343[28, 29, 22, 27, 24, 27, 22, 24]
4.366[30, 29, 23, 27, 24, 26, 22, 24]
4.381[31, 28, 23, 27, 23, 28, 23, 23]
4.403[32, 28, 23, 25, 24, 32, 21, 24]
4.425[30, 26, 24, 25, 22, 28, 21, 24]
4.441[28, 25, 24, 24, 21, 29, 20, 24]
4.463[26, 27, 23, 23, 22, 28, 19, 24]
4.486[27, 27, 24, 24, 22, 26, 20, 25]
4.501[26, 28, 26, 25, 23, 23, 22, 25]
4.523[28, 27, 25, 25, 22, 22, 24, 24]
4.546[27, 30, 25, 26, 22, 24, 23, 25]
4.568[27, 32, 23, 24, 21, 24, 24, 24]
4.583[30, 46, 23, 26, 21, 25, 25, 25]
4.606[32, 54, 21, 28, 21, 23, 25, 26]
4.628[34, 56, 23, 28, 23, 23, 24, 24]
4.643[34, 55, 25, 27, 24, 23, 26, 26]
4.666[35, 55, 26, 28, 24, 23, 25, 28]
4.688[31, 44, 26, 27, 24, 24, 26, 24]
4.703[29, 32, 26, 25, 23, 23, 24, 27]
4.726[27, 33, 26, 24, 22, 22, 22, 28]
4.748[26, 30, 25, 25, 22, 21, 20, 24]
4.764[27, 29, 27, 26, 23, 21, 24, 23]
4.794[26, 29, 27, 25, 22, 18, 21, 27]
4.808[25, 33, 27, 25, 26, 19, 23, 24]
4.823[25, 30, 26, 27, 26, 21, 24, 23]
4.846[26, 44, 29, 26, 26, 21, 23, 26]
4.868[25, 45, 30, 27, 26, 21, 19, 27]
4.883[25, 46, 30, 27, 28, 22, 20, 24]
4.906[25, 45, 29, 25, 26, 22, 21, 27]
4.928[27, 46, 31, 23, 24, 21, 19, 27]
4.943[27, 35, 27, 22, 25, 20, 20, 25]
4.965[26, 32, 27, 22, 25, 22, 22, 25]
4.988[26, 34, 25, 21, 22, 22, 23, 24]
5.003[25, 32, 26, 23, 22, 23, 21, 23]
5.026[22, 32, 23, 25, 21, 27, 22, 23]
5.048[20, 31, 26, 26, 20, 26, 24, 23]
5.063[20, 29, 25, 25, 20, 25, 21, 22]
5.094[20, 28, 25, 26, 20, 28, 21, 25]
5.108[24, 28, 25, 25, 20, 25, 24, 23]
5.123[27, 27, 25, 22, 20, 24, 25, 23]
5.146[27, 27, 22, 22, 20, 25, 22, 26]
5.168[28, 33, 26, 23, 21, 26, 22, 28]
5.183[29, 29, 26, 22, 23, 24, 21, 25]
5.206[27, 29, 27, 20, 22, 24, 20, 25]
5.229[25, 30, 28, 21, 24, 21, 19, 24]
5.243[26, 28, 28, 21, 25, 21, 19, 21]
5.274[28, 24, 25, 23, 24, 21, 21, 22]
5.288[29, 26, 26, 24, 23, 22, 21, 25]
5.305[29, 24, 26, 26, 22, 22, 22, 25]
5.326[30, 23, 24, 27, 24, 23, 22, 26]
5.349[28, 25, 24, 27, 22, 22, 24, 26]
5.364[27, 28, 27, 23, 23, 20, 23, 26]
5.386[24, 26, 26, 24, 22, 21, 25, 23]
5.408[26, 28, 25, 24, 23, 26, 24, 23]
5.423[23, 28, 28, 23, 22, 27, 23, 23]
5.445[24, 27, 28, 23, 22, 30, 25, 23]
5.476[26, 23, 24, 25, 23, 29, 25, 19]
5.483[26, 23, 24, 24, 23, 27, 25, 21]
5.506[24, 21, 24, 26, 24, 24, 25, 21]
5.528[24, 22, 19, 25, 23, 22, 26, 20]
5.552[26, 22, 19, 25, 24, 24, 24, 22]
5.566[27, 25, 18, 25, 22, 26, 24, 24]
5.588[26, 24, 18, 26, 23, 27, 23, 23]
5.611[27, 25, 18, 27, 22, 26, 23, 22]
5.626[28, 26, 19, 27, 22, 26, 23, 22]
5.648[27, 26, 21, 27, 22, 21, 23, 25]
5.671[25, 24, 22, 25, 21, 20, 24, 23]
5.686[26, 24, 22, 24, 23, 21, 24, 23]
5.708[24, 24, 23, 21, 21, 22, 24, 25]
5.732[23, 22, 24, 22, 21, 24, 24, 25]
5.746[22, 20, 21, 21, 22, 25, 22, 20]
5.769[24, 21, 22, 20, 25, 24, 21, 21]
5.792[23, 22, 22, 21, 21, 24, 21, 22]
5.806[23, 20, 22, 23, 23, 24, 21, 21]
5.829[25, 20, 24, 22, 23, 20, 21, 23]
5.852[23, 24, 24, 23, 22, 19, 23, 25]
5.866[23, 23, 24, 22, 19, 18, 24, 25]
5.888[23, 22, 25, 23, 22, 19, 22, 25]
5.911[25, 22, 23, 21, 21, 20, 26, 22]
5.926[23, 25, 23, 21, 21, 23, 25, 23]
5.948[25, 23, 25, 20, 24, 22, 23, 20]
5.971[22, 24, 24, 21, 24, 28, 23, 22]
5.986[22, 22, 23, 18, 22, 26, 24, 21]
6.008[22, 24, 24, 19, 24, 26, 20, 23]
6.031[22, 20, 22, 20, 23, 25, 20, 20]
6.046[21, 21, 21, 23, 22, 25, 21, 22]
6.068[23, 21, 22, 22, 21, 19, 19, 21]
6.092[22, 22, 21, 23, 23, 17, 20, 21]
6.106[22, 20, 21, 23, 21, 18, 20, 21]
6.128[20, 24, 21, 22, 21, 19, 21, 22]
6.152[20, 22, 21, 19, 19, 18, 20, 21]
6.166[20, 22, 19, 21, 22, 19, 21, 23]
6.188[20, 23, 22, 21, 20, 20, 19, 23]
6.212[19, 23, 21, 20, 21, 21, 19, 22]
6.226[21, 21, 23, 20, 20, 19, 19, 21]
6.248[20, 23, 22, 19, 22, 21, 19, 21]
6.271[20, 23, 24, 18, 20, 21, 21, 21]
6.286[21, 21, 24, 20, 23, 23, 21, 20]
6.308[20, 23, 25, 21, 24, 24, 26, 20]
6.332[19, 21, 23, 21, 24, 25, 26, 19]
6.346[19, 20, 24, 23, 23, 24, 27, 20]
6.369[19, 21, 27, 23, 23, 24, 25, 19]
6.391[18, 23, 25, 22, 22, 22, 26, 18]
6.406[20, 21, 25, 21, 20, 21, 21, 18]
6.428[22, 24, 24, 21, 21, 22, 20, 20]
6.452[22, 24, 22, 21, 23, 22, 20, 19]
6.474[21, 23, 19, 25, 22, 24, 20, 18]
6.489[21, 22, 22, 24, 22, 23, 19, 20]
6.511[20, 23, 22, 25, 24, 22, 19, 22]
6.534[19, 23, 23, 24, 24, 21, 20, 25]
6.549[21, 23, 23, 23, 23, 22, 19, 25]
6.572[21, 26, 23, 19, 23, 20, 19, 25]
6.595[23, 30, 21, 19, 22, 21, 20, 24]
6.61[23, 32, 20, 18, 20, 22, 19, 22]
6.631[22, 30, 20, 20, 21, 21, 22, 19]
6.654[22, 31, 20, 21, 19, 23, 23, 18]
6.669[24, 31, 22, 22, 20, 24, 24, 20]
6.691[25, 26, 21, 23, 20, 23, 27, 22]
6.714[24, 23, 22, 23, 20, 23, 30, 21]
6.729[24, 24, 20, 21, 19, 26, 28, 22]
6.752[24, 21, 21, 21, 18, 24, 26, 22]
6.774[22, 19, 19, 24, 18, 23, 26, 22]
6.789[23, 21, 20, 23, 19, 22, 22, 20]
6.812[24, 22, 22, 24, 18, 22, 21, 21]
6.834[24, 22, 21, 25, 19, 21, 24, 22]
6.849[24, 22, 23, 25, 19, 22, 23, 22]
6.872[24, 23, 24, 25, 19, 23, 22, 19]
6.894[21, 22, 23, 23, 19, 25, 22, 20]
6.909[22, 22, 21, 21, 20, 25, 19, 26]
6.932[21, 21, 22, 22, 20, 24, 18, 24]
6.954[22, 24, 21, 22, 21, 23, 19, 24]
6.968[23, 22, 19, 20, 22, 25, 20, 25]
6.992[23, 21, 19, 21, 23, 24, 20, 24]
7.014[24, 20, 18, 21, 24, 28, 21, 21]
7.028[26, 21, 20, 23, 24, 27, 21, 21]
7.052[25, 21, 17, 23, 23, 28, 22, 24]
7.074[23, 22, 19, 22, 21, 29, 21, 24]
7.089[24, 27, 20, 21, 21, 31, 22, 24]
7.112[23, 27, 23, 22, 21, 28, 20, 22]
7.134[21, 28, 21, 21, 21, 29, 18, 21]
7.149[24, 30, 26, 21, 22, 27, 19, 20]
7.172[26, 29, 26, 20, 22, 24, 18, 21]
7.194[25, 25, 24, 22, 22, 20, 19, 22]
7.209[25, 24, 22, 22, 21, 23, 23, 22]
7.232[25, 25, 25, 19, 21, 23, 24, 22]
7.255[22, 19, 20, 19, 20, 25, 23, 22]
7.269[20, 20, 21, 20, 22, 26, 24, 21]
7.292[21, 22, 26, 18, 21, 25, 24, 22]
7.314[22, 24, 26, 17, 21, 23, 23, 23]
7.329[23, 21, 25, 18, 22, 22, 24, 23]
7.352[23, 22, 26, 18, 22, 19, 22, 24]
7.374[23, 21, 28, 19, 20, 20, 22, 25]
7.388[24, 20, 25, 20, 22, 24, 22, 24]
7.412[22, 19, 25, 19, 21, 25, 21, 22]
7.442[23, 21, 26, 19, 21, 27, 20, 22]
7.457[22, 22, 26, 18, 22, 25, 23, 20]
7.472[23, 24, 23, 21, 20, 25, 22, 22]
7.495[20, 24, 23, 19, 19, 21, 21, 21]
7.517[20, 23, 25, 19, 22, 20, 22, 22]
7.532[17, 24, 25, 22, 22, 19, 23, 23]
7.554[18, 22, 24, 24, 22, 23, 21, 23]
7.577[20, 21, 24, 20, 26, 22, 21, 21]
7.592[19, 20, 23, 24, 26, 22, 22, 21]
7.614[21, 24, 22, 26, 23, 23, 23, 21]
7.637[22, 23, 21, 23, 23, 22, 25, 20]
7.659[22, 26, 19, 22, 22, 23, 27, 20]
7.674[19, 25, 21, 24, 21, 24, 27, 20]
7.697[20, 26, 21, 21, 20, 25, 27, 19]
7.712[21, 23, 21, 23, 25, 25, 25, 19]
7.734[23, 23, 22, 23, 24, 28, 22, 21]
7.757[23, 22, 24, 25, 24, 26, 18, 20]
7.772[26, 24, 22, 23, 22, 26, 25, 18]
7.794[27, 22, 21, 24, 22, 26, 25, 19]
7.817[26, 22, 22, 19, 19, 26, 25, 20]
7.833[24, 25, 20, 24, 19, 23, 26, 19]
7.854[24, 23, 20, 24, 20, 22, 27, 20]
7.877[23, 21, 22, 23, 21, 27, 21, 22]
7.892[23, 24, 23, 22, 22, 29, 21, 22]
7.914[24, 23, 23, 25, 21, 28, 21, 19]
7.936[24, 19, 23, 21, 23, 33, 24, 21]
7.959[25, 21, 20, 17, 23, 32, 25, 19]
7.975[23, 20, 19, 23, 21, 29, 24, 20]
7.996[22, 20, 21, 25, 21, 26, 26, 23]
8.013[21, 20, 18, 24, 22, 27, 29, 23]
8.035[20, 22, 20, 24, 20, 22, 27, 22]
8.056[19, 22, 24, 26, 19, 23, 26, 23]
8.072[19, 23, 23, 23, 18, 23, 28, 25]
8.095[21, 23, 23, 22, 18, 24, 27, 24]
8.124[22, 24, 26, 22, 18, 25, 23, 24]
8.133[24, 25, 24, 21, 19, 24, 25, 23]
8.161[24, 28, 24, 20, 19, 25, 26, 26]
8.176[23, 26, 25, 20, 20, 26, 27, 24]
8.193[21, 29, 25, 21, 19, 25, 29, 25]
8.215[21, 27, 23, 22, 19, 23, 31, 26]
8.236[21, 27, 23, 23, 18, 25, 32, 27]
8.253[20, 24, 26, 21, 19, 26, 30, 25]
8.275[21, 26, 26, 22, 20, 27, 31, 26]
8.296[22, 25, 26, 22, 20, 27, 28, 23]
8.313[21, 26, 26, 19, 18, 29, 26, 23]
8.334[19, 24, 26, 19, 19, 30, 22, 24]
8.356[21, 24, 23, 19, 19, 30, 23, 24]
8.379[19, 22, 22, 25, 20, 25, 21, 22]
8.393[20, 18, 22, 23, 21, 26, 21, 25]
8.416[22, 20, 22, 24, 22, 24, 20, 24]
8.439[23, 22, 24, 24, 23, 21, 22, 22]
8.454[23, 24, 28, 25, 22, 21, 22, 23]
8.476[24, 24, 28, 21, 21, 21, 23, 22]
8.499[25, 23, 28, 24, 22, 21, 22, 21]
8.514[24, 24, 30, 23, 25, 21, 22, 20]
8.536[24, 24, 30, 26, 23, 22, 20, 24]
8.559[23, 23, 28, 25, 23, 19, 21, 22]
8.581[23, 26, 35, 25, 23, 19, 19, 24]
8.597[24, 26, 36, 21, 22, 19, 21, 24]
8.619[24, 25, 35, 23, 18, 21, 21, 27]
8.634[23, 26, 36, 22, 18, 20, 24, 26]
8.656[22, 26, 33, 21, 19, 20, 25, 26]
8.679[23, 23, 25, 22, 19, 22, 25, 24]
8.694[21, 23, 27, 23, 18, 23, 24, 27]
8.716[19, 23, 26, 22, 17, 22, 25, 24]
8.739[20, 23, 25, 22, 19, 23, 23, 22]
8.754[21, 22, 26, 23, 19, 25, 25, 21]
8.776[20, 22, 26, 22, 20, 23, 26, 24]
8.799[23, 25, 26, 24, 21, 21, 29, 22]
8.814[23, 24, 26, 24, 21, 22, 28, 22]
8.836[24, 21, 26, 24, 24, 22, 28, 22]
8.859[25, 21, 26, 23, 23, 20, 27, 24]
8.874[25, 20, 28, 24, 21, 23, 27, 21]
8.897[21, 20, 24, 23, 22, 23, 26, 23]
8.919[23, 21, 23, 22, 22, 25, 27, 23]
8.934[22, 21, 20, 21, 21, 23, 26, 26]
8.958[23, 21, 22, 22, 23, 24, 24, 25]
8.979[27, 24, 19, 21, 23, 26, 23, 24]
8.994[27, 22, 21, 19, 24, 27, 20, 21]
9.024[28, 23, 22, 22, 26, 28, 23, 20]
9.039[27, 22, 23, 23, 25, 32, 24, 22]
9.054[26, 22, 21, 20, 23, 32, 25, 22]
9.078[19, 21, 24, 19, 24, 31, 24, 22]
9.099[21, 21, 24, 23, 22, 30, 24, 23]
9.114[20, 23, 23, 22, 20, 29, 24, 27]
9.136[22, 23, 22, 20, 24, 25, 25, 22]
9.159[22, 25, 22, 24, 26, 26, 24, 23]
9.174[22, 23, 20, 23, 25, 23, 26, 25]
9.197[23, 24, 17, 22, 25, 26, 28, 23]
9.219[23, 23, 20, 21, 24, 24, 25, 19]
9.234[24, 25, 23, 22, 21, 24, 24, 23]
9.256[24, 22, 23, 22, 20, 24, 24, 21]
9.279[25, 28, 23, 22, 20, 26, 24, 18]
9.301[24, 29, 25, 23, 21, 23, 22, 20]
9.316[24, 29, 25, 24, 21, 25, 24, 22]
9.339[21, 28, 22, 23, 22, 24, 24, 22]
9.361[22, 31, 22, 21, 21, 27, 26, 22]
9.384[23, 26, 21, 23, 21, 25, 27, 25]
9.401[21, 24, 23, 20, 21, 26, 27, 24]
9.421[19, 24, 22, 22, 23, 25, 24, 24]
9.437[20, 21, 23, 25, 21, 26, 26, 24]
9.459[18, 20, 24, 25, 22, 21, 22, 24]
9.481[18, 23, 24, 24, 22, 25, 20, 25]
9.496[19, 23, 21, 26, 21, 24, 22, 28]
9.519[19, 24, 21, 23, 20, 25, 24, 28]
9.541[20, 26, 19, 22, 19, 25, 22, 27]
9.556[20, 25, 21, 21, 20, 26, 23, 29]
9.587[19, 23, 24, 20, 20, 24, 22, 27]
9.601[23, 26, 23, 19, 23, 22, 24, 22]
9.616[22, 24, 23, 19, 24, 25, 22, 25]
9.639[21, 22, 24, 18, 23, 25, 29, 24]
9.661[23, 21, 21, 17, 24, 27, 29, 21]
9.677[25, 22, 18, 18, 24, 25, 31, 20]
9.699[23, 21, 21, 17, 24, 28, 30, 22]
9.721[22, 20, 21, 19, 24, 25, 31, 18]
9.737[22, 21, 22, 19, 27, 26, 26, 18]
9.759[20, 22, 21, 22, 26, 23, 25, 18]
9.79[18, 22, 27, 22, 26, 25, 25, 19]
9.796[21, 21, 23, 24, 25, 23, 22, 18]
9.819[21, 21, 27, 22, 24, 21, 23, 17]
9.842[23, 21, 26, 21, 21, 21, 22, 24]
9.857[25, 19, 26, 18, 18, 23, 22, 26]
9.879[23, 17, 22, 18, 18, 23, 19, 28]
9.902[22, 16, 24, 18, 18, 25, 20, 28]
9.917[25, 17, 21, 19, 17, 26, 21, 29]
9.939[25, 20, 23, 21, 18, 25, 22, 25]
9.962[25, 20, 23, 21, 20, 25, 21, 25]
9.977[27, 21, 23, 21, 23, 23, 23, 25]
9.999[25, 22, 21, 19, 23, 22, 23, 23]
10.021[23, 21, 21, 20, 25, 26, 25, 22]
10.037[22, 19, 21, 18, 24, 24, 25, 20]
10.059[20, 21, 22, 18, 25, 25, 26, 19]
10.081[17, 22, 23, 20, 22, 29, 23, 18]
10.096[21, 23, 22, 21, 22, 27, 24, 21]
10.119[21, 25, 21, 20, 21, 23, 20, 24]
10.141[21, 25, 24, 21, 23, 26, 22, 26]
10.157[23, 24, 24, 22, 20, 24, 20, 26]
10.179[24, 23, 24, 20, 21, 20, 23, 24]
10.21[28, 35, 102, 70, 37, 28, 27, 27]
10.216[33, 47, 185, 139, 52, 37, 30, 38]
10.239[40, 66, 345, 184, 65, 44, 37, 40]
10.261[45, 105, 615, 321, 113, 52, 39, 42]
10.285[63, 160, 740, 454, 134, 61, 44, 54]
10.299[76, 200, 847, 528, 141, 68, 51, 59]
10.321[84, 235, 967, 661, 169, 74, 56, 57]
10.344[92, 299, 1081, 740, 188, 81, 57, 62]
10.359[107, 333, 1136, 847, 193, 90, 68, 77]
10.381[103, 338, 1135, 918, 202, 86, 65, 71]
10.404[124, 354, 1198, 940, 229, 107, 73, 83]
10.419[130, 367, 1153, 888, 231, 116, 77, 88]
10.441[143, 371, 1080, 933, 228, 122, 81, 92]
10.464[138, 344, 990, 843, 227, 121, 76, 81]
10.479[151, 375, 1116, 847, 237, 129, 80, 89]
10.502[132, 345, 1089, 858, 229, 123, 78, 81]
10.525[122, 309, 1103, 884, 216, 111, 71, 74]
10.539[101, 246, 1072, 822, 216, 99, 65, 67]
10.561[99, 250, 1051, 879, 214, 98, 65, 69]
10.584[75, 159, 949, 810, 196, 95, 66, 63]
10.599[71, 166, 861, 744, 171, 79, 56, 57]
10.622[77, 214, 873, 736, 188, 87, 59, 60]
10.644[76, 221, 934, 723, 193, 87, 55, 57]
10.659[67, 203, 917, 674, 178, 77, 51, 53]
10.681[66, 205, 919, 645, 182, 77, 46, 50]
10.705[71, 204, 924, 648, 184, 74, 44, 54]
10.719[69, 167, 883, 611, 164, 67, 41, 55]
10.742[69, 159, 842, 674, 153, 68, 41, 54]
10.765[75, 161, 871, 721, 171, 82, 46, 56]
10.779[76, 159, 812, 792, 209, 95, 48, 56]
10.802[77, 189, 885, 824, 229, 105, 50, 49]
10.825[87, 190, 940, 854, 247, 112, 57, 54]
10.839[91, 186, 904, 820, 252, 116, 62, 59]
10.861[87, 182, 876, 783, 251, 111, 61, 60]
10.885[93, 193, 846, 710, 216, 96, 58, 61]
10.899[94, 159, 777, 730, 214, 95, 63, 68]
10.922[89, 183, 736, 748, 223, 98, 67, 67]
10.945[86, 182, 816, 703, 220, 96, 65, 63]
10.959[86, 194, 809, 713, 213, 92, 63, 61]
10.982[81, 189, 861, 816, 235, 99, 63, 58]
11.005[73, 200, 840, 784, 223, 91, 57, 51]
11.019[87, 211, 845, 785, 219, 89, 56, 59]
11.042[88, 217, 802, 804, 218, 90, 54, 63]
11.065[86, 207, 768, 754, 212, 87, 52, 60]
11.087[88, 207, 799, 699, 208, 89, 58, 65]
11.101[87, 190, 808, 675, 207, 86, 55, 62]
11.125[68, 169, 747, 607, 193, 79, 44, 51]
11.139[81, 166, 730, 602, 199, 80, 50, 54]
11.161[90, 173, 788, 636, 204, 90, 58, 64]
11.185[83, 174, 756, 540, 180, 81, 53, 58]
11.207[84, 174, 735, 573, 181, 82, 53, 61]
11.222[83, 146, 802, 583, 166, 74, 54, 59]
11.245[87, 185, 952, 641, 181, 78, 56, 61]
11.268[90, 190, 925, 593, 194, 83, 60, 59]
11.281[93, 181, 895, 566, 191, 83, 60, 60]
11.305[100, 198, 910, 573, 197, 91, 65, 65]
11.327[94, 199, 966, 612, 206, 90, 63, 65]
11.35[76, 170, 834, 540, 192, 89, 56, 59]
11.365[64, 164, 872, 599, 172, 81, 49, 55]
11.388[65, 168, 862, 642, 171, 80, 46, 53]
11.402[60, 168, 871, 636, 177, 72, 45, 47]
11.425[72, 165, 784, 609, 170, 77, 48, 54]
11.449[77, 163, 814, 683, 167, 70, 48, 56]
11.462[75, 156, 794, 641, 172, 65, 43, 54]
11.485[84, 157, 837, 701, 200, 82, 50, 59]
11.507[81, 137, 854, 696, 202, 91, 50, 61]
11.53[84, 141, 912, 689, 208, 97, 59, 63]
11.545[83, 130, 860, 591, 198, 95, 58, 60]
11.568[88, 133, 869, 604, 189, 94, 61, 64]
11.582[87, 134, 898, 603, 188, 83, 60, 67]
11.605[90, 157, 930, 675, 199, 84, 59, 66]
11.635[79, 153, 815, 663, 185, 74, 47, 56]
11.642[83, 186, 849, 733, 197, 81, 51, 58]
11.665[82, 191, 855, 720, 206, 83, 50, 56]
11.687[76, 193, 847, 664, 185, 81, 49, 54]
11.702[72, 178, 826, 557, 145, 67, 46, 52]
11.725[72, 176, 855, 518, 143, 71, 49, 55]
11.748[62, 141, 899, 457, 136, 64, 44, 52]
11.762[71, 145, 918, 456, 143, 73, 51, 59]
11.785[66, 138, 873, 491, 151, 69, 45, 52]
11.807[62, 131, 863, 533, 162, 75, 45, 51]
11.822[61, 128, 855, 545, 168, 73, 44, 50]
11.845[72, 145, 845, 554, 179, 77, 49, 54]
11.868[59, 140, 824, 582, 174, 67, 42, 44]
11.882[58, 132, 803, 508, 163, 70, 49, 46]
11.905[61, 126, 797, 455, 163, 65, 49, 47]
11.927[61, 144, 830, 517, 180, 75, 48, 46]
11.942[64, 152, 852, 521, 191, 75, 52, 54]
11.965[64, 143, 784, 491, 184, 76, 51, 53]
11.987[71, 167, 847, 518, 187, 75, 48, 57]
12.002[82, 187, 867, 540, 187, 82, 50, 62]
12.025[84, 174, 859, 546, 185, 77, 51, 61]
12.047[71, 146, 775, 562, 161, 75, 40, 49]
12.062[74, 150, 813, 576, 161, 71, 40, 51]
12.085[75, 141, 801, 593, 181, 76, 43, 50]
12.108[73, 131, 756, 572, 180, 73, 46, 47]
12.122[77, 143, 786, 552, 184, 74, 50, 53]
12.145[77, 144, 757, 556, 190, 73, 53, 55]
12.168[86, 149, 752, 528, 197, 83, 55, 59]
12.191[86, 154, 700, 626, 191, 81, 53, 59]
12.213[84, 140, 716, 659, 209, 82, 53, 62]
12.228[82, 145, 678, 635, 197, 80, 49, 59]
12.25[85, 156, 694, 615, 196, 80, 47, 58]
12.265[79, 166, 734, 711, 213, 75, 47, 52]
12.288[73, 178, 808, 601, 202, 73, 50, 50]
12.31[66, 177, 774, 699, 203, 75, 50, 46]
12.325[63, 175, 758, 706, 195, 71, 50, 41]
12.347[57, 164, 801, 673, 180, 64, 50, 41]
12.37[49, 148, 818, 662, 187, 72, 50, 41]
12.385[46, 112, 771, 658, 190, 77, 46, 39]
12.408[47, 113, 757, 596, 184, 73, 42, 38]
12.43[44, 91, 813, 638, 220, 82, 40, 40]
12.446[50, 96, 796, 733, 243, 90, 44, 45]
12.468[56, 100, 691, 665, 213, 83, 44, 43]
12.49[59, 117, 647, 668, 208, 80, 47, 45]
12.505[58, 115, 644, 617, 200, 79, 47, 42]
12.528[57, 112, 577, 619, 176, 72, 48, 40]
12.55[55, 107, 642, 516, 169, 76, 45, 36]
12.565[55, 106, 661, 587, 206, 83, 46, 42]
12.588[47, 87, 702, 718, 225, 80, 41, 39]
12.61[48, 99, 711, 734, 224, 78, 39, 39]
12.625[56, 104, 771, 712, 238, 91, 43, 45]
12.648[53, 107, 705, 780, 238, 87, 46, 43]
12.678[47, 101, 692, 722, 206, 79, 42, 39]
12.685[51, 104, 707, 604, 184, 77, 45, 40]
12.708[56, 107, 758, 563, 179, 76, 44, 41]
12.738[47, 110, 773, 577, 163, 65, 39, 36]
12.745[49, 108, 776, 531, 149, 56, 33, 35]
12.768[49, 105, 843, 546, 156, 56, 33, 35]
12.79[58, 109, 814, 546, 157, 60, 31, 34]
12.805[53, 99, 803, 635, 164, 65, 35, 32]
12.828[54, 92, 708, 616, 149, 57, 35, 30]
12.85[54, 104, 681, 676, 160, 59, 36, 29]
12.865[60, 122, 624, 666, 161, 61, 36, 30]
12.888[50, 114, 598, 641, 152, 58, 36, 29]
12.91[47, 111, 602, 556, 146, 55, 33, 32]
12.932[48, 114, 767, 654, 159, 62, 33, 34]
12.948[51, 108, 796, 552, 153, 64, 33, 36]
12.97[45, 113, 836, 547, 150, 62, 34, 36]
12.992[44, 121, 863, 549, 157, 61, 36, 38]
13.008[44, 119, 826, 552, 163, 63, 37, 34]
13.029[44, 130, 816, 413, 156, 59, 41, 35]
13.052[44, 132, 844, 472, 159, 58, 41, 37]
13.068[52, 124, 866, 545, 177, 67, 46, 46]
13.089[62, 126, 844, 603, 185, 75, 48, 49]
13.112[67, 133, 826, 611, 184, 76, 49, 54]
13.128[68, 124, 698, 644, 191, 78, 47, 54]
13.149[66, 116, 729, 609, 178, 73, 46, 52]
13.172[60, 111, 695, 604, 161, 67, 43, 45]
13.188[51, 110, 704, 591, 148, 57, 41, 40]
13.209[53, 120, 732, 627, 152, 59, 45, 43]
13.232[57, 115, 763, 572, 130, 55, 44, 46]
13.248[59, 117, 715, 565, 140, 58, 46, 46]
13.271[57, 108, 738, 601, 143, 54, 41, 44]
13.292[59, 116, 745, 662, 164, 59, 41, 46]
13.309[53, 98, 721, 628, 159, 53, 33, 37]
13.329[49, 113, 724, 645, 170, 55, 35, 34]
13.352[45, 128, 733, 647, 177, 59, 34, 33]
13.374[49, 127, 706, 554, 173, 67, 41, 36]
13.389[46, 109, 661, 432, 150, 64, 38, 32]
13.412[46, 111, 718, 406, 157, 68, 40, 36]
13.429[45, 99, 663, 424, 150, 69, 42, 34]
13.449[45, 72, 674, 417, 135, 65, 40, 35]
13.48[42, 97, 755, 461, 141, 58, 35, 32]
13.489[41, 99, 755, 472, 165, 64, 38, 35]
13.509[44, 113, 739, 488, 156, 63, 44, 35]
13.532[39, 107, 740, 525, 172, 63, 40, 34]
13.548[44, 113, 745, 611, 185, 71, 45, 40]
13.569[42, 89, 629, 590, 181, 69, 46, 39]
13.592[49, 90, 628, 623, 167, 64, 46, 39]
13.608[53, 81, 603, 653, 173, 65, 41, 40]
13.629[56, 82, 610, 657, 169, 69, 46, 39]
13.652[56, 79, 533, 569, 153, 62, 41, 37]
13.668[55, 80, 517, 548, 149, 64, 59, 52]
13.689[51, 89, 598, 501, 143, 62, 61, 52]
13.713[50, 86, 675, 447, 128, 57, 69, 55]
13.729[52, 92, 682, 369, 122, 53, 76, 67]
13.749[50, 111, 699, 512, 143, 58, 77, 66]
13.772[53, 121, 733, 509, 149, 57, 65, 58]
13.788[52, 115, 709, 491, 148, 58, 61, 57]
13.81[44, 115, 733, 549, 154, 56, 52, 51]
13.832[45, 112, 790, 555, 144, 56, 43, 38]
13.849[46, 94, 788, 433, 122, 50, 40, 38]
13.869[50, 90, 788, 517, 120, 51, 39, 37]
13.892[57, 100, 888, 533, 126, 52, 41, 37]
13.907[57, 100, 895, 521, 125, 57, 40, 40]
13.929[51, 104, 857, 546, 134, 57, 31, 36]
13.952[53, 105, 863, 547, 146, 61, 34, 34]
13.967[45, 97, 834, 528, 157, 65, 31, 34]
13.99[34, 84, 677, 532, 153, 65, 29, 32]
14.012[35, 75, 555, 523, 163, 64, 31, 32]
14.027[36, 70, 617, 533, 159, 61, 35, 34]
14.049[44, 88, 640, 652, 165, 67, 35, 33]
14.072[47, 102, 646, 617, 155, 60, 34, 31]
14.095[49, 105, 653, 641, 159, 64, 34, 32]
14.11[47, 102, 664, 615, 150, 62, 34, 30]
14.132[53, 108, 648, 558, 165, 67, 34, 37]
14.154[48, 90, 721, 449, 166, 61, 37, 38]
14.169[51, 73, 767, 513, 174, 66, 37, 39]
14.201[49, 72, 782, 490, 170, 63, 38, 39]
14.215[52, 82, 809, 533, 169, 65, 40, 39]
14.23[48, 77, 818, 564, 153, 59, 40, 32]
14.252[40, 73, 689, 536, 135, 54, 38, 28]
14.275[35, 73, 602, 469, 120, 49, 38, 29]
14.297[37, 77, 611, 445, 115, 47, 40, 27]
14.312[36, 88, 659, 492, 126, 50, 36, 27]
14.335[44, 96, 701, 538, 127, 52, 33, 38]
14.35[50, 96, 720, 616, 148, 58, 32, 42]
14.372[51, 97, 776, 623, 154, 59, 32, 41]
14.395[51, 100, 791, 632, 162, 61, 34, 44]
14.41[50, 87, 699, 583, 163, 57, 32, 43]
14.432[39, 76, 570, 556, 173, 59, 34, 36]
14.455[34, 78, 537, 471, 153, 52, 32, 34]
14.469[32, 80, 531, 489, 146, 52, 33, 36]
14.492[30, 79, 574, 491, 142, 50, 31, 32]
14.515[37, 88, 649, 489, 136, 51, 31, 36]
14.529[37, 84, 643, 428, 118, 46, 29, 34]
14.553[41, 90, 689, 437, 117, 47, 28, 34]
14.575[43, 91, 743, 404, 126, 49, 32, 33]
14.59[48, 90, 679, 482, 159, 60, 33, 33]
14.612[45, 81, 713, 477, 152, 59, 34, 31]
14.635[47, 80, 751, 542, 161, 58, 34, 29]
14.65[45, 70, 728, 557, 179, 63, 39, 30]
14.672[43, 70, 656, 604, 177, 64, 35, 30]
14.695[40, 83, 656, 547, 154, 55, 31, 29]
14.71[45, 87, 552, 613, 174, 60, 33, 33]
14.732[50, 96, 518, 570, 171, 70, 37, 40]
14.755[49, 104, 530, 537, 152, 67, 34, 39]
14.77[51, 105, 504, 479, 154, 67, 44, 39]
14.792[50, 93, 498, 565, 148, 65, 44, 40]
14.815[45, 86, 478, 515, 140, 63, 45, 37]
14.83[43, 92, 516, 585, 138, 55, 43, 29]
14.852[47, 96, 509, 617, 143, 55, 46, 35]
14.875[48, 90, 579, 618, 135, 54, 37, 34]
14.889[48, 94, 586, 549, 144, 61, 38, 34]
14.914[47, 93, 565, 539, 142, 59, 38, 33]
14.935[47, 115, 603, 477, 148, 59, 37, 35]
14.95[43, 106, 591, 429, 143, 55, 33, 31]
14.98[47, 126, 614, 409, 149, 54, 31, 31]
14.995[46, 121, 593, 408, 135, 44, 29, 30]
15.018[44, 122, 637, 412, 137, 48, 24, 31]
15.032[46, 117, 639, 381, 122, 47, 26, 33]
15.055[45, 119, 665, 420, 139, 55, 30, 33]
15.077[41, 102, 616, 456, 133, 53, 31, 32]
15.094[45, 110, 725, 495, 137, 54, 34, 37]
15.115[45, 118, 736, 453, 126, 52, 33, 35]
15.137[41, 96, 726, 521, 176, 63, 33, 35]
15.152[43, 97, 775, 504, 170, 60, 35, 36]
15.175[40, 104, 743, 501, 172, 61, 36, 36]
15.197[39, 110, 729, 538, 171, 61, 36, 32]
15.212[43, 104, 763, 542, 173, 65, 38, 35]
15.235[41, 100, 703, 517, 134, 51, 36, 32]
15.258[40, 104, 669, 536, 150, 48, 32, 30]
15.272[43, 99, 723, 560, 175, 52, 33, 32]
15.295[41, 90, 706, 477, 180, 55, 30, 31]
15.317[41, 93, 656, 458, 172, 50, 31, 31]
15.332[39, 95, 666, 454, 171, 51, 30, 29]
15.355[37, 88, 624, 399, 156, 50, 29, 29]
15.377[38, 86, 591, 389, 133, 47, 30, 29]
15.393[48, 114, 578, 432, 140, 58, 31, 33]
15.423[44, 109, 598, 461, 142, 55, 29, 30]
15.437[47, 115, 631, 458, 134, 57, 33, 33]
15.452[47, 124, 762, 495, 127, 58, 34, 34]
15.475[48, 125, 727, 549, 159, 60, 33, 34]
15.497[38, 95, 685, 548, 148, 46, 32, 29]
15.512[41, 97, 649, 530, 148, 49, 35, 32]
15.535[42, 100, 675, 564, 167, 52, 32, 33]
15.557[44, 94, 540, 545, 168, 50, 31, 34]
15.572[41, 95, 550, 482, 150, 52, 28, 30]
15.595[42, 99, 605, 435, 159, 58, 27, 31]
15.617[43, 110, 650, 444, 161, 59, 29, 35]
15.632[40, 104, 605, 389, 140, 58, 29, 33]
15.663[41, 99, 601, 504, 148, 63, 37, 34]
15.678[46, 103, 656, 481, 127, 64, 40, 37]
15.692[45, 99, 596, 534, 116, 60, 40, 36]
15.715[43, 85, 544, 524, 110, 58, 36, 32]
15.738[44, 81, 545, 537, 118, 59, 41, 32]
15.753[42, 84, 541, 442, 120, 58, 35, 29]
15.775[35, 71, 471, 453, 130, 52, 32, 27]
15.798[38, 79, 555, 418, 135, 52, 32, 30]
15.812[43, 98, 566, 461, 150, 54, 34, 30]
15.835[45, 105, 628, 488, 152, 56, 31, 32]
15.858[46, 112, 658, 494, 156, 53, 31, 35]
15.872[47, 117, 649, 477, 152, 53, 33, 37]
15.895[55, 135, 692, 517, 155, 53, 35, 40]
15.918[57, 131, 718, 518, 172, 60, 39, 42]
15.941[53, 123, 641, 450, 163, 56, 35, 40]
15.955[52, 114, 584, 433, 147, 54, 35, 38]
15.979[52, 119, 626, 460, 159, 63, 38, 41]
16.001[45, 90, 493, 413, 149, 63, 36, 36]
16.015[40, 84, 494, 446, 119, 54, 31, 32]
16.038[44, 96, 617, 469, 134, 61, 34, 36]
16.061[42, 93, 622, 488, 142, 61, 36, 35]
16.075[40, 84, 670, 444, 125, 51, 32, 30]
16.098[37, 90, 669, 428, 129, 52, 32, 36]
16.121[40, 89, 677, 374, 135, 54, 35, 37]
16.135[39, 81, 655, 411, 124, 44, 33, 34]
16.158[42, 87, 658, 373, 119, 51, 38, 40]
16.181[45, 85, 575, 390, 118, 55, 42, 43]
16.195[49, 91, 659, 412, 132, 68, 45, 44]
16.218[48, 100, 620, 452, 150, 72, 46, 47]
16.241[48, 107, 522, 427, 152, 74, 46, 49]
16.263[45, 110, 616, 459, 147, 68, 42, 45]
16.278[46, 107, 641, 481, 154, 71, 38, 44]
16.301[45, 100, 590, 480, 144, 64, 40, 41]
16.315[48, 93, 581, 452, 119, 62, 38, 38]
16.338[45, 84, 567, 468, 114, 61, 38, 33]
16.361[47, 83, 494, 445, 111, 63, 36, 33]
16.375[46, 90, 452, 508, 126, 63, 35, 33]
16.398[38, 94, 487, 480, 124, 55, 29, 29]
16.421[40, 96, 548, 462, 131, 54, 31, 30]
16.435[40, 95, 549, 416, 129, 63, 31, 30]
16.458[46, 99, 527, 412, 137, 77, 33, 29]
16.481[46, 93, 520, 324, 122, 78, 39, 33]
16.495[51, 99, 547, 404, 121, 79, 40, 34]
16.518[47, 90, 465, 397, 113, 77, 38, 34]
16.541[50, 95, 459, 416, 114, 69, 38, 33]
16.555[45, 92, 459, 418, 114, 56, 37, 37]
16.578[52, 106, 567, 532, 122, 55, 32, 35]
16.601[48, 101, 525, 476, 121, 56, 30, 34]
16.615[46, 98, 546, 477, 136, 58, 28, 34]
16.638[43, 91, 593, 465, 136, 59, 31, 36]
16.661[47, 88, 642, 530, 150, 56, 31, 33]
16.675[39, 75, 632, 484, 156, 48, 30, 32]
16.698[37, 80, 660, 550, 165, 50, 30, 31]
16.721[38, 87, 645, 549, 149, 45, 30, 29]
16.735[40, 94, 650, 564, 150, 45, 29, 28]
16.758[37, 94, 670, 528, 138, 50, 32, 30]
16.781[37, 95, 621, 484, 133, 59, 31, 31]
16.795[44, 88, 595, 471, 139, 67, 36, 36]
16.819[42, 85, 622, 469, 140, 67, 38, 36]
16.84[41, 82, 603, 486, 153, 72, 42, 36]
16.855[41, 79, 657, 492, 156, 68, 40, 37]
16.878[45, 80, 645, 469, 148, 63, 41, 38]
16.901[42, 78, 589, 423, 126, 53, 37, 37]
16.923[44, 75, 558, 448, 126, 54, 40, 37]
16.938[45, 84, 579, 446, 119, 53, 37, 41]
16.961[43, 87, 444, 436, 124, 58, 35, 37]
16.983[44, 86, 456, 447, 127, 62, 33, 38]
16.998[41, 91, 478, 438, 134, 58, 32, 36]
17.021[42, 111, 558, 432, 147, 62, 28, 40]
17.043[46, 112, 544, 398, 143, 57, 28, 38]
17.058[48, 111, 511, 405, 143, 55, 33, 40]
17.081[45, 112, 546, 370, 141, 49, 33, 36]
17.103[47, 109, 545, 380, 136, 50, 36, 35]
17.118[46, 103, 519, 397, 119, 48, 37, 32]
17.141[40, 101, 496, 424, 127, 55, 35, 30]
17.164[40, 101, 527, 477, 151, 58, 37, 31]
17.178[38, 93, 468, 519, 164, 61, 40, 37]
17.201[37, 97, 460, 522, 165, 61, 38, 35]
17.223[34, 89, 402, 501, 174, 62, 36, 32]
17.238[36, 89, 395, 500, 192, 65, 42, 35]
17.261[35, 93, 415, 409, 178, 63, 37, 34]
17.283[41, 119, 457, 374, 174, 64, 37, 37]
17.298[40, 113, 472, 354, 169, 64, 36, 37]
17.321[47, 137, 610, 365, 165, 61, 39, 39]
17.343[47, 130, 612, 333, 147, 56, 33, 36]
17.358[50, 132, 617, 340, 138, 61, 34, 36]
17.381[46, 121, 608, 318, 128, 56, 31, 27]
17.403[46, 121, 612, 337, 133, 55, 32, 28]
17.418[42, 105, 539, 325, 132, 54, 35, 26]
17.441[45, 109, 558, 325, 125, 50, 35, 31]
17.463[43, 107, 552, 335, 142, 50, 33, 33]
17.477[41, 103, 585, 472, 163, 51, 34, 35]
17.501[41, 107, 572, 455, 174, 56, 35, 34]
17.523[44, 115, 584, 434, 176, 59, 27, 34]
17.537[46, 127, 641, 447, 174, 58, 28, 32]
17.561[44, 121, 625, 467, 160, 54, 30, 30]
17.583[47, 117, 600, 368, 151, 56, 30, 27]
17.597[48, 114, 622, 425, 142, 59, 31, 31]
17.621[41, 88, 548, 447, 136, 57, 33, 33]
17.644[40, 68, 452, 453, 133, 59, 34, 36]
17.657[42, 68, 471, 444, 127, 61, 37, 38]
17.681[40, 66, 492, 437, 118, 59, 40, 38]
17.704[38, 63, 483, 392, 116, 52, 40, 35]
17.717[42, 70, 529, 413, 116, 52, 41, 34]
17.741[42, 70, 565, 431, 137, 54, 44, 32]
17.763[40, 75, 626, 481, 150, 50, 41, 30]
17.778[41, 75, 614, 473, 142, 51, 41, 32]
17.801[39, 82, 627, 464, 136, 51, 41, 31]
17.824[42, 79, 623, 470, 138, 51, 38, 33]
17.846[37, 78, 601, 442, 122, 47, 31, 30]
17.861[38, 81, 503, 408, 103, 45, 32, 29]
17.884[36, 79, 508, 395, 103, 43, 28, 30]
17.906[39, 74, 465, 426, 110, 46, 27, 30]
17.922[31, 70, 455, 397, 107, 50, 29, 29]
17.943[38, 80, 466, 438, 116, 51, 33, 38]
17.965[35, 69, 526, 402, 118, 50, 31, 40]
17.982[38, 89, 615, 441, 123, 54, 33, 39]
18.004[38, 91, 639, 535, 134, 56, 38, 40]
18.025[37, 90, 623, 520, 149, 60, 39, 42]
18.042[31, 84, 629, 502, 146, 59, 38, 34]
18.063[31, 86, 568, 500, 146, 61, 38, 31]
18.085[32, 66, 424, 489, 160, 67, 37, 33]
18.102[32, 71, 474, 365, 152, 63, 35, 34]
18.123[33, 80, 537, 401, 139, 59, 33, 31]
18.145[37, 79, 580, 383, 138, 64, 37, 36]
18.162[38, 86, 678, 464, 134, 64, 37, 36]
18.183[38, 86, 670, 433, 112, 58, 36, 35]
18.205[37, 77, 647, 458, 114, 58, 36, 32]
18.222[38, 67, 656, 459, 114, 52, 38, 31]
18.243[36, 65, 589, 466, 104, 44, 33, 25]
18.265[36, 57, 528, 393, 110, 45, 34, 24]
18.282[34, 58, 596, 488, 121, 44, 33, 24]
18.303[32, 66, 648, 487, 119, 45, 31, 23]
18.325[33, 75, 655, 461, 116, 48, 30, 26]
18.342[31, 79, 666, 432, 113, 47, 30, 30]
18.363[36, 78, 642, 428, 127, 50, 38, 32]
18.393[35, 78, 616, 374, 125, 48, 38, 31]
18.402[35, 73, 534, 336, 124, 45, 38, 33]
18.423[32, 63, 468, 320, 122, 46, 37, 31]
18.445[34, 58, 464, 345, 121, 50, 36, 27]
18.462[30, 61, 490, 418, 112, 43, 28, 26]
18.483[31, 64, 518, 378, 107, 46, 27, 25]
18.505[34, 62, 509, 388, 114, 47, 29, 26]
18.522[35, 67, 547, 411, 129, 50, 29, 25]
18.543[34, 74, 589, 409, 132, 50, 30, 28]
18.565[34, 78, 577, 333, 127, 49, 30, 28]
18.582[32, 81, 566, 350, 122, 43, 31, 28]
18.603[28, 83, 567, 376, 115, 43, 30, 26]
18.625[34, 82, 589, 413, 116, 52, 32, 27]
18.642[41, 91, 601, 409, 120, 53, 35, 28]
18.663[40, 86, 638, 429, 111, 54, 34, 28]
18.685[42, 81, 607, 439, 107, 55, 34, 28]
18.702[42, 77, 598, 404, 105, 58, 35, 28]
18.723[38, 78, 591, 357, 92, 46, 34, 29]
18.745[33, 58, 534, 467, 108, 46, 30, 28]
18.762[42, 57, 512, 504, 118, 49, 36, 35]
18.783[41, 57, 483, 469, 116, 48, 39, 35]
18.805[46, 68, 622, 509, 125, 47, 39, 37]
18.828[45, 82, 638, 583, 159, 54, 40, 37]
18.843[47, 85, 647, 501, 154, 51, 39, 37]
18.865[42, 88, 622, 466, 158, 49, 34, 31]
18.888[42, 86, 636, 471, 160, 49, 29, 30]
18.904[40, 81, 553, 573, 181, 53, 30, 27]
18.925[45, 66, 469, 537, 158, 49, 31, 29]
18.948[41, 66, 447, 538, 160, 51, 38, 31]
18.97[40, 64, 466, 512, 151, 51, 39, 31]
18.985[40, 63, 447, 540, 155, 52, 39, 33]
19.008[40, 68, 423, 442, 129, 46, 37, 33]
19.023[34, 64, 399, 397, 124, 46, 36, 31]
19.045[33, 60, 389, 411, 116, 47, 30, 30]
19.068[32, 64, 360, 510, 126, 44, 31, 32]
19.084[30, 65, 355, 483, 120, 41, 31, 31]
19.113[35, 61, 390, 476, 122, 42, 31, 35]
19.128[35, 59, 390, 493, 122, 38, 30, 33]
19.143[37, 60, 402, 509, 124, 38, 30, 33]
19.165[34, 48, 368, 416, 109, 38, 27, 29]
19.196[38, 51, 422, 442, 123, 42, 30, 30]
19.203[30, 43, 393, 421, 133, 51, 32, 24]
19.225[36, 57, 429, 503, 156, 64, 34, 30]
19.249[34, 58, 454, 490, 161, 63, 37, 29]
19.263[36, 58, 458, 485, 161, 64, 38, 29]
19.285[32, 56, 421, 455, 152, 62, 37, 29]
19.316[39, 98, 521, 557, 163, 61, 41, 31]
19.323[33, 95, 491, 463, 133, 48, 38, 26]
19.345[35, 99, 469, 456, 146, 53, 36, 28]
19.368[37, 102, 517, 453, 152, 60, 36, 30]
19.383[40, 107, 612, 535, 168, 60, 36, 31]
19.405[39, 81, 541, 423, 155, 58, 30, 33]
19.428[42, 87, 595, 468, 167, 61, 29, 34]
19.443[43, 88, 592, 521, 148, 57, 29, 34]
19.465[44, 90, 587, 532, 145, 54, 30, 35]
19.488[45, 88, 539, 508, 137, 56, 31, 34]
19.503[44, 85, 608, 505, 126, 55, 36, 32]
19.527[40, 84, 544, 463, 114, 53, 36, 33]
19.548[39, 83, 570, 386, 102, 50, 34, 34]
19.563[42, 89, 599, 387, 106, 52, 35, 39]
19.585[39, 95, 636, 346, 102, 51, 36, 37]
19.608[40, 98, 531, 360, 116, 52, 30, 36]
19.623[41, 92, 551, 351, 112, 50, 31, 34]
19.645[40, 87, 546, 357, 113, 49, 32, 33]
19.668[38, 81, 573, 520, 148, 52, 29, 28]
19.683[38, 69, 476, 506, 147, 53, 30, 28]
19.705[36, 62, 504, 555, 147, 52, 31, 29]
19.728[35, 60, 475, 553, 146, 51, 31, 29]
19.751[33, 56, 437, 535, 145, 50, 30, 30]
19.766[32, 50, 430, 351, 101, 43, 28, 24]
19.788[31, 49, 435, 328, 86, 36, 25, 22]
19.81[27, 38, 378, 139, 47, 26, 23, 20]
19.825[27, 38, 374, 108, 44, 29, 23, 20]
19.848[28, 39, 367, 88, 38, 30, 22, 17]
19.871[22, 32, 169, 75, 35, 24, 21, 16]
19.885[21, 33, 114, 58, 32, 24, 20, 19]
19.908[22, 34, 130, 63, 31, 27, 21, 19]
19.93[24, 31, 120, 63, 30, 22, 20, 20]
19.945[23, 43, 244, 82, 30, 23, 21, 22]
19.968[26, 43, 255, 81, 27, 23, 23, 23]
19.99[28, 41, 258, 76, 25, 25, 21, 21]
20.006[27, 40, 244, 62, 24, 23, 18, 21]
20.028[25, 43, 257, 65, 23, 25, 19, 19]
20.05[24, 29, 152, 38, 21, 23, 20, 20]
20.066[21, 28, 133, 37, 23, 23, 20, 19]
20.088[20, 27, 122, 36, 22, 24, 22, 21]
20.11[21, 29, 115, 35, 23, 25, 23, 22]
20.134[20, 25, 79, 27, 21, 24, 24, 24]
20.148[21, 24, 56, 26, 21, 25, 22, 23]
20.17[21, 24, 46, 26, 21, 25, 21, 23]
20.185[22, 23, 38, 25, 23, 25, 22, 22]
20.208[23, 21, 31, 25, 23, 24, 21, 21]
20.23[24, 20, 28, 24, 24, 24, 19, 18]
20.246[23, 20, 24, 23, 23, 23, 20, 21]
20.268[24, 20, 23, 22, 23, 24, 20, 21]
20.291[20, 22, 21, 21, 22, 21, 19, 21]
20.305[22, 23, 23, 19, 22, 23, 22, 23]
20.328[23, 26, 23, 22, 21, 23, 22, 24]
20.351[23, 29, 23, 22, 23, 23, 22, 21]
20.367[28, 28, 22, 21, 21, 22, 24, 21]
20.388[28, 29, 29, 24, 20, 24, 25, 22]
20.41[26, 27, 28, 24, 20, 22, 21, 20]
20.426[26, 27, 29, 23, 21, 23, 24, 21]
20.448[27, 23, 29, 24, 20, 25, 25, 24]
20.47[21, 25, 30, 25, 21, 24, 22, 23]
20.485[21, 22, 23, 23, 23, 25, 21, 22]
20.508[20, 23, 22, 23, 24, 24, 23, 25]
20.531[19, 22, 21, 22, 23, 23, 21, 27]
20.546[19, 24, 22, 23, 23, 23, 24, 24]
20.569[19, 21, 20, 23, 22, 24, 27, 24]
20.591[21, 21, 21, 22, 20, 21, 27, 26]
20.605[23, 23, 23, 21, 19, 21, 26, 23]
20.628[25, 21, 21, 21, 19, 23, 25, 21]
20.65[24, 22, 23, 20, 20, 23, 21, 21]
20.674[24, 24, 22, 21, 21, 22, 27, 23]
20.688[22, 24, 24, 21, 20, 32, 200, 46]
20.711[20, 24, 22, 20, 22, 34, 219, 51]
20.734[19, 23, 23, 21, 23, 34, 224, 52]
20.748[19, 23, 23, 21, 24, 34, 229, 53]
20.772[20, 22, 25, 19, 21, 34, 231, 54]
20.794[19, 21, 25, 20, 21, 26, 124, 35]
20.808[24, 21, 24, 21, 22, 25, 89, 26]
20.83[23, 23, 23, 23, 20, 25, 77, 25]
20.869[23, 22, 22, 23, 20, 24, 64, 26]
20.871[21, 21, 20, 23, 21, 24, 51, 25]
20.89[22, 22, 18, 23, 21, 25, 36, 25]
20.914[21, 23, 20, 22, 20, 28, 29, 27]
20.928[22, 21, 21, 20, 22, 29, 27, 25]
20.951[24, 21, 19, 20, 21, 29, 23, 22]
20.974[25, 21, 21, 23, 21, 29, 24, 22]
20.988[25, 21, 22, 28, 23, 29, 21, 21]
21.019[25, 21, 26, 29, 25, 25, 22, 19]
21.034[25, 22, 28, 30, 26, 22, 22, 20]
21.056[25, 22, 29, 30, 25, 21, 23, 22]
21.07[24, 22, 28, 27, 24, 21, 21, 25]
21.094[23, 22, 29, 21, 24, 19, 20, 26]
21.109[22, 21, 25, 20, 22, 22, 18, 26]
21.131[22, 22, 23, 16, 20, 22, 21, 28]
21.161[20, 22, 22, 19, 20, 23, 18, 27]
21.168[20, 21, 23, 19, 22, 23, 20, 21]
21.192[20, 21, 22, 23, 20, 22, 21, 23]
21.214[19, 19, 25, 24, 20, 21, 22, 22]
21.228[17, 19, 25, 30, 20, 22, 22, 20]
21.251[19, 19, 26, 30, 21, 23, 22, 20]
21.275[20, 21, 25, 31, 23, 24, 21, 21]
21.288[21, 20, 24, 29, 22, 24, 20, 21]
21.313[20, 21, 21, 27, 20, 23, 18, 21]
21.334[22, 20, 21, 23, 20, 25, 20, 19]
21.348[21, 22, 20, 21, 20, 27, 19, 18]
21.371[19, 20, 20, 21, 18, 31, 24, 23]
21.394[21, 20, 21, 21, 21, 35, 25, 21]
21.409[23, 22, 23, 22, 24, 35, 25, 21]
21.432[20, 22, 23, 20, 26, 36, 24, 22]
21.454[24, 21, 23, 23, 26, 33, 27, 23]
21.469[25, 24, 22, 23, 25, 29, 21, 19]
21.492[27, 24, 21, 24, 25, 27, 22, 20]
21.514[26, 21, 21, 26, 22, 30, 22, 23]
21.528[28, 21, 22, 27, 20, 27, 20, 23]
21.552[25, 23, 23, 22, 21, 27, 20, 24]
21.574[24, 22, 25, 23, 21, 27, 22, 23]
21.596[21, 22, 25, 23, 19, 27, 22, 21]
21.611[20, 23, 24, 23, 20, 22, 22, 19]
21.634[17, 23, 23, 25, 21, 22, 23, 18]
21.657[19, 23, 23, 26, 19, 21, 22, 16]
21.672[17, 21, 21, 27, 22, 20, 20, 16]
21.694[19, 22, 20, 26, 22, 20, 20, 17]
21.717[21, 23, 23, 25, 21, 21, 20, 18]
21.732[22, 24, 23, 23, 22, 23, 21, 18]
21.754[22, 21, 23, 23, 24, 24, 22, 19]
21.777[22, 23, 22, 21, 23, 26, 22, 19]
21.792[22, 22, 23, 23, 24, 24, 21, 20]
21.814[22, 23, 20, 23, 25, 25, 21, 19]
21.837[21, 25, 24, 20, 25, 24, 22, 19]
21.852[23, 27, 52, 23, 26, 21, 22, 19]
21.874[24, 27, 54, 22, 25, 24, 22, 21]
21.897[22, 27, 55, 24, 24, 25, 22, 23]
21.911[21, 25, 56, 27, 23, 24, 25, 23]
21.934[21, 22, 57, 29, 24, 24, 25, 23]
21.956[18, 21, 37, 26, 22, 26, 25, 25]
21.971[18, 22, 38, 27, 24, 24, 26, 24]
21.994[21, 23, 37, 25, 24, 22, 26, 20]
22.017[22, 22, 37, 25, 22, 26, 27, 22]
22.031[24, 25, 56, 25, 20, 26, 25, 23]
22.054[24, 23, 56, 41, 20, 24, 25, 19]
22.077[24, 22, 56, 49, 17, 28, 23, 21]
22.092[23, 22, 57, 50, 23, 29, 24, 21]
22.114[22, 25, 57, 48, 24, 26, 19, 19]
22.136[23, 23, 37, 48, 25, 27, 18, 21]
22.151[21, 24, 31, 38, 24, 28, 18, 21]
22.175[20, 23, 29, 29, 25, 23, 23, 21]
22.197[24, 24, 57, 27, 21, 23, 23, 20]
22.211[23, 21, 56, 25, 19, 21, 23, 22]
22.234[22, 21, 57, 25, 18, 21, 24, 20]
22.256[23, 23, 59, 24, 18, 18, 24, 20]
22.271[24, 23, 60, 22, 17, 19, 23, 22]
22.294[22, 25, 32, 22, 18, 18, 25, 23]
22.317[23, 25, 33, 22, 18, 18, 25, 22]
22.331[21, 25, 30, 23, 20, 19, 26, 23]
22.354[22, 22, 32, 21, 21, 19, 27, 24]
22.376[22, 24, 57, 23, 23, 22, 26, 21]
22.391[21, 24, 58, 22, 22, 24, 25, 22]
22.414[22, 24, 59, 24, 25, 23, 24, 23]
22.436[23, 24, 65, 47, 24, 22, 21, 24]
22.451[22, 25, 72, 88, 26, 25, 22, 24]
22.474[21, 24, 58, 94, 24, 23, 21, 23]
22.497[21, 22, 59, 97, 24, 22, 19, 24]
22.511[20, 22, 75, 99, 22, 24, 21, 23]
22.534[21, 22, 72, 91, 22, 25, 22, 21]
22.557[20, 23, 69, 54, 21, 22, 21, 20]
22.579[23, 24, 70, 62, 25, 22, 19, 23]
22.601[25, 23, 70, 62, 26, 20, 20, 21]
22.616[25, 24, 55, 59, 25, 22, 23, 22]
22.639[25, 26, 73, 58, 26, 22, 22, 21]
22.654[27, 24, 70, 56, 25, 23, 23, 21]
22.676[26, 22, 65, 35, 22, 24, 26, 20]
22.699[24, 22, 68, 33, 22, 25, 26, 21]
22.714[24, 20, 68, 32, 23, 22, 24, 19]
22.736[22, 19, 45, 30, 21, 23, 24, 22]
22.759[22, 21, 42, 31, 22, 21, 24, 23]
22.774[21, 23, 50, 26, 24, 20, 22, 23]
22.797[20, 23, 62, 23, 21, 21, 22, 23]
22.819[21, 23, 59, 24, 21, 24, 22, 23]
22.834[20, 23, 60, 30, 24, 23, 23, 21]
22.857[21, 23, 60, 30, 23, 24, 24, 21]
22.879[21, 21, 55, 30, 21, 24, 22, 23]
22.894[22, 22, 33, 28, 22, 21, 22, 24]
22.917[25, 23, 30, 30, 22, 18, 26, 24]
22.938[25, 23, 27, 23, 20, 18, 24, 25]
22.955[25, 23, 32, 25, 19, 18, 23, 26]
22.977[24, 22, 34, 25, 20, 18, 23, 23]
22.999[24, 24, 33, 26, 21, 17, 25, 23]
23.015[25, 25, 61, 23, 21, 22, 21, 23]
23.036[24, 25, 61, 25, 24, 24, 23, 26]
23.058[22, 24, 61, 22, 24, 22, 23, 23]
23.075[23, 25, 60, 21, 22, 22, 22, 21]
23.104[23, 24, 61, 23, 22, 27, 20, 22]
23.118[19, 23, 35, 23, 22, 23, 22, 23]
23.135[19, 25, 36, 22, 18, 21, 20, 18]
23.156[21, 23, 31, 23, 17, 25, 24, 21]
23.178[19, 22, 28, 24, 19, 27, 27, 22]
23.195[22, 22, 28, 24, 18, 21, 25, 22]
23.216[22, 21, 24, 25, 22, 20, 25, 21]
23.238[23, 20, 25, 29, 22, 23, 29, 22]
23.255[24, 20, 25, 28, 22, 22, 24, 21]
23.276[24, 20, 25, 27, 23, 20, 22, 24]
23.298[22, 18, 28, 27, 23, 20, 25, 23]
23.315[24, 19, 28, 27, 20, 22, 25, 24]
23.336[22, 17, 24, 23, 21, 21, 21, 22]
23.358[20, 18, 27, 29, 21, 19, 23, 22]
23.375[23, 18, 35, 31, 21, 21, 22, 20]
23.396[20, 21, 32, 29, 23, 21, 21, 19]
23.418[19, 22, 33, 28, 22, 21, 22, 20]
23.435[20, 24, 34, 27, 21, 21, 23, 19]
23.456[24, 25, 31, 19, 23, 22, 23, 19]
23.478[22, 27, 31, 19, 22, 21, 24, 23]
23.495[24, 27, 35, 24, 21, 20, 23, 23]
23.516[24, 27, 36, 25, 22, 23, 22, 21]
23.539[24, 26, 37, 24, 23, 22, 21, 25]
23.561[20, 26, 37, 27, 24, 22, 21, 23]
23.576[21, 24, 39, 27, 23, 21, 24, 20]
23.599[20, 23, 38, 24, 23, 24, 23, 20]
23.621[20, 23, 36, 23, 23, 21, 23, 20]
23.637[21, 22, 55, 26, 22, 21, 23, 19]
23.658[21, 21, 60, 30, 20, 20, 25, 19]
23.681[19, 23, 59, 31, 24, 21, 21, 19]
23.696[19, 22, 61, 30, 24, 18, 23, 19]
23.721[20, 22, 61, 32, 24, 19, 22, 23]
23.743[19, 24, 46, 29, 23, 22, 25, 24]
23.756[20, 27, 71, 28, 23, 22, 21, 25]
23.778[22, 24, 72, 27, 20, 22, 20, 24]
23.801[21, 25, 72, 27, 21, 23, 20, 24]
23.816[21, 27, 74, 27, 24, 23, 19, 21]
23.838[24, 24, 73, 30, 25, 21, 16, 18]
23.861[23, 21, 44, 26, 24, 21, 20, 18]
23.876[21, 24, 37, 24, 23, 20, 24, 18]
23.898[22, 24, 30, 26, 22, 19, 24, 18]
23.921[24, 21, 57, 25, 19, 20, 25, 19]
23.936[21, 24, 60, 24, 20, 22, 25, 22]
23.958[24, 25, 66, 31, 21, 20, 24, 23]
23.981[25, 21, 67, 32, 21, 19, 21, 24]
23.997[24, 20, 67, 31, 21, 21, 22, 24]
24.018[24, 20, 44, 30, 21, 20, 21, 24]
24.049[25, 19, 40, 30, 20, 17, 23, 20]
24.056[21, 19, 29, 23, 22, 20, 22, 19]
24.078[22, 23, 60, 24, 22, 21, 22, 20]
24.101[23, 24, 62, 31, 22, 19, 20, 22]
24.116[22, 23, 67, 31, 23, 21, 20, 22]
24.146[21, 22, 68, 31, 23, 21, 17, 22]
24.161[21, 21, 67, 32, 22, 22, 17, 22]
24.176[21, 20, 42, 30, 23, 23, 19, 22]
24.198[19, 21, 66, 25, 23, 23, 20, 20]
24.221[19, 22, 63, 29, 22, 24, 20, 19]
24.236[20, 21, 65, 29, 22, 24, 21, 19]
24.258[20, 21, 66, 27, 21, 21, 21, 20]
24.281[20, 22, 66, 28, 20, 21, 20, 19]
24.296[23, 23, 59, 26, 21, 21, 21, 22]
24.318[22, 23, 66, 23, 21, 19, 20, 23]
24.341[25, 25, 64, 22, 23, 18, 21, 24]
24.356[24, 27, 64, 23, 23, 21, 22, 23]
24.379[24, 25, 65, 29, 24, 20, 23, 23]
24.401[21, 25, 49, 29, 21, 20, 22, 21]
24.416[22, 24, 38, 29, 22, 24, 24, 20]
24.438[22, 25, 66, 31, 20, 24, 23, 19]
24.462[25, 25, 67, 30, 21, 23, 22, 21]
24.483[24, 27, 67, 24, 20, 23, 21, 19]
24.499[25, 25, 67, 23, 20, 22, 22, 19]
24.521[24, 28, 64, 23, 20, 22, 22, 18]
24.544[23, 26, 39, 24, 22, 23, 21, 19]
24.559[20, 25, 39, 25, 23, 21, 23, 16]
24.581[21, 23, 58, 26, 23, 22, 22, 18]
24.604[21, 23, 60, 25, 23, 24, 20, 19]
24.619[21, 19, 63, 26, 23, 20, 20, 19]
24.641[18, 18, 62, 23, 20, 20, 23, 22]
24.664[19, 20, 62, 22, 19, 22, 22, 22]
24.679[20, 21, 46, 21, 19, 23, 23, 22]
24.701[21, 21, 42, 22, 20, 24, 23, 21]
24.724[23, 21, 38, 20, 21, 24, 23, 24]
24.739[23, 21, 35, 20, 22, 26, 21, 21]
24.761[23, 21, 42, 21, 22, 27, 22, 23]
24.784[23, 22, 60, 23, 22, 26, 21, 25]
24.799[22, 22, 63, 22, 23, 25, 24, 25]
24.821[20, 24, 64, 23, 22, 25, 22, 22]
24.852[20, 24, 64, 24, 22, 22, 24, 22]
24.859[20, 23, 57, 21, 24, 20, 25, 20]
24.881[19, 21, 35, 21, 22, 23, 25, 16]
24.904[19, 24, 66, 22, 21, 22, 23, 18]
24.919[19, 21, 67, 22, 20, 22, 23, 21]
24.941[19, 22, 68, 22, 25, 23, 21, 22]
24.964[21, 21, 70, 22, 23, 24, 20, 22]
24.98[19, 23, 71, 21, 24, 20, 23, 22]
25.001[19, 21, 43, 20, 24, 23, 24, 23]
25.024[21, 21, 69, 22, 25, 23, 23, 20]
25.039[21, 22, 68, 18, 21, 24, 25, 21]
25.061[18, 23, 72, 19, 24, 24, 23, 21]
25.084[19, 24, 73, 20, 22, 22, 21, 20]
25.099[19, 23, 72, 19, 22, 20, 20, 19]
25.121[18, 25, 46, 17, 22, 18, 21, 19]
25.144[21, 23, 42, 20, 21, 21, 20, 17]
25.159[22, 24, 30, 21, 18, 20, 20, 24]
25.181[23, 23, 25, 19, 19, 21, 19, 24]
25.204[23, 24, 24, 22, 17, 21, 19, 24]
25.219[23, 25, 23, 23, 19, 23, 18, 25]
25.241[21, 24, 34, 21, 20, 20, 20, 26]
25.264[24, 23, 37, 22, 22, 21, 20, 23]
25.279[24, 22, 63, 22, 22, 23, 22, 23]
25.301[24, 22, 64, 21, 22, 25, 23, 23]
25.325[25, 20, 67, 19, 24, 22, 22, 23]
25.347[26, 24, 65, 22, 23, 26, 21, 22]
25.361[23, 23, 64, 20, 20, 27, 20, 20]
25.384[21, 25, 41, 20, 22, 24, 21, 19]
25.407[22, 25, 40, 22, 22, 25, 20, 20]
25.421[20, 28, 59, 33, 20, 24, 23, 20]
25.444[19, 27, 59, 31, 22, 22, 24, 20]
25.467[19, 27, 61, 31, 21, 21, 23, 19]
25.481[20, 28, 61, 32, 20, 21, 22, 19]
25.504[21, 27, 62, 33, 23, 21, 20, 17]
25.527[22, 24, 40, 24, 23, 21, 19, 18]
25.542[24, 22, 36, 25, 22, 20, 17, 19]
25.564[26, 25, 32, 26, 25, 21, 15, 19]
25.587[25, 23, 29, 25, 25, 23, 15, 20]
25.601[25, 23, 27, 22, 23, 23, 18, 20]
25.624[24, 23, 25, 20, 22, 24, 17, 18]
25.647[21, 25, 24, 20, 21, 25, 17, 19]
25.661[19, 23, 27, 19, 20, 24, 19, 18]
25.684[20, 20, 27, 20, 22, 23, 21, 19]
25.707[21, 24, 26, 20, 21, 23, 18, 18]
25.721[21, 23, 26, 20, 20, 23, 19, 19]
25.744[23, 21, 26, 20, 22, 21, 18, 20]
25.767[24, 25, 23, 17, 23, 27, 18, 19]
25.781[24, 26, 24, 20, 22, 26, 17, 19]
25.804[23, 24, 22, 22, 23, 28, 18, 19]
25.827[23, 25, 23, 23, 23, 28, 17, 19]
25.841[23, 25, 24, 24, 22, 28, 20, 20]
25.864[21, 21, 24, 27, 21, 26, 20, 23]
25.887[21, 20, 23, 24, 20, 28, 21, 22]
25.901[19, 19, 23, 22, 20, 25, 23, 23]
25.924[19, 24, 22, 22, 20, 24, 23, 24]
25.947[17, 23, 23, 21, 19, 23, 22, 22]
25.961[17, 25, 23, 22, 20, 21, 20, 21]
25.985[18, 26, 21, 22, 21, 21, 22, 23]
26.007[16, 27, 22, 23, 21, 21, 21, 22]
26.021[15, 21, 22, 22, 20, 21, 20, 20]
26.044[18, 22, 21, 22, 21, 21, 22, 24]
26.067[21, 22, 20, 19, 20, 22, 22, 23]
26.081[20, 23, 22, 19, 21, 18, 18, 23]
26.104[21, 21, 21, 20, 20, 20, 24, 23]
26.127[24, 26, 23, 19, 20, 20, 26, 26]
26.141[23, 26, 22, 19, 20, 20, 25, 22]
26.164[20, 26, 23, 20, 22, 20, 26, 23]
26.187[22, 25, 22, 20, 21, 20, 26, 22]
26.209[23, 27, 24, 18, 21, 19, 21, 22]
26.224[21, 22, 24, 18, 22, 19, 21, 19]
26.247[21, 23, 26, 21, 22, 20, 20, 21]
26.261[23, 24, 24, 19, 19, 19, 21, 20]
26.284[25, 23, 23, 20, 19, 20, 20, 20]
26.307[26, 23, 20, 24, 19, 20, 23, 22]
26.321[25, 25, 20, 24, 19, 21, 21, 23]
26.344[27, 24, 18, 22, 19, 21, 21, 22]
26.367[28, 23, 19, 24, 21, 20, 19, 23]
26.39[25, 23, 20, 23, 21, 19, 23, 23]
26.404[25, 22, 22, 20, 22, 20, 22, 21]
26.427[24, 20, 23, 22, 22, 18, 21, 21]
26.45[22, 24, 23, 21, 23, 20, 22, 19]
26.464[21, 25, 24, 20, 22, 20, 22, 18]
26.487[22, 26, 25, 20, 21, 21, 19, 18]
26.509[22, 25, 23, 20, 22, 20, 20, 18]
26.524[22, 25, 24, 17, 23, 22, 20, 19]
26.547[21, 22, 24, 17, 23, 20, 20, 21]
26.57[21, 20, 23, 17, 22, 22, 21, 21]
26.584[19, 19, 22, 18, 24, 22, 22, 20]
26.608[20, 20, 23, 19, 22, 24, 19, 20]
26.63[20, 20, 20, 19, 23, 23, 18, 22]
26.644[22, 20, 22, 19, 24, 24, 18, 21]
26.667[21, 19, 24, 19, 24, 23, 20, 22]
26.69[22, 20, 23, 19, 22, 24, 19, 22]
26.705[22, 19, 21, 19, 22, 21, 21, 22]
26.727[22, 18, 24, 19, 20, 22, 22, 22]
26.75[21, 21, 22, 18, 20, 21, 21, 21]
26.765[25, 21, 20, 20, 18, 21, 18, 21]
26.787[24, 20, 21, 17, 19, 22, 20, 25]
26.81[23, 19, 20, 19, 19, 21, 19, 27]
26.825[23, 22, 21, 19, 19, 22, 19, 27]
26.847[22, 19, 23, 19, 19, 21, 20, 28]
26.87[18, 22, 23, 18, 19, 21, 23, 28]
26.884[18, 23, 23, 20, 19, 20, 23, 26]
26.915[19, 24, 23, 17, 18, 21, 24, 26]
26.93[19, 23, 22, 19, 17, 21, 25, 25]
26.944[22, 24, 21, 19, 19, 24, 25, 24]
26.967[20, 20, 19, 20, 19, 26, 23, 23]
26.997[20, 19, 20, 21, 21, 26, 22, 24]
27.004[22, 19, 20, 22, 20, 25, 22, 22]
27.028[21, 21, 20, 22, 21, 25, 22, 22]
27.049[20, 20, 20, 22, 20, 21, 21, 22]
27.064[22, 21, 20, 23, 22, 21, 22, 24]
27.087[21, 22, 19, 23, 23, 23, 21, 22]
27.11[20, 22, 19, 22, 25, 23, 21, 20]
27.124[22, 19, 18, 22, 25, 24, 18, 20]
27.147[20, 20, 20, 23, 24, 26, 22, 20]
27.17[21, 19, 19, 22, 23, 26, 21, 19]
27.184[22, 20, 22, 22, 22, 23, 22, 22]
27.215[21, 21, 22, 20, 20, 25, 24, 25]
27.229[19, 23, 22, 21, 20, 25, 25, 24]
27.252[22, 23, 22, 22, 21, 24, 20, 23]
27.268[20, 26, 22, 21, 21, 23, 26, 23]
27.29[19, 25, 21, 20, 19, 23, 26, 21]
27.312[19, 24, 22, 20, 20, 22, 23, 18]
27.328[20, 22, 21, 20, 19, 22, 25, 20]
27.35[19, 21, 20, 19, 20, 22, 26, 21]
27.372[20, 16, 20, 19, 21, 21, 20, 21]
27.387[23, 17, 21, 19, 21, 22, 20, 23]
27.41[22, 18, 22, 21, 20, 21, 22, 23]
27.432[21, 18, 23, 19, 19, 22, 22, 22]
27.447[22, 18, 25, 21, 19, 21, 27, 22]
27.47[21, 20, 25, 20, 18, 22, 27, 21]
27.492[18, 20, 22, 20, 19, 21, 28, 20]
27.507[19, 19, 21, 19, 19, 24, 27, 22]
27.529[23, 20, 21, 18, 21, 21, 26, 22]
27.552[24, 21, 19, 19, 21, 21, 21, 23]
27.567[25, 20, 20, 19, 21, 22, 23, 24]
27.589[29, 19, 20, 19, 20, 24, 21, 24]
27.612[28, 18, 23, 20, 19, 23, 22, 22]
27.627[25, 20, 22, 21, 18, 24, 22, 22]
27.65[25, 20, 22, 22, 15, 25, 23, 20]
27.672[25, 19, 22, 20, 17, 27, 21, 24]
27.687[23, 22, 25, 19, 16, 25, 21, 23]
27.71[23, 21, 22, 20, 15, 24, 23, 24]
27.732[25, 19, 23, 22, 16, 23, 23, 24]
27.748[24, 21, 24, 20, 17, 23, 21, 24]
27.77[24, 21, 24, 20, 18, 21, 25, 22]
27.793[24, 19, 22, 20, 19, 20, 26, 22]
27.807[23, 20, 22, 21, 21, 21, 24, 21]
27.83[23, 22, 21, 19, 23, 23, 24, 20]
27.853[24, 20, 22, 20, 23, 22, 27, 21]
27.867[24, 24, 20, 21, 24, 24, 23, 18]
27.89[20, 25, 20, 22, 23, 26, 24, 22]
27.913[22, 26, 19, 22, 22, 26, 24, 22]
27.934[21, 23, 21, 22, 21, 26, 24, 23]
27.95[19, 24, 19, 22, 22, 25, 22, 22]
27.972[19, 21, 20, 22, 19, 24, 22, 25]
27.995[21, 19, 21, 22, 24, 21, 20, 21]
28.011[20, 22, 23, 21, 23, 21, 21, 21]
28.032[20, 24, 23, 21, 22, 19, 25, 23]
28.054[20, 25, 24, 21, 21, 20, 24, 23]
28.071[22, 25, 23, 20, 22, 19, 26, 20]
28.092[20, 24, 22, 20, 19, 21, 26, 21]
28.122[21, 22, 22, 17, 20, 21, 25, 22]
28.13[21, 21, 22, 18, 20, 21, 21, 20]
28.152[22, 19, 19, 18, 24, 20, 23, 21]
28.175[21, 21, 21, 19, 25, 21, 20, 20]
28.191[20, 23, 22, 20, 25, 21, 20, 21]
28.212[21, 24, 20, 21, 25, 20, 21, 22]
28.234[21, 23, 19, 22, 24, 19, 20, 20]
28.25[20, 26, 22, 22, 21, 20, 20, 20]
28.272[22, 23, 19, 21, 19, 22, 21, 20]
28.294[23, 23, 20, 20, 16, 21, 21, 21]
28.311[22, 24, 19, 21, 18, 22, 20, 18]
28.332[22, 24, 21, 19, 20, 23, 20, 20]
28.356[22, 21, 20, 19, 20, 25, 18, 20]
28.371[20, 22, 22, 22, 22, 21, 20, 20]
28.392[20, 21, 21, 23, 22, 22, 20, 21]
28.414[22, 21, 22, 22, 20, 23, 20, 22]
28.431[21, 21, 21, 22, 21, 23, 19, 23]
28.452[23, 21, 20, 21, 20, 23, 20, 22]
28.474[23, 20, 21, 20, 20, 24, 21, 21]
28.491[24, 20, 21, 19, 21, 23, 21, 20]
28.512[22, 18, 21, 18, 21, 22, 21, 20]
28.536[24, 21, 21, 18, 21, 22, 25, 20]
28.549[24, 21, 24, 20, 23, 19, 24, 24]
28.572[25, 23, 22, 19, 22, 18, 25, 25]
28.594[24, 25, 24, 21, 23, 19, 24, 24]
28.609[24, 23, 25, 21, 23, 21, 24, 24]
28.632[23, 23, 26, 23, 22, 22, 22, 23]
28.654[27, 22, 23, 22, 21, 22, 23, 19]
28.669[27, 20, 25, 26, 21, 24, 21, 21]
28.692[28, 21, 23, 25, 21, 24, 21, 19]
28.714[27, 22, 23, 25, 21, 22, 21, 20]
28.737[28, 22, 24, 24, 21, 20, 21, 22]
28.753[22, 23, 22, 24, 22, 21, 21, 22]
28.774[21, 23, 21, 20, 21, 19, 19, 21]
28.789[19, 22, 22, 20, 22, 18, 23, 22]
28.812[21, 23, 21, 23, 20, 18, 22, 23]
28.834[20, 22, 22, 22, 22, 19, 21, 22]
28.849[20, 21, 22, 23, 21, 21, 22, 23]
28.872[22, 19, 20, 22, 21, 21, 24, 23]
28.894[22, 20, 21, 22, 18, 22, 20, 22]
28.909[20, 18, 20, 21, 19, 25, 21, 21]
28.939[19, 18, 19, 20, 20, 24, 21, 21]
28.954[19, 19, 21, 21, 20, 24, 19, 20]
28.97[18, 20, 21, 19, 21, 25, 17, 21]
28.992[18, 17, 20, 19, 23, 24, 18, 21]
29.014[19, 22, 22, 19, 24, 20, 16, 20]
29.029[19, 22, 21, 21, 22, 23, 17, 20]
29.052[20, 22, 20, 21, 23, 21, 18, 17]
29.074[24, 24, 21, 22, 22, 21, 19, 16]
29.089[24, 25, 21, 23, 21, 25, 19, 17]
29.112[23, 22, 20, 23, 22, 25, 20, 16]
29.134[24, 23, 21, 21, 21, 25, 23, 17]
29.151[24, 23, 23, 19, 23, 24, 23, 17]
29.172[21, 23, 23, 20, 23, 23, 23, 18]
29.194[22, 23, 23, 18, 24, 19, 23, 18]
29.217[22, 22, 23, 18, 21, 21, 24, 21]
29.232[23, 22, 22, 19, 24, 17, 21, 21]
29.255[22, 23, 20, 24, 20, 21, 21, 21]
29.285[21, 22, 19, 24, 20, 21, 21, 20]
29.292[21, 22, 20, 24, 18, 20, 23, 19]
29.314[21, 23, 19, 23, 20, 19, 21, 17]
29.337[21, 23, 19, 23, 17, 21, 20, 18]
29.352[21, 21, 19, 16, 18, 21, 22, 18]
29.375[22, 20, 20, 17, 21, 21, 24, 20]
29.405[21, 22, 20, 15, 21, 23, 21, 21]
29.412[22, 20, 21, 17, 21, 23, 22, 22]
29.434[22, 17, 22, 19, 21, 22, 24, 21]
29.457[22, 19, 23, 20, 22, 20, 21, 22]
29.472[23, 23, 24, 21, 21, 20, 21, 22]
29.494[23, 21, 24, 21, 22, 20, 21, 22]
29.517[22, 21, 25, 21, 23, 19, 23, 22]
29.532[21, 23, 24, 22, 22, 18, 24, 22]
29.554[22, 24, 23, 22, 21, 22, 25, 22]
29.577[20, 22, 22, 20, 21, 21, 24, 24]
29.592[19, 24, 22, 21, 20, 20, 25, 23]
29.614[19, 26, 20, 24, 20, 21, 23, 22]
29.637[19, 27, 19, 22, 21, 24, 23, 21]
29.659[18, 26, 20, 21, 20, 20, 23, 21]
29.674[19, 26, 22, 21, 20, 23, 23, 17]
29.697[21, 27, 21, 20, 20, 23, 23, 17]
29.712[23, 25, 24, 16, 20, 22, 22, 20]
29.742[23, 23, 25, 17, 20, 19, 19, 20]
29.757[22, 22, 24, 17, 21, 20, 18, 22]
29.772[20, 23, 21, 17, 20, 19, 19, 21]
29.794[21, 18, 22, 18, 20, 22, 20, 22]
29.817[19, 20, 18, 18, 17, 23, 21, 21]
29.832[20, 21, 21, 17, 18, 24, 23, 20]
29.854[21, 20, 20, 18, 17, 24, 23, 18]
29.885[21, 19, 22, 17, 17, 23, 23, 20]
29.892[19, 21, 22, 19, 18, 21, 22, 21]
29.914[22, 20, 24, 19, 17, 21, 22, 21]
29.937[20, 22, 22, 21, 18, 23, 20, 22]
29.952[19, 24, 23, 21, 19, 21, 21, 22]
29.974[19, 24, 22, 21, 18, 23, 21, 21]
29.997[20, 24, 23, 22, 19, 23, 21, 20]
30.012[19, 24, 21, 24, 20, 23, 20, 21]
30.034[19, 21, 21, 22, 18, 22, 21, 24]
30.057[20, 21, 21, 23, 18, 22, 21, 23]
30.072[22, 22, 22, 23, 19, 21, 21, 23]
30.094[22, 21, 20, 20, 19, 18, 21, 25]
30.117[20, 24, 24, 21, 18, 19, 19, 24]
30.132[20, 23, 23, 21, 18, 24, 21, 20]
30.154[18, 22, 23, 21, 19, 24, 20, 22]
30.177[17, 20, 22, 22, 19, 24, 20, 22]
30.199[15, 22, 23, 23, 20, 26, 19, 19]
30.214[20, 20, 21, 23, 20, 25, 23, 20]
30.237[22, 20, 20, 23, 23, 22, 22, 19]
30.259[23, 21, 21, 23, 23, 22, 20, 18]
30.274[22, 21, 22, 21, 22, 22, 20, 21]
30.297[22, 21, 22, 21, 21, 21, 21, 22]
30.319[21, 21, 23, 18, 21, 22, 17, 21]
30.334[22, 24, 32, 17, 18, 20, 15, 25]
30.357[22, 34, 240, 106, 27, 22, 18, 25]
30.38[25, 82, 459, 215, 111, 43, 20, 25]
30.395[40, 124, 546, 346, 151, 51, 24, 31]
30.417[49, 149, 732, 419, 169, 61, 30, 34]
30.44[62, 169, 778, 449, 188, 73, 39, 41]
30.455[68, 184, 868, 519, 199, 79, 45, 47]
30.477[69, 174, 952, 600, 205, 85, 47, 48]
30.499[75, 184, 1035, 599, 208, 95, 52, 54]
30.514[82, 216, 1083, 649, 217, 102, 60, 62]
30.537[86, 216, 1136, 756, 240, 121, 70, 70]
30.559[95, 279, 1239, 817, 236, 124, 70, 70]
30.574[108, 293, 1162, 811, 217, 124, 76, 75]
30.597[106, 289, 1110, 833, 214, 120, 75, 74]
30.619[120, 304, 1031, 812, 222, 129, 81, 85]
30.634[120, 314, 1032, 807, 212, 124, 81, 87]
30.657[129, 283, 885, 797, 267, 145, 91, 98]
30.679[135, 316, 947, 912, 344, 159, 93, 99]
30.694[134, 308, 965, 937, 336, 156, 92, 99]
30.717[129, 307, 1070, 999, 345, 153, 86, 92]
30.739[124, 301, 1077, 972, 350, 145, 75, 83]
30.754[127, 374, 1156, 987, 355, 132, 63, 77]
30.777[126, 384, 1174, 867, 298, 121, 65, 81]
30.799[130, 415, 1174, 826, 301, 122, 70, 80]
30.814[137, 402, 1056, 758, 289, 119, 75, 84]
30.837[137, 409, 1031, 730, 278, 116, 75, 83]
30.86[123, 351, 961, 741, 251, 104, 72, 76]
30.874[110, 317, 923, 731, 232, 87, 63, 65]
30.897[104, 299, 996, 694, 235, 86, 57, 62]
30.92[92, 328, 1051, 771, 261, 88, 48, 49]
30.935[94, 324, 1046, 811, 272, 90, 48, 51]
30.957[95, 296, 998, 735, 251, 90, 53, 54]
30.98[89, 282, 1050, 762, 251, 89, 50, 53]
30.994[98, 270, 1026, 785, 279, 103, 58, 62]
31.017[86, 203, 943, 662, 242, 91, 55, 59]
31.04[96, 232, 1022, 712, 271, 105, 60, 62]
31.054[94, 267, 1061, 749, 284, 108, 57, 58]
31.077[95, 269, 937, 706, 277, 109, 57, 57]
31.1[86, 259, 844, 752, 254, 105, 56, 50]
31.122[86, 271, 918, 747, 260, 101, 54, 45]
31.137[73, 252, 849, 676, 207, 86, 48, 40]
31.16[67, 216, 844, 649, 195, 81, 45, 39]
31.183[68, 213, 882, 645, 204, 86, 47, 41]
31.205[64, 207, 865, 567, 191, 77, 39, 38]
31.221[68, 190, 842, 625, 197, 77, 40, 42]
31.243[61, 163, 789, 591, 194, 73, 37, 41]
31.257[63, 160, 713, 557, 181, 67, 39, 43]
31.28[63, 146, 684, 528, 171, 60, 40, 43]
31.303[64, 140, 753, 577, 166, 58, 39, 45]
31.317[55, 141, 777, 625, 177, 62, 39, 40]
31.341[57, 144, 814, 627, 179, 65, 41, 40]
31.363[55, 132, 903, 654, 207, 79, 41, 38]
31.377[51, 135, 939, 722, 220, 81, 40, 37]
31.401[47, 134, 935, 682, 222, 81, 39, 36]
31.423[46, 126, 865, 665, 210, 80, 37, 37]
31.437[46, 116, 802, 728, 217, 82, 38, 42]
31.461[46, 127, 804, 690, 195, 72, 34, 41]
31.483[46, 136, 766, 634, 186, 68, 32, 38]
31.497[58, 165, 771, 689, 188, 66, 36, 41]
31.521[58, 173, 848, 652, 188, 67, 39, 44]
31.543[56, 172, 949, 659, 188, 60, 38, 40]
31.557[54, 157, 874, 659, 180, 60, 39, 40]
31.58[56, 154, 900, 689, 181, 64, 39, 42]
31.603[46, 130, 850, 672, 184, 64, 37, 38]
31.617[50, 132, 776, 698, 171, 58, 36, 36]
31.64[50, 126, 673, 597, 148, 59, 38, 36]
31.662[56, 150, 684, 600, 157, 58, 36, 38]
31.677[55, 148, 663, 580, 154, 56, 38, 39]
31.7[57, 139, 658, 530, 145, 56, 39, 40]
31.723[55, 127, 643, 434, 148, 58, 38, 39]
31.737[56, 139, 635, 438, 154, 62, 36, 39]
31.76[55, 128, 611, 459, 151, 63, 41, 40]
31.783[58, 137, 582, 476, 153, 65, 42, 39]
31.797[66, 160, 565, 487, 151, 66, 41, 42]
31.821[70, 170, 546, 508, 147, 66, 41, 43]
31.843[69, 162, 561, 500, 145, 62, 41, 41]
31.857[69, 157, 604, 513, 165, 66, 44, 43]
31.88[69, 160, 670, 508, 161, 63, 41, 44]
31.904[58, 144, 675, 604, 173, 62, 39, 38]
31.917[52, 132, 727, 601, 171, 58, 40, 37]
31.941[64, 155, 701, 626, 182, 68, 43, 42]
31.963[63, 160, 657, 677, 169, 60, 35, 39]
31.978[65, 150, 614, 710, 162, 59, 36, 42]
32.001[65, 148, 639, 623, 152, 61, 39, 42]
32.023[70, 159, 620, 632, 157, 74, 58, 60]
32.045[59, 140, 671, 642, 148, 65, 66, 61]
32.06[57, 128, 704, 564, 142, 65, 68, 59]
32.09[52, 131, 726, 487, 141, 65, 69, 59]
32.105[58, 151, 770, 523, 150, 65, 69, 60]
32.121[48, 142, 870, 589, 154, 52, 53, 43]
32.143[53, 144, 886, 637, 161, 56, 42, 38]
32.165[51, 148, 876, 694, 156, 57, 38, 37]
32.18[48, 137, 859, 720, 158, 57, 34, 33]
32.203[46, 117, 800, 750, 159, 56, 34, 32]
32.225[47, 116, 680, 720, 153, 52, 32, 30]
32.24[47, 114, 602, 689, 142, 50, 32, 31]
32.263[48, 106, 581, 619, 141, 49, 31, 30]
32.285[50, 130, 563, 684, 182, 67, 40, 40]
32.301[46, 123, 530, 606, 165, 65, 41, 41]
32.323[48, 133, 551, 594, 163, 68, 41, 42]
32.345[43, 128, 563, 607, 191, 75, 42, 42]
32.36[40, 128, 597, 623, 193, 75, 43, 42]
32.383[38, 114, 557, 523, 153, 60, 34, 32]
32.405[37, 122, 563, 564, 158, 59, 30, 30]
32.421[37, 122, 524, 565, 151, 57, 31, 33]
32.443[41, 130, 492, 579, 145, 53, 26, 32]
32.466[46, 130, 464, 578, 158, 55, 29, 36]
32.481[48, 121, 482, 596, 161, 58, 32, 37]
32.503[49, 112, 484, 583, 158, 56, 33, 39]
32.525[49, 99, 480, 653, 179, 66, 39, 37]
32.54[54, 103, 549, 593, 157, 61, 40, 40]
32.563[54, 111, 556, 568, 133, 59, 40, 39]
32.586[54, 117, 626, 523, 127, 56, 38, 39]
32.6[62, 122, 679, 585, 124, 57, 40, 42]
32.631[65, 122, 746, 474, 113, 52, 38, 45]
32.645[59, 116, 712, 458, 104, 51, 38, 41]
32.66[58, 114, 723, 481, 111, 53, 38, 41]
32.683[55, 108, 673, 497, 114, 54, 40, 40]
32.705[48, 114, 756, 414, 124, 54, 38, 36]
32.72[43, 108, 764, 400, 105, 51, 35, 31]
32.75[49, 114, 797, 459, 116, 50, 35, 35]
32.765[46, 111, 770, 427, 118, 50, 31, 34]
32.78[46, 109, 790, 468, 124, 49, 32, 36]
32.803[43, 94, 695, 524, 119, 51, 31, 35]
32.826[43, 106, 728, 595, 132, 56, 34, 37]
32.84[40, 116, 722, 582, 131, 59, 37, 35]
32.863[40, 115, 719, 601, 140, 58, 40, 35]
32.885[42, 111, 754, 602, 144, 57, 37, 33]
32.9[45, 116, 747, 649, 158, 60, 41, 35]
32.924[52, 125, 772, 600, 153, 57, 41, 38]
32.945[47, 104, 763, 609, 147, 56, 38, 36]
32.968[48, 114, 800, 606, 152, 57, 36, 39]
32.984[46, 125, 774, 612, 146, 54, 38, 38]
33.005[47, 129, 860, 591, 136, 51, 36, 39]
33.027[39, 112, 725, 586, 143, 51, 33, 34]
33.044[43, 111, 746, 580, 153, 54, 32, 40]
33.065[43, 111, 742, 602, 142, 50, 32, 37]
33.087[46, 107, 703, 579, 140, 53, 31, 39]
33.104[42, 99, 599, 483, 145, 60, 31, 36]
33.125[43, 104, 732, 506, 155, 63, 31, 37]
33.147[39, 99, 727, 474, 151, 58, 32, 31]
33.164[38, 85, 676, 436, 153, 63, 35, 36]
33.185[33, 79, 688, 482, 184, 71, 36, 35]
33.207[37, 116, 805, 507, 181, 68, 39, 37]
33.224[37, 122, 751, 482, 168, 65, 38, 34]
33.245[45, 132, 721, 502, 166, 65, 39, 37]
33.267[46, 136, 770, 496, 159, 62, 38, 37]
33.284[49, 146, 860, 459, 125, 55, 38, 40]
33.305[50, 124, 728, 437, 111, 52, 35, 41]
33.328[49, 119, 689, 508, 145, 59, 35, 42]
33.344[42, 108, 671, 489, 144, 58, 35, 40]
33.365[42, 115, 741, 548, 161, 66, 36, 37]
33.387[37, 100, 615, 535, 157, 63, 36, 31]
33.404[34, 97, 613, 573, 167, 64, 33, 31]
33.425[40, 91, 620, 541, 137, 58, 32, 29]
33.456[40, 94, 676, 600, 138, 58, 33, 25]
33.464[38, 79, 590, 548, 123, 48, 31, 24]
33.485[46, 86, 600, 547, 128, 54, 33, 29]
33.507[45, 85, 634, 549, 115, 51, 35, 28]
33.524[40, 77, 615, 515, 120, 51, 39, 32]
33.546[43, 74, 560, 427, 116, 51, 40, 37]
33.568[43, 77, 528, 421, 118, 52, 41, 37]
33.59[38, 88, 559, 412, 119, 49, 40, 37]
33.605[42, 90, 517, 367, 134, 54, 42, 40]
33.629[40, 97, 521, 376, 137, 53, 41, 38]
33.644[50, 118, 572, 379, 140, 52, 40, 37]
33.665[51, 120, 545, 400, 145, 51, 38, 39]
33.687[48, 110, 489, 420, 142, 47, 37, 37]
33.704[47, 110, 516, 447, 137, 45, 39, 34]
33.725[46, 108, 508, 484, 133, 49, 37, 33]
33.748[36, 92, 460, 497, 130, 50, 36, 31]
33.764[35, 92, 509, 472, 117, 49, 39, 29]
33.785[36, 93, 556, 488, 110, 49, 39, 29]
33.808[32, 88, 568, 570, 129, 54, 36, 28]
33.825[34, 87, 542, 520, 120, 46, 36, 28]
33.845[33, 83, 556, 495, 117, 46, 35, 28]
33.867[33, 85, 648, 533, 116, 45, 30, 25]
33.884[35, 87, 680, 536, 130, 48, 33, 26]
33.907[42, 85, 657, 441, 139, 54, 31, 26]
33.927[41, 88, 709, 516, 150, 60, 34, 29]
33.95[42, 82, 720, 599, 155, 58, 33, 28]
33.965[40, 80, 656, 580, 159, 60, 34, 29]
33.987[40, 76, 613, 592, 156, 60, 32, 29]
34.01[34, 76, 596, 625, 152, 53, 31, 28]
34.025[34, 81, 548, 595, 144, 48, 27, 25]
34.048[38, 91, 559, 555, 158, 53, 31, 26]
34.07[43, 88, 518, 566, 160, 54, 30, 28]
34.085[44, 89, 522, 591, 174, 56, 30, 27]
34.108[44, 96, 608, 578, 174, 59, 34, 28]
34.13[45, 88, 604, 584, 180, 62, 37, 30]
34.145[41, 81, 612, 552, 163, 59, 34, 30]
34.167[41, 77, 628, 545, 163, 57, 34, 30]
34.19[46, 98, 589, 466, 159, 59, 40, 31]
34.205[45, 89, 535, 424, 139, 56, 36, 32]
34.227[48, 94, 584, 367, 128, 54, 35, 35]
34.25[46, 94, 524, 376, 128, 53, 36, 34]
34.265[42, 99, 579, 392, 134, 58, 41, 34]
34.288[39, 76, 580, 452, 155, 63, 40, 36]
34.31[41, 81, 637, 441, 152, 63, 40, 37]
34.325[39, 79, 608, 579, 177, 67, 40, 36]
34.348[39, 81, 683, 576, 178, 67, 40, 37]
34.37[37, 79, 641, 552, 170, 67, 34, 35]
34.385[39, 75, 648, 514, 133, 59, 28, 36]
34.407[35, 76, 602, 499, 129, 60, 28, 35]
34.43[35, 86, 607, 402, 118, 58, 30, 32]
34.445[36, 91, 541, 428, 160, 69, 33, 31]
34.468[38, 91, 533, 458, 164, 71, 33, 35]
34.49[33, 95, 548, 504, 176, 72, 35, 31]
34.513[38, 98, 564, 544, 178, 71, 34, 32]
34.527[36, 90, 600, 531, 173, 73, 33, 31]
34.55[38, 88, 585, 544, 153, 65, 32, 35]
34.565[38, 89, 583, 584, 157, 60, 34, 32]
34.588[42, 92, 568, 544, 154, 59, 37, 33]
34.61[38, 94, 511, 550, 166, 60, 39, 32]
34.625[41, 91, 456, 546, 162, 56, 39, 35]
34.648[41, 99, 457, 519, 145, 52, 38, 32]
34.67[42, 100, 391, 445, 135, 52, 37, 31]
34.685[39, 100, 410, 436, 121, 47, 37, 31]
34.708[40, 101, 408, 388, 106, 45, 35, 31]
34.73[37, 108, 484, 338, 106, 45, 34, 28]
34.745[32, 104, 539, 335, 103, 46, 35, 32]
34.768[34, 110, 593, 344, 104, 44, 34, 32]
34.79[34, 111, 574, 421, 114, 45, 32, 31]
34.805[33, 112, 692, 442, 114, 42, 31, 30]
34.828[38, 125, 650, 469, 128, 49, 34, 33]
34.85[38, 115, 661, 541, 153, 57, 33, 29]
34.865[39, 116, 645, 559, 158, 57, 33, 32]
34.888[38, 116, 669, 509, 158, 59, 31, 32]
34.91[41, 106, 577, 498, 152, 58, 29, 35]
34.941[37, 89, 620, 486, 138, 49, 24, 33]
34.948[41, 93, 630, 402, 123, 42, 24, 35]
34.97[40, 83, 637, 365, 125, 41, 28, 36]
34.993[41, 80, 599, 347, 116, 38, 28, 36]
35.016[43, 97, 627, 330, 129, 44, 33, 33]
35.03[42, 91, 592, 337, 123, 47, 32, 30]
35.053[38, 93, 551, 379, 124, 47, 33, 31]
35.068[37, 90, 542, 382, 127, 58, 32, 28]
35.09[42, 86, 590, 419, 136, 63, 34, 28]
35.113[40, 80, 546, 450, 135, 63, 29, 28]
35.128[43, 83, 552, 427, 135, 64, 31, 29]
35.15[44, 89, 525, 389, 141, 67, 37, 29]
35.173[42, 92, 544, 435, 142, 59, 36, 28]
35.188[37, 92, 567, 485, 154, 59, 37, 29]
35.21[40, 93, 596, 504, 164, 60, 40, 33]
35.233[37, 91, 636, 533, 205, 67, 44, 34]
35.248[39, 88, 695, 542, 203, 64, 41, 34]
35.27[42, 85, 664, 506, 194, 61, 40, 35]
35.292[42, 85, 622, 454, 183, 57, 37, 36]
35.308[37, 86, 637, 405, 169, 54, 32, 32]
35.33[38, 92, 592, 442, 119, 46, 35, 31]
35.353[35, 87, 521, 431, 110, 49, 32, 28]
35.368[36, 93, 555, 448, 116, 49, 37, 27]
35.39[34, 94, 537, 441, 110, 50, 38, 25]
35.413[41, 95, 551, 451, 116, 52, 40, 30]
35.428[39, 87, 530, 413, 145, 53, 33, 32]
35.45[43, 107, 585, 405, 138, 54, 34, 33]
35.473[39, 103, 577, 369, 145, 58, 31, 33]
35.488[41, 102, 581, 339, 142, 56, 32, 33]
35.51[36, 100, 562, 348, 140, 55, 38, 29]
35.532[37, 103, 536, 303, 117, 55, 39, 29]
35.548[33, 83, 456, 407, 121, 53, 41, 29]
35.57[37, 92, 475, 476, 127, 54, 42, 39]
35.601[37, 96, 547, 468, 130, 57, 41, 39]
35.607[37, 94, 499, 463, 124, 56, 40, 41]
35.63[38, 109, 646, 498, 133, 54, 39, 39]
35.652[37, 108, 663, 426, 149, 54, 35, 39]
35.667[36, 100, 622, 345, 138, 47, 34, 31]
35.69[53, 98, 610, 392, 149, 50, 35, 31]
35.713[55, 91, 600, 418, 163, 53, 26, 28]
35.728[54, 79, 557, 443, 158, 56, 27, 29]
35.75[54, 84, 552, 476, 148, 56, 27, 28]
35.773[54, 86, 566, 522, 162, 65, 28, 28]
35.787[36, 81, 520, 500, 155, 61, 26, 27]
35.81[30, 82, 542, 496, 155, 61, 31, 26]
35.833[33, 77, 475, 456, 148, 56, 33, 26]
35.856[34, 73, 533, 400, 141, 54, 35, 24]
35.878[32, 70, 551, 350, 124, 42, 33, 22]
35.893[39, 87, 557, 394, 131, 47, 33, 25]
35.916[42, 91, 604, 468, 146, 46, 30, 26]
35.93[41, 92, 575, 482, 159, 54, 28, 31]
35.953[43, 88, 501, 486, 161, 55, 25, 32]
35.976[42, 93, 547, 518, 161, 58, 31, 33]
35.99[39, 82, 536, 484, 155, 56, 31, 33]
36.013[36, 75, 488, 386, 144, 57, 30, 35]
36.036[35, 63, 480, 383, 127, 49, 31, 31]
36.05[33, 61, 495, 421, 129, 48, 36, 31]
36.073[33, 56, 419, 398, 125, 49, 32, 34]
36.096[31, 55, 568, 489, 139, 48, 32, 34]
36.119[32, 54, 551, 484, 126, 45, 34, 35]
36.133[29, 57, 554, 468, 129, 46, 30, 33]
36.156[33, 67, 566, 465, 132, 54, 26, 34]
36.17[33, 73, 564, 472, 137, 56, 25, 30]
36.193[34, 69, 457, 416, 120, 57, 27, 30]
36.216[38, 87, 514, 450, 113, 58, 27, 32]
36.23[38, 86, 589, 447, 112, 58, 27, 33]
36.253[34, 82, 565, 427, 121, 53, 29, 29]
36.276[37, 81, 603, 425, 114, 49, 31, 27]
36.29[33, 83, 648, 390, 110, 47, 29, 31]
36.313[29, 67, 606, 379, 118, 48, 27, 27]
36.336[33, 69, 552, 372, 124, 48, 28, 27]
36.35[42, 72, 604, 376, 120, 49, 29, 31]
36.373[41, 68, 587, 344, 118, 46, 28, 30]
36.396[42, 67, 512, 341, 124, 47, 29, 26]
36.41[43, 66, 576, 330, 118, 47, 31, 27]
36.433[40, 63, 565, 320, 104, 48, 31, 28]
36.456[34, 70, 561, 390, 105, 52, 31, 29]
36.47[35, 71, 540, 400, 107, 53, 31, 31]
36.493[37, 67, 598, 457, 102, 51, 32, 32]
36.516[35, 69, 518, 428, 96, 49, 30, 31]
36.53[38, 72, 531, 437, 103, 51, 30, 30]
36.553[37, 70, 511, 423, 105, 47, 33, 30]
36.576[35, 73, 525, 431, 107, 47, 31, 29]
36.59[37, 77, 433, 427, 111, 46, 31, 29]
36.613[36, 74, 423, 459, 115, 43, 31, 30]
36.636[40, 98, 496, 474, 128, 48, 35, 33]
36.65[38, 93, 493, 435, 124, 47, 32, 28]
36.681[41, 96, 507, 427, 120, 46, 38, 30]
36.696[36, 95, 535, 365, 119, 45, 40, 29]
36.71[36, 95, 528, 339, 120, 46, 40, 26]
36.733[33, 81, 604, 386, 116, 45, 40, 27]
36.756[31, 80, 599, 371, 103, 42, 37, 29]
36.778[27, 74, 552, 403, 121, 48, 32, 28]
36.794[31, 78, 562, 420, 122, 49, 30, 29]
36.816[32, 78, 602, 414, 129, 52, 33, 30]
36.838[30, 87, 635, 343, 114, 47, 67, 32]
36.853[37, 98, 668, 353, 118, 50, 128, 39]
36.876[37, 107, 725, 364, 111, 47, 136, 40]
36.899[39, 109, 719, 377, 106, 47, 139, 40]
36.913[43, 115, 749, 364, 96, 49, 139, 40]
36.936[45, 108, 613, 397, 113, 51, 125, 37]
36.958[41, 98, 569, 395, 119, 50, 65, 31]
36.974[41, 89, 640, 392, 128, 52, 48, 32]
36.996[39, 86, 650, 376, 128, 52, 40, 33]
37.018[36, 79, 625, 405, 124, 47, 38, 35]
37.033[34, 73, 647, 458, 134, 48, 39, 34]
37.056[33, 82, 673, 477, 132, 46, 36, 31]
37.086[33, 78, 606, 461, 124, 41, 32, 26]
37.093[30, 81, 596, 452, 132, 47, 34, 25]
37.116[32, 78, 567, 484, 141, 48, 33, 28]
37.139[30, 76, 515, 414, 117, 41, 30, 27]
37.153[31, 71, 525, 467, 133, 50, 33, 31]
37.176[31, 73, 478, 457, 139, 54, 34, 32]
37.199[33, 65, 466, 484, 137, 50, 32, 33]
37.213[32, 66, 485, 443, 129, 49, 32, 29]
37.236[34, 70, 529, 459, 132, 51, 33, 29]
37.258[36, 83, 504, 402, 126, 49, 28, 29]
37.273[37, 86, 473, 450, 117, 44, 23, 28]
37.296[40, 85, 482, 446, 116, 47, 26, 29]
37.319[42, 92, 461, 450, 122, 50, 27, 29]
37.341[41, 87, 412, 415, 117, 47, 27, 29]
37.356[37, 71, 419, 414, 105, 43, 29, 28]
37.379[36, 71, 441, 340, 99, 44, 30, 27]
37.393[35, 85, 504, 296, 91, 39, 29, 26]
37.417[33, 77, 503, 266, 81, 37, 28, 24]
37.439[34, 80, 520, 291, 89, 39, 29, 29]
37.453[34, 79, 513, 246, 88, 42, 26, 27]
37.476[34, 79, 550, 245, 88, 41, 25, 28]
37.499[30, 64, 493, 283, 92, 41, 25, 28]
37.513[30, 65, 501, 307, 93, 41, 28, 28]
37.537[27, 59, 495, 295, 106, 48, 26, 23]
37.559[31, 57, 505, 397, 143, 57, 31, 30]
37.573[31, 61, 498, 429, 139, 59, 31, 29]
37.596[35, 74, 519, 434, 144, 61, 34, 29]
37.619[35, 77, 509, 421, 154, 62, 32, 31]
37.633[35, 86, 558, 467, 143, 58, 34, 31]
37.657[36, 94, 586, 392, 112, 48, 31, 27]
37.679[35, 88, 541, 380, 114, 45, 29, 28]
37.693[31, 89, 645, 410, 108, 41, 24, 27]
37.716[33, 97, 651, 462, 129, 46, 25, 27]
37.738[35, 93, 669, 526, 140, 44, 22, 29]
37.761[33, 85, 650, 520, 134, 44, 22, 26]
37.776[35, 86, 679, 571, 135, 46, 25, 27]
37.799[36, 77, 602, 547, 146, 48, 27, 27]
37.821[34, 72, 669, 500, 117, 40, 25, 26]
37.836[35, 78, 643, 383, 103, 41, 30, 27]
37.858[33, 83, 592, 489, 142, 52, 31, 28]
37.881[31, 82, 584, 432, 144, 57, 30, 28]
37.897[30, 79, 539, 455, 136, 57, 29, 29]
37.919[31, 75, 428, 462, 139, 58, 31, 29]
37.941[30, 70, 435, 473, 150, 59, 27, 26]
37.957[32, 73, 514, 427, 146, 56, 27, 27]
37.978[33, 74, 493, 412, 142, 50, 27, 27]
38.001[35, 82, 527, 461, 154, 50, 30, 26]
38.017[34, 79, 553, 495, 156, 51, 29, 25]
38.038[37, 77, 507, 499, 143, 47, 30, 26]
38.06[36, 70, 466, 466, 116, 40, 32, 26]
38.077[35, 74, 466, 473, 122, 47, 33, 26]
38.098[35, 72, 467, 418, 112, 46, 31, 26]
38.121[36, 74, 521, 387, 115, 47, 33, 26]
38.137[40, 76, 556, 370, 119, 49, 33, 27]
38.158[41, 75, 542, 387, 130, 52, 34, 30]
38.181[40, 68, 546, 379, 125, 47, 34, 30]
38.197[40, 61, 530, 417, 128, 48, 34, 32]
38.218[38, 69, 523, 406, 116, 47, 33, 31]
38.241[32, 69, 484, 399, 116, 50, 31, 30]
38.257[31, 69, 486, 377, 121, 49, 33, 29]
38.278[30, 77, 534, 373, 126, 48, 32, 27]
38.3[27, 76, 498, 350, 131, 45, 32, 25]
38.317[30, 74, 460, 355, 134, 45, 31, 26]
38.338[30, 69, 493, 374, 138, 46, 33, 25]
38.361[27, 68, 486, 353, 118, 43, 29, 21]
38.384[30, 59, 426, 349, 113, 44, 30, 21]
38.398[33, 56, 405, 263, 89, 45, 28, 23]
38.42[32, 39, 341, 235, 85, 47, 30, 23]
38.437[30, 37, 245, 273, 80, 43, 28, 22]
38.466[30, 39, 212, 269, 76, 42, 26, 24]
38.481[30, 42, 241, 275, 78, 39, 25, 26]
38.497[27, 43, 271, 279, 77, 34, 25, 24]
38.518[25, 44, 277, 280, 73, 29, 22, 22]
38.541[23, 44, 274, 199, 59, 27, 22, 24]
38.557[24, 45, 349, 188, 55, 28, 22, 25]
38.578[22, 41, 320, 173, 47, 27, 23, 23]
38.601[25, 45, 326, 156, 44, 30, 22, 24]
38.623[26, 46, 316, 146, 42, 29, 21, 24]
38.638[28, 50, 334, 125, 42, 31, 27, 26]
38.661[28, 52, 305, 159, 75, 38, 27, 29]
38.683[29, 55, 296, 260, 110, 47, 27, 30]
38.698[28, 51, 254, 284, 118, 47, 26, 28]
38.721[27, 49, 253, 289, 121, 47, 27, 31]
38.743[25, 44, 251, 289, 120, 46, 22, 31]
38.758[25, 45, 232, 303, 103, 39, 23, 26]
38.781[24, 40, 233, 217, 63, 27, 22, 24]
38.803[23, 41, 231, 179, 46, 26, 23, 25]
38.818[27, 42, 278, 249, 80, 31, 23, 23]
38.841[28, 41, 262, 269, 89, 34, 23, 22]
38.863[28, 29, 217, 227, 87, 33, 21, 23]
38.878[26, 30, 209, 221, 87, 32, 22, 23]
38.901[26, 27, 207, 224, 86, 32, 21, 24]
38.923[21, 24, 130, 131, 52, 28, 19, 22]
38.938[20, 26, 99, 76, 33, 25, 20, 27]
38.961[18, 26, 77, 75, 34, 24, 19, 25]
38.983[20, 23, 57, 71, 32, 25, 17, 26]
38.998[19, 25, 47, 56, 29, 23, 18, 24]
39.021[20, 25, 37, 44, 25, 26, 21, 25]
39.044[20, 22, 34, 34, 22, 25, 22, 19]
39.058[21, 22, 31, 28, 23, 25, 23, 18]
39.088[21, 22, 26, 28, 20, 26, 24, 18]
39.103[23, 21, 26, 26, 23, 24, 23, 19]
39.118[22, 22, 25, 23, 20, 23, 24, 18]
39.141[21, 22, 21, 19, 21, 28, 23, 19]
39.163[20, 22, 20, 17, 21, 29, 22, 19]
39.179[21, 22, 22, 18, 21, 30, 24, 20]
39.201[19, 21, 23, 19, 19, 32, 23, 21]
39.223[19, 21, 23, 19, 19, 28, 21, 20]
39.238[21, 22, 25, 19, 20, 24, 21, 21]
39.261[20, 21, 24, 20, 20, 26, 23, 22]
39.285[20, 21, 20, 21, 20, 23, 23, 21]
39.298[22, 21, 21, 21, 21, 23, 25, 20]
39.32[22, 20, 20, 21, 22, 25, 25, 23]
39.343[21, 20, 20, 19, 22, 25, 24, 23]
39.358[22, 22, 21, 19, 22, 23, 22, 25]
39.381[23, 23, 23, 19, 21, 22, 20, 25]
39.403[22, 23, 22, 19, 20, 22, 18, 26]
39.418[24, 23, 22, 20, 21, 20, 17, 27]
39.441[23, 22, 21, 22, 20, 20, 19, 25]
39.463[23, 21, 22, 20, 21, 20, 21, 22]
39.478[22, 21, 21, 20, 20, 22, 21, 22]
39.502[22, 21, 21, 21, 20, 22, 22, 24]
39.523[23, 22, 22, 22, 18, 23, 22, 21]
39.538[24, 21, 22, 21, 17, 24, 22, 21]
39.561[26, 20, 21, 24, 19, 22, 20, 22]
39.583[25, 21, 20, 24, 21, 22, 22, 22]
39.598[26, 20, 24, 22, 22, 20, 22, 18]
39.621[24, 20, 24, 21, 21, 20, 23, 17]
39.643[26, 23, 25, 24, 22, 19, 23, 18]
39.666[24, 23, 26, 23, 21, 22, 23, 16]
39.681[25, 21, 27, 23, 21, 21, 21, 15]
39.703[25, 22, 23, 23, 20, 20, 22, 16]
39.726[23, 22, 24, 21, 21, 21, 22, 19]
39.741[21, 21, 23, 20, 22, 23, 21, 22]
39.763[22, 20, 21, 18, 22, 21, 27, 23]
39.786[21, 21, 21, 20, 21, 20, 27, 23]
39.801[20, 22, 22, 20, 22, 21, 26, 23]
39.823[21, 22, 22, 20, 22, 23, 25, 23]
39.846[21, 21, 19, 19, 20, 22, 27, 18]
39.861[19, 22, 22, 19, 22, 22, 20, 20]
39.884[19, 21, 22, 19, 22, 24, 22, 21]
39.906[19, 21, 25, 22, 23, 25, 21, 21]
39.929[18, 22, 23, 21, 22, 24, 24, 20]
39.943[20, 23, 25, 22, 24, 23, 22, 22]
39.966[20, 24, 25, 22, 22, 23, 23, 20]
39.981[20, 26, 26, 22, 22, 21, 23, 20]
40.003[19, 25, 23, 22, 21, 20, 22, 21]
40.026[20, 24, 24, 23, 23, 20, 20, 21]
40.041[19, 25, 22, 21, 22, 20, 19, 20]
40.063[19, 23, 22, 23, 22, 19, 18, 21]
40.086[21, 22, 19, 23, 23, 22, 20, 20]
40.102[20, 23, 21, 22, 22, 22, 20, 20]
40.123[22, 25, 22, 23, 22, 20, 20, 20]
40.146[24, 24, 23, 24, 22, 23, 23, 20]
40.161[24, 23, 22, 21, 22, 24, 23, 19]
40.183[22, 25, 23, 21, 22, 23, 22, 21]
40.206[22, 24, 20, 21, 21, 23, 24, 19]
40.221[22, 24, 19, 22, 22, 24, 24, 19]
40.243[21, 24, 20, 21, 21, 22, 22, 20]
40.266[18, 28, 21, 24, 19, 24, 21, 21]
40.281[23, 25, 20, 23, 21, 23, 20, 20]
40.312[24, 24, 22, 23, 22, 21, 19, 20]
40.326[22, 23, 21, 21, 21, 23, 19, 20]
40.341[22, 23, 22, 22, 20, 24, 17, 19]
40.363[22, 19, 22, 19, 22, 21, 18, 18]
40.386[20, 20, 23, 22, 22, 22, 20, 19]
40.401[19, 20, 23, 21, 21, 23, 22, 20]
40.424[21, 19, 25, 22, 22, 22, 22, 21]
40.446[21, 20, 26, 23, 23, 27, 24, 21]
40.461[21, 21, 25, 23, 22, 26, 25, 21]
40.483[19, 21, 26, 19, 22, 27, 23, 19]
40.514[21, 22, 24, 20, 22, 26, 21, 19]
40.521[20, 24, 25, 19, 22, 28, 20, 17]
40.543[20, 21, 23, 17, 24, 23, 21, 19]
40.566[20, 22, 23, 16, 23, 25, 19, 19]
40.589[22, 23, 22, 17, 22, 25, 17, 18]
40.603[19, 22, 24, 16, 21, 24, 18, 19]
40.626[21, 20, 22, 17, 20, 21, 22, 19]
40.649[21, 24, 22, 18, 22, 21, 22, 23]
40.663[23, 24, 25, 21, 22, 17, 24, 26]
40.686[21, 23, 24, 20, 21, 18, 29, 27]
40.709[22, 23, 24, 22, 22, 22, 31, 29]
40.724[23, 23, 24, 24, 23, 20, 29, 30]
40.746[22, 18, 24, 25, 20, 21, 30, 27]
40.769[20, 17, 22, 24, 19, 23, 30, 22]
40.783[22, 17, 23, 25, 21, 22, 27, 22]
40.806[23, 16, 23, 23, 21, 23, 25, 22]
40.829[19, 16, 22, 21, 21, 24, 25, 19]
40.843[20, 19, 23, 19, 22, 23, 24, 23]
40.866[22, 20, 23, 19, 24, 22, 22, 23]
40.889[20, 21, 22, 18, 23, 22, 20, 24]
40.904[19, 21, 21, 22, 23, 17, 20, 23]
40.926[21, 21, 22, 22, 23, 21, 19, 24]
40.949[19, 20, 20, 21, 23, 21, 20, 20]
40.963[21, 19, 21, 20, 21, 21, 20, 20]
40.986[24, 19, 29, 23, 21, 21, 23, 20]
41.009[23, 21, 34, 20, 20, 20, 23, 20]
41.023[24, 21, 35, 21, 20, 23, 21, 20]
41.046[25, 20, 35, 24, 20, 23, 20, 21]
41.069[23, 23, 36, 23, 20, 24, 21, 23]
41.083[22, 22, 31, 22, 20, 25, 17, 25]
41.106[22, 21, 26, 23, 22, 26, 17, 27]
41.129[23, 23, 26, 26, 20, 22, 19, 28]
41.143[23, 24, 30, 25, 20, 24, 18, 27]
41.174[23, 22, 30, 26, 22, 25, 18, 25]
41.189[24, 24, 38, 25, 21, 24, 19, 25]
41.203[23, 25, 39, 26, 19, 26, 21, 24]
41.226[21, 21, 38, 22, 20, 24, 20, 23]
41.249[24, 23, 35, 24, 21, 22, 22, 23]
41.263[23, 23, 33, 22, 19, 20, 21, 23]
41.286[23, 22, 31, 22, 20, 23, 22, 25]
41.309[23, 26, 44, 24, 20, 20, 20, 21]
41.323[23, 26, 45, 23, 20, 21, 21, 22]
41.346[20, 26, 46, 22, 20, 22, 20, 23]
41.369[21, 26, 46, 25, 22, 23, 19, 24]
41.383[18, 27, 44, 26, 21, 20, 21, 19]
41.406[20, 24, 35, 23, 21, 20, 21, 20]
41.429[21, 24, 34, 25, 21, 20, 20, 19]
41.451[22, 22, 36, 24, 21, 20, 20, 18]
41.467[24, 23, 38, 22, 19, 19, 20, 18]
41.489[25, 20, 36, 21, 18, 21, 17, 20]
41.511[25, 21, 34, 20, 19, 22, 16, 19]
41.527[26, 21, 33, 19, 20, 21, 16, 21]
41.549[23, 23, 33, 18, 19, 23, 17, 20]
41.572[21, 24, 38, 22, 21, 22, 18, 20]
41.586[23, 25, 42, 21, 23, 22, 19, 19]
41.609[24, 24, 44, 22, 22, 20, 19, 22]
41.632[23, 23, 44, 22, 21, 21, 20, 20]
41.647[24, 23, 45, 23, 21, 20, 19, 22]
41.669[25, 20, 43, 20, 22, 23, 19, 22]
41.692[23, 22, 42, 21, 19, 24, 19, 22]
41.707[23, 21, 37, 21, 21, 24, 21, 17]
41.729[21, 22, 35, 21, 22, 23, 21, 22]
41.752[21, 21, 33, 19, 22, 25, 20, 19]
41.767[22, 21, 36, 19, 20, 23, 20, 22]
41.789[21, 19, 37, 18, 23, 22, 20, 24]
41.812[20, 25, 38, 18, 23, 22, 18, 26]
41.827[19, 26, 42, 20, 24, 22, 19, 23]
41.849[19, 26, 49, 21, 24, 20, 20, 26]
41.872[19, 27, 46, 25, 25, 19, 19, 24]
41.887[20, 27, 43, 27, 24, 20, 22, 24]
41.909[21, 26, 43, 26, 24, 20, 22, 23]
41.932[22, 26, 40, 24, 24, 21, 21, 25]
41.954[22, 25, 31, 24, 24, 22, 26, 22]
41.969[23, 24, 30, 19, 24, 20, 26, 21]
41.992[22, 26, 30, 19, 23, 20, 23, 22]
42.006[20, 23, 30, 19, 22, 20, 25, 23]
42.029[22, 22, 30, 18, 22, 21, 27, 20]
42.052[22, 24, 28, 17, 20, 20, 24, 20]
42.066[20, 24, 36, 20, 22, 21, 24, 20]
42.089[18, 20, 35, 18, 23, 21, 26, 17]
42.112[18, 22, 35, 19, 23, 22, 24, 18]
42.126[21, 22, 34, 19, 23, 23, 23, 18]
42.157[22, 22, 37, 19, 24, 25, 20, 21]
42.172[23, 23, 33, 19, 20, 26, 21, 21]
42.186[23, 23, 34, 18, 18, 25, 18, 24]
42.209[23, 21, 33, 18, 19, 25, 21, 23]
42.232[21, 21, 34, 20, 19, 22, 21, 23]
42.246[21, 24, 29, 20, 17, 25, 22, 22]
42.269[18, 24, 30, 20, 19, 22, 21, 25]
42.292[19, 23, 30, 20, 21, 24, 22, 21]
42.306[18, 25, 34, 23, 20, 22, 22, 22]
42.329[16, 25, 33, 24, 21, 22, 22, 21]
42.352[18, 25, 35, 24, 22, 20, 21, 21]
42.366[19, 26, 34, 22, 22, 22, 21, 20]
42.39[20, 26, 36, 24, 22, 21, 20, 20]
42.412[23, 22, 34, 22, 23, 22, 21, 20]
42.426[23, 24, 35, 20, 21, 23, 19, 21]
42.449[21, 21, 34, 22, 22, 20, 22, 19]
42.472[21, 19, 30, 23, 22, 20, 24, 17]
42.494[19, 20, 26, 23, 21, 19, 24, 20]
42.509[19, 20, 30, 22, 20, 20, 22, 19]
42.532[20, 20, 34, 24, 20, 22, 25, 20]
42.554[21, 21, 33, 21, 18, 23, 24, 20]
42.569[20, 21, 38, 20, 19, 21, 23, 22]
42.592[22, 23, 40, 18, 18, 24, 23, 20]
42.614[21, 23, 37, 20, 19, 23, 21, 22]
42.629[21, 24, 35, 18, 20, 22, 19, 23]
42.652[21, 22, 34, 20, 20, 22, 20, 23]
42.674[21, 23, 32, 21, 18, 22, 22, 23]
42.689[21, 22, 34, 23, 20, 24, 22, 23]
42.712[20, 21, 35, 22, 21, 24, 23, 22]
42.734[20, 21, 35, 22, 19, 24, 22, 22]
42.749[20, 21, 40, 22, 20, 23, 21, 22]
42.772[20, 19, 40, 20, 21, 23, 20, 21]
42.794[21, 18, 38, 18, 20, 18, 19, 20]
42.809[21, 18, 36, 17, 20, 17, 18, 21]
42.832[20, 20, 36, 20, 21, 19, 19, 20]
42.854[20, 22, 42, 20, 22, 19, 21, 20]
42.869[22, 24, 39, 21, 22, 20, 20, 22]
42.892[20, 24, 37, 24, 22, 22, 23, 22]
42.915[20, 24, 39, 24, 21, 24, 22, 22]
42.93[19, 22, 38, 24, 20, 22, 24, 23]
42.953[19, 21, 26, 23, 19, 22, 21, 24]
42.973[19, 20, 32, 22, 18, 22, 22, 23]
42.996[21, 22, 32, 20, 18, 21, 21, 22]
43.012[20, 22, 33, 21, 19, 20, 22, 23]
43.033[20, 21, 33, 20, 20, 21, 20, 21]
43.05[20, 21, 36, 21, 20, 21, 21, 21]
43.072[20, 21, 35, 20, 23, 21, 21, 20]
43.093[20, 23, 33, 20, 24, 22, 21, 21]
43.11[20, 22, 32, 20, 22, 22, 21, 19]
43.133[22, 22, 32, 19, 23, 22, 22, 22]
43.154[23, 23, 40, 18, 24, 22, 21, 21]
43.176[22, 24, 38, 20, 22, 21, 22, 20]
43.193[23, 20, 38, 20, 22, 21, 21, 23]
43.214[22, 20, 36, 22, 23, 21, 21, 22]
43.231[22, 23, 37, 23, 22, 20, 19, 21]
43.253[22, 22, 24, 24, 23, 23, 19, 22]
43.273[21, 23, 21, 23, 21, 24, 18, 22]
43.29[22, 23, 24, 23, 20, 26, 19, 21]
43.311[22, 25, 31, 21, 20, 27, 20, 22]
43.341[22, 22, 33, 22, 19, 27, 21, 21]
43.35[21, 21, 35, 20, 19, 25, 21, 20]
43.371[21, 22, 36, 19, 20, 24, 19, 21]
43.403[20, 24, 37, 21, 21, 23, 17, 19]
43.416[19, 22, 38, 20, 21, 24, 18, 19]
43.431[20, 23, 39, 18, 22, 24, 17, 24]
43.453[19, 25, 37, 21, 21, 23, 19, 24]
43.484[19, 25, 37, 22, 22, 22, 20, 24]
43.491[20, 24, 33, 20, 21, 23, 21, 24]
43.514[20, 24, 27, 21, 21, 21, 18, 23]
43.537[20, 22, 22, 21, 21, 22, 20, 19]
43.551[22, 21, 29, 21, 21, 21, 19, 19]
43.573[23, 18, 32, 22, 19, 21, 20, 20]
43.596[22, 18, 34, 22, 20, 20, 20, 21]
43.611[25, 18, 34, 21, 21, 21, 21, 23]
43.634[24, 20, 35, 21, 21, 21, 24, 23]
43.656[23, 20, 39, 20, 25, 21, 25, 23]
43.671[22, 21, 42, 20, 25, 25, 24, 21]
43.694[20, 20, 42, 22, 25, 24, 24, 23]
43.717[20, 21, 40, 21, 24, 24, 24, 23]
43.731[19, 21, 40, 22, 25, 25, 19, 21]
43.754[20, 20, 37, 21, 22, 25, 18, 21]
43.777[20, 23, 34, 20, 25, 23, 19, 22]
43.791[24, 25, 36, 20, 23, 26, 22, 19]
43.814[21, 23, 36, 21, 22, 25, 22, 19]
43.837[21, 24, 35, 21, 21, 23, 25, 20]
43.851[23, 26, 29, 20, 21, 24, 27, 20]
43.874[22, 25, 26, 20, 18, 23, 27, 21]
43.905[18, 22, 22, 20, 22, 23, 25, 20]
43.911[18, 24, 24, 17, 22, 23, 25, 20]
43.933[18, 24, 32, 18, 21, 25, 24, 20]
43.958[16, 22, 32, 18, 21, 25, 22, 21]
43.971[16, 22, 32, 20, 21, 26, 24, 23]
43.994[17, 22, 34, 19, 18, 24, 23, 23]
44.018[17, 21, 33, 19, 18, 24, 22, 25]
44.031[19, 19, 25, 20, 18, 23, 21, 23]
44.054[17, 21, 25, 19, 19, 24, 23, 22]
44.076[19, 19, 23, 16, 19, 24, 20, 20]
44.091[18, 20, 21, 19, 19, 25, 19, 19]
44.114[18, 21, 22, 20, 19, 25, 21, 17]
44.136[20, 22, 21, 19, 20, 26, 23, 17]
44.151[20, 21, 20, 20, 20, 25, 19, 18]
44.174[19, 21, 18, 20, 20, 24, 20, 18]
44.196[20, 20, 20, 18, 20, 25, 21, 19]
44.211[23, 19, 21, 19, 19, 27, 19, 19]
44.234[21, 18, 22, 21, 19, 25, 17, 18]
44.256[22, 22, 32, 19, 20, 25, 21, 16]
44.279[23, 21, 35, 20, 19, 24, 20, 16]
44.294[21, 24, 36, 22, 20, 20, 19, 16]
44.316[18, 23, 35, 22, 21, 20, 20, 16]
44.331[17, 27, 35, 22, 23, 21, 20, 18]
44.354[21, 26, 26, 44, 22, 22, 18, 18]
44.376[21, 25, 30, 47, 21, 23, 20, 18]
44.399[21, 24, 32, 47, 23, 23, 20, 19]
44.414[23, 25, 34, 48, 22, 21, 19, 20]
44.436[24, 21, 34, 47, 21, 22, 20, 21]
44.459[21, 21, 43, 30, 21, 24, 20, 21]
44.474[20, 23, 41, 25, 22, 26, 20, 21]
44.496[21, 22, 39, 24, 20, 26, 19, 20]
44.519[21, 22, 38, 19, 21, 27, 21, 19]
44.534[19, 27, 38, 20, 20, 25, 22, 21]
44.556[21, 26, 35, 19, 21, 23, 21, 20]
44.579[21, 28, 39, 18, 21, 22, 23, 21]
44.594[21, 29, 39, 19, 20, 22, 24, 21]
44.616[22, 29, 39, 19, 21, 22, 22, 22]
44.639[22, 24, 39, 22, 21, 22, 22, 19]
44.654[21, 24, 39, 21, 19, 21, 24, 19]
44.676[21, 21, 33, 20, 18, 21, 21, 21]
44.707[23, 21, 33, 21, 20, 20, 23, 19]
44.715[21, 22, 33, 21, 19, 19, 23, 19]
44.737[22, 22, 38, 20, 18, 20, 23, 18]
44.759[22, 25, 34, 20, 18, 21, 23, 18]
44.774[23, 26, 34, 21, 20, 19, 24, 18]
44.796[21, 25, 35, 21, 18, 21, 21, 18]
44.819[20, 24, 43, 22, 18, 19, 22, 20]
44.834[21, 25, 39, 20, 18, 20, 24, 20]
44.857[22, 24, 38, 21, 18, 18, 25, 21]
44.879[23, 23, 37, 22, 17, 18, 24, 20]
44.894[23, 22, 38, 21, 17, 19, 25, 23]
44.916[24, 22, 30, 20, 17, 19, 24, 21]
44.939[23, 23, 30, 20, 19, 19, 23, 20]
44.954[22, 23, 33, 19, 19, 20, 21, 21]
44.976[20, 23, 37, 16, 20, 22, 22, 21]
44.999[22, 23, 38, 17, 20, 23, 19, 18]
45.014[22, 22, 37, 17, 22, 23, 21, 18]
45.036[22, 22, 40, 17, 22, 23, 20, 21]
45.059[22, 22, 44, 27, 22, 21, 23, 20]
45.074[22, 22, 44, 28, 23, 19, 23, 20]
45.097[21, 22, 42, 29, 22, 19, 23, 20]
45.119[21, 22, 42, 31, 22, 20, 22, 23]
45.134[22, 24, 43, 31, 20, 21, 22, 19]
45.156[21, 22, 36, 25, 20, 23, 18, 20]
45.179[24, 23, 33, 26, 20, 23, 19, 21]
45.194[23, 24, 32, 28, 20, 23, 18, 23]
45.216[23, 27, 37, 46, 24, 24, 19, 22]
45.239[22, 25, 34, 54, 26, 22, 21, 23]
45.254[21, 26, 34, 56, 26, 26, 24, 22]
45.276[19, 24, 34, 57, 26, 25, 25, 24]
45.299[21, 22, 41, 58, 26, 25, 25, 22]
45.322[20, 21, 39, 45, 22, 23, 25, 20]
45.336[20, 25, 40, 36, 20, 23, 23, 21]
45.359[20, 24, 42, 33, 20, 19, 21, 23]
45.382[23, 26, 42, 31, 19, 23, 20, 22]
45.397[20, 25, 35, 26, 19, 23, 21, 24]
45.419[20, 24, 33, 26, 18, 24, 23, 24]
45.442[20, 20, 29, 27, 17, 26, 23, 25]
45.456[23, 23, 34, 25, 18, 24, 22, 22]
45.479[19, 21, 34, 24, 22, 20, 22, 22]
45.502[20, 22, 35, 27, 21, 22, 22, 21]
45.516[22, 22, 34, 25, 21, 20, 23, 21]
45.539[22, 22, 35, 23, 22, 19, 23, 21]
45.562[21, 20, 28, 26, 22, 20, 24, 21]
45.577[21, 19, 33, 28, 19, 21, 22, 22]
45.599[22, 21, 35, 27, 21, 20, 23, 21]
45.622[20, 21, 36, 27, 22, 18, 17, 20]
45.637[21, 20, 36, 28, 22, 18, 21, 19]
45.659[19, 22, 35, 25, 21, 22, 20, 19]
45.682[18, 24, 30, 22, 21, 22, 20, 20]
45.697[17, 22, 28, 22, 21, 21, 20, 18]
45.719[20, 21, 27, 22, 19, 22, 22, 21]
45.742[21, 24, 34, 24, 20, 21, 18, 21]
45.757[21, 24, 40, 25, 20, 18, 21, 20]
45.779[21, 24, 39, 23, 20, 20, 23, 18]
45.802[24, 24, 38, 24, 20, 21, 24, 20]
45.816[21, 26, 38, 30, 20, 22, 24, 18]
45.839[23, 26, 33, 29, 20, 23, 24, 20]
45.862[23, 25, 36, 29, 20, 21, 22, 21]
45.877[22, 25, 39, 31, 21, 22, 23, 21]
45.899[21, 26, 39, 30, 18, 21, 21, 21]
45.922[21, 24, 39, 24, 19, 21, 24, 22]
45.936[18, 22, 41, 32, 21, 19, 24, 19]
45.959[17, 22, 35, 36, 19, 23, 24, 20]
45.982[18, 20, 35, 35, 20, 21, 21, 20]
45.997[17, 20, 36, 34, 22, 20, 24, 20]
46.019[19, 21, 39, 34, 23, 20, 22, 20]
46.042[20, 21, 35, 27, 21, 20, 22, 20]
46.057[21, 21, 34, 23, 22, 19, 23, 22]
46.079[22, 22, 29, 20, 22, 20, 24, 21]
46.102[22, 23, 37, 22, 22, 21, 21, 21]
46.117[20, 24, 37, 22, 22, 22, 19, 19]
46.147[19, 22, 37, 22, 22, 22, 22, 20]
46.162[18, 24, 37, 22, 23, 21, 22, 17]
46.177[18, 25, 38, 23, 24, 22, 23, 17]
46.199[18, 24, 34, 23, 23, 24, 23, 17]
46.223[18, 22, 31, 23, 23, 23, 24, 19]
46.236[18, 23, 30, 24, 22, 24, 22, 18]
46.259[17, 22, 36, 21, 21, 24, 23, 19]
46.282[18, 22, 39, 22, 19, 20, 20, 19]
46.305[19, 21, 37, 22, 19, 20, 22, 19]
46.319[19, 21, 38, 20, 18, 22, 22, 19]
46.35[21, 22, 42, 20, 19, 22, 22, 20]
46.365[21, 22, 38, 21, 20, 21, 22, 20]
46.379[19, 22, 35, 21, 21, 24, 22, 20]
46.402[19, 24, 33, 22, 21, 23, 22, 22]
46.425[19, 24, 31, 22, 22, 22, 21, 21]
46.439[16, 21, 32, 23, 21, 21, 21, 20]
46.462[18, 25, 32, 24, 20, 23, 20, 20]
46.485[20, 23, 30, 22, 20, 21, 21, 20]
46.499[20, 22, 32, 22, 21, 21, 19, 18]
46.522[20, 22, 31, 22, 20, 20, 20, 22]
46.545[23, 23, 25, 20, 20, 22, 20, 21]
46.559[23, 22, 24, 20, 21, 20, 20, 20]
46.582[24, 22, 25, 19, 22, 21, 21, 20]
46.605[24, 21, 24, 20, 21, 22, 23, 21]
46.62[25, 23, 23, 18, 22, 22, 24, 17]
46.642[22, 24, 23, 18, 24, 21, 24, 19]
46.665[22, 21, 21, 18, 24, 21, 23, 22]
46.679[18, 21, 23, 18, 21, 20, 23, 23]
46.702[19, 24, 32, 18, 20, 20, 22, 24]
46.725[20, 22, 35, 19, 21, 20, 22, 24]
46.739[22, 21, 35, 18, 20, 21, 20, 23]
46.762[22, 22, 36, 19, 18, 20, 22, 22]
46.785[22, 22, 35, 19, 21, 20, 21, 21]
46.808[21, 19, 27, 18, 23, 19, 18, 18]
46.822[20, 20, 23, 19, 21, 20, 19, 19]
46.845[21, 22, 25, 19, 22, 20, 20, 19]
46.859[21, 22, 25, 19, 23, 20, 19, 20]
46.882[23, 21, 24, 18, 20, 19, 19, 20]
46.905[24, 22, 24, 18, 20, 21, 19, 22]
46.92[25, 22, 25, 17, 23, 22, 19, 21]
46.942[22, 20, 22, 20, 22, 21, 17, 20]
46.965[23, 20, 20, 20, 22, 22, 19, 19]
46.979[21, 22, 21, 22, 25, 26, 20, 18]
47.002[21, 21, 20, 23, 24, 24, 20, 16]
47.025[19, 21, 21, 22, 23, 24, 21, 16]
47.039[20, 21, 22, 21, 23, 24, 22, 18]
47.071[19, 20, 24, 20, 23, 25, 19, 17]
47.085[22, 20, 23, 19, 22, 22, 20, 19]
47.107[21, 21, 23, 17, 24, 23, 20, 21]
47.123[20, 23, 24, 18, 23, 23, 18, 21]
47.145[22, 23, 24, 20, 22, 24, 19, 20]
47.159[22, 23, 23, 20, 22, 22, 20, 22]
47.183[18, 24, 22, 20, 21, 20, 18, 20]
47.205[17, 24, 22, 19, 20, 19, 19, 19]
47.227[20, 22, 21, 20, 19, 22, 18, 20]
47.242[16, 21, 19, 16, 22, 21, 20, 19]
47.265[18, 23, 20, 16, 21, 23, 20, 18]
47.287[18, 22, 21, 17, 20, 23, 20, 17]
47.302[19, 22, 21, 18, 20, 25, 19, 19]
47.325[18, 20, 20, 18, 19, 21, 21, 20]
47.347[19, 21, 23, 21, 17, 23, 20, 19]
47.363[20, 20, 22, 23, 18, 20, 20, 20]
47.385[20, 20, 24, 22, 18, 21, 21, 20]
47.407[21, 20, 23, 24, 19, 20, 21, 17]
47.422[24, 23, 25, 25, 20, 20, 21, 19]
47.445[23, 23, 23, 23, 20, 16, 20, 19]
47.467[23, 22, 22, 21, 19, 19, 20, 18]
47.482[24, 24, 21, 22, 20, 19, 20, 21]
47.505[22, 23, 21, 20, 19, 17, 22, 22]
47.527[21, 23, 20, 20, 20, 19, 20, 21]
47.542[21, 23, 19, 19, 22, 20, 21, 20]
47.565[20, 23, 19, 21, 22, 17, 24, 22]
47.587[21, 23, 25, 22, 22, 19, 23, 21]
47.61[21, 23, 28, 22, 21, 19, 22, 21]
47.625[19, 23, 32, 21, 19, 18, 22, 20]
47.648[21, 24, 32, 22, 17, 18, 26, 24]
47.662[23, 25, 35, 21, 17, 21, 23, 23]
47.685[25, 24, 30, 19, 16, 18, 23, 23]
47.707[25, 24, 27, 23, 19, 19, 23, 24]
47.722[24, 23, 23, 24, 21, 20, 24, 24]
47.745[23, 23, 27, 23, 20, 20, 20, 22]
47.767[23, 23, 30, 24, 21, 19, 23, 22]
47.782[20, 22, 33, 26, 21, 25, 23, 22]
47.805[20, 21, 38, 24, 22, 24, 24, 20]
47.827[19, 19, 40, 24, 20, 25, 22, 19]
47.842[20, 19, 38, 26, 21, 25, 21, 18]
47.865[20, 18, 36, 24, 21, 25, 20, 18]
47.887[19, 18, 34, 25, 22, 20, 19, 18]
47.902[20, 18, 35, 24, 19, 21, 21, 20]
47.926[20, 20, 36, 22, 21, 20, 21, 19]
47.947[19, 19, 36, 22, 19, 20, 22, 21]
47.969[18, 20, 34, 22, 18, 19, 21, 20]
47.993[20, 20, 41, 20, 19, 18, 24, 20]
48.007[21, 20, 38, 20, 19, 18, 21, 21]
48.029[23, 20, 35, 19, 18, 22, 22, 21]
48.046[21, 20, 34, 19, 19, 22, 21, 20]
48.067[21, 21, 41, 21, 20, 23, 20, 24]
48.097[22, 21, 35, 18, 19, 24, 18, 24]
48.112[21, 21, 32, 19, 20, 25, 17, 24]
48.127[19, 20, 31, 20, 19, 23, 17, 24]
48.149[21, 19, 36, 20, 20, 22, 18, 25]
48.166[21, 16, 33, 20, 20, 24, 22, 22]
48.187[22, 16, 34, 22, 21, 23, 21, 22]
48.209[21, 17, 34, 22, 19, 20, 24, 20]
48.226[22, 18, 35, 21, 20, 23, 26, 19]
48.247[21, 23, 30, 21, 21, 24, 26, 21]
48.269[22, 23, 30, 20, 23, 22, 23, 20]
48.286[19, 24, 30, 19, 22, 24, 24, 21]
48.307[19, 23, 31, 20, 24, 25, 21, 22]
48.329[19, 23, 32, 22, 24, 23, 19, 24]
48.346[18, 23, 37, 23, 23, 23, 20, 22]
48.367[18, 23, 35, 24, 22, 22, 22, 23]
48.389[18, 22, 32, 25, 22, 22, 21, 22]
48.406[19, 23, 33, 24, 22, 21, 21, 24]
48.427[19, 23, 35, 23, 22, 22, 21, 22]
48.449[20, 20, 37, 23, 21, 22, 20, 23]
48.466[20, 20, 38, 22, 21, 23, 18, 22]
48.487[20, 21, 38, 22, 22, 22, 18, 24]
48.509[19, 19, 39, 22, 21, 24, 19, 21]
48.526[19, 20, 41, 22, 20, 23, 22, 20]
48.547[18, 21, 36, 23, 22, 22, 23, 20]
48.569[20, 21, 33, 21, 21, 22, 22, 21]
48.586[21, 21, 37, 21, 19, 22, 24, 19]
48.607[22, 22, 35, 19, 19, 20, 24, 20]
48.629[21, 22, 32, 20, 20, 19, 20, 20]
48.646[22, 22, 30, 19, 21, 20, 20, 22]
48.667[22, 22, 36, 20, 22, 21, 23, 21]
48.689[22, 21, 34, 20, 23, 22, 22, 20]
48.706[20, 21, 33, 22, 24, 22, 21, 20]
48.728[21, 20, 32, 20, 24, 25, 23, 20]
48.749[21, 21, 36, 22, 24, 24, 24, 19]
48.764[20, 22, 34, 22, 23, 24, 22, 21]
48.787[21, 21, 31, 23, 25, 24, 21, 21]
48.811[22, 23, 32, 21, 25, 24, 22, 19]
48.824[24, 22, 37, 23, 24, 20, 22, 23]
48.847[24, 23, 36, 22, 22, 22, 19, 22]
48.869[22, 21, 33, 20, 23, 23, 18, 21]
48.884[22, 22, 34, 23, 20, 24, 20, 21]
48.907[21, 21, 41, 23, 18, 23, 20, 24]
48.929[19, 21, 38, 21, 19, 25, 18, 25]
48.944[18, 22, 36, 22, 19, 24, 19, 25]
48.967[19, 24, 34, 25, 18, 22, 20, 24]
48.989[22, 24, 37, 22, 19, 21, 18, 25]
49.004[21, 25, 34, 22, 21, 22, 18, 28]
49.027[22, 25, 35, 21, 21, 19, 18, 26]
49.049[23, 24, 35, 21, 20, 20, 19, 28]
49.065[23, 22, 37, 17, 23, 21, 18, 27]
49.087[20, 21, 40, 15, 22, 20, 20, 26]
49.109[20, 21, 37, 23, 21, 21, 19, 21]
49.132[22, 23, 36, 24, 22, 20, 18, 22]
49.147[21, 24, 37, 23, 23, 18, 17, 23]
49.169[23, 25, 42, 27, 22, 15, 19, 24]
49.192[23, 25, 38, 33, 23, 20, 18, 24]
49.207[24, 26, 36, 28, 23, 21, 20, 23]
49.229[23, 26, 36, 29, 23, 23, 23, 22]
49.252[23, 25, 44, 31, 24, 25, 25, 22]
49.267[21, 23, 43, 28, 24, 25, 23, 21]
49.289[22, 24, 43, 20, 23, 23, 23, 23]
49.312[24, 22, 43, 21, 23, 21, 23, 25]
49.327[23, 22, 43, 20, 23, 20, 21, 24]
49.349[22, 21, 36, 17, 23, 23, 19, 21]
49.372[23, 22, 46, 18, 20, 23, 19, 22]
49.387[23, 23, 53, 22, 20, 23, 19, 20]
49.409[23, 22, 60, 25, 21, 25, 20, 21]
49.432[21, 22, 61, 24, 20, 24, 21, 22]
49.447[24, 24, 59, 25, 16, 20, 20, 23]
49.469[24, 22, 48, 25, 18, 21, 20, 25]
49.5[23, 21, 42, 24, 18, 23, 21, 25]
49.507[21, 23, 35, 20, 19, 22, 20, 22]
49.529[21, 24, 33, 21, 19, 24, 18, 22]
49.552[21, 22, 32, 22, 21, 23, 18, 23]
49.567[20, 26, 37, 22, 21, 22, 22, 23]
49.589[20, 26, 35, 21, 25, 21, 21, 22]
49.612[22, 24, 32, 20, 26, 21, 21, 23]
49.628[23, 23, 32, 21, 27, 20, 24, 22]
49.649[21, 24, 38, 21, 26, 24, 25, 21]
49.672[21, 22, 38, 21, 26, 23, 22, 20]
49.687[23, 22, 36, 21, 24, 25, 22, 20]
49.709[22, 23, 37, 23, 20, 25, 22, 20]
49.732[22, 23, 49, 23, 23, 29, 22, 23]
49.747[22, 21, 45, 21, 24, 26, 20, 22]
49.769[23, 22, 41, 20, 23, 28, 21, 21]
49.792[27, 22, 40, 20, 25, 26, 25, 21]
49.807[29, 21, 43, 21, 25, 25, 23, 24]
49.829[28, 22, 35, 20, 26, 21, 22, 23]
49.852[31, 24, 36, 21, 26, 21, 24, 23]
49.867[29, 22, 35, 20, 26, 19, 23, 22]
49.889[25, 22, 38, 24, 26, 22, 18, 22]
49.912[22, 24, 32, 23, 27, 22, 19, 19]
49.927[22, 26, 37, 22, 23, 21, 19, 19]
49.95[18, 25, 43, 22, 23, 22, 18, 18]
49.972[20, 26, 44, 22, 24, 24, 23, 20]
49.987[20, 27, 42, 20, 22, 24, 22, 21]
50.009[21, 26, 51, 20, 22, 27, 22, 21]
50.04[23, 23, 46, 21, 23, 29, 22, 21]
50.054[25, 24, 41, 21, 23, 28, 23, 22]
50.069[24, 21, 39, 22, 25, 27, 19, 21]
50.092[23, 20, 39, 20, 25, 26, 20, 20]
50.114[24, 19, 31, 18, 24, 23, 18, 20]
50.129[24, 19, 37, 20, 25, 23, 20, 22]
50.152[21, 21, 36, 23, 26, 26, 20, 20]
50.175[22, 22, 36, 24, 23, 27, 20, 21]
50.189[21, 24, 38, 26, 22, 28, 21, 19]
50.212[19, 24, 38, 26, 22, 32, 22, 20]
50.234[20, 25, 36, 24, 24, 32, 24, 20]
50.251[22, 24, 35, 22, 22, 30, 22, 21]
50.272[23, 25, 35, 21, 22, 29, 23, 20]
50.294[23, 22, 39, 21, 23, 32, 25, 21]
50.309[25, 22, 37, 21, 24, 28, 24, 22]
50.332[22, 20, 32, 23, 21, 30, 22, 19]
50.355[21, 19, 38, 22, 23, 31, 22, 18]
50.369[20, 20, 42, 24, 23, 30, 21, 23]
50.392[21, 20, 41, 24, 24, 30, 18, 24]
50.415[19, 25, 49, 25, 24, 29, 19, 21]
50.429[21, 27, 50, 23, 25, 25, 21, 24]
50.452[21, 26, 46, 23, 26, 26, 21, 26]
50.475[22, 26, 47, 21, 25, 29, 21, 23]
50.489[24, 26, 46, 21, 23, 23, 21, 22]
50.513