[19, 20, 21, 19, 20, 21, 21, 23]
0.547[18, 21, 22, 21, 19, 21, 23, 23]
0.57[17, 21, 21, 22, 18, 21, 20, 23]
0.592[16, 21, 17, 23, 20, 22, 22, 24]
0.608[15, 18, 19, 21, 18, 19, 25, 21]
0.631[18, 15, 17, 23, 17, 18, 24, 19]
0.652[19, 18, 16, 22, 17, 19, 24, 21]
0.671[20, 20, 17, 23, 18, 20, 24, 19]
0.69[21, 19, 17, 22, 16, 19, 24, 18]
0.714[22, 20, 16, 22, 17, 23, 22, 20]
0.728[19, 22, 17, 21, 20, 25, 24, 21]
0.757[20, 23, 25, 34, 33, 96, 43, 22]
0.773[20, 27, 32, 41, 44, 138, 53, 24]
0.787[21, 30, 35, 48, 53, 169, 57, 25]
0.81[22, 31, 36, 47, 53, 172, 57, 25]
0.832[23, 31, 37, 49, 52, 175, 58, 26]
0.848[23, 27, 32, 41, 46, 150, 45, 24]
0.87[24, 25, 25, 33, 35, 113, 33, 23]
0.893[23, 23, 21, 22, 22, 61, 26, 22]
0.908[22, 21, 22, 22, 22, 49, 23, 23]
0.93[21, 20, 20, 19, 23, 41, 21, 21]
0.953[20, 22, 21, 18, 22, 35, 21, 22]
0.967[18, 20, 22, 17, 22, 34, 22, 22]
0.99[18, 18, 23, 18, 20, 28, 21, 21]
1.012[17, 19, 20, 18, 20, 28, 21, 19]
1.035[18, 20, 21, 21, 19, 25, 27, 19]
1.05[19, 19, 21, 20, 19, 23, 26, 19]
1.072[20, 18, 21, 21, 17, 19, 25, 19]
1.095[18, 18, 21, 23, 18, 21, 26, 19]
1.11[18, 20, 22, 25, 22, 23, 25, 19]
1.132[17, 20, 22, 22, 21, 25, 22, 19]
1.155[18, 20, 22, 25, 25, 33, 24, 20]
1.17[17, 20, 18, 25, 27, 35, 24, 20]
1.194[18, 21, 19, 24, 27, 36, 25, 23]
1.215[18, 19, 20, 22, 24, 35, 26, 22]
1.23[19, 19, 19, 23, 25, 35, 25, 22]
1.252[18, 18, 21, 21, 21, 29, 22, 24]
1.275[17, 21, 23, 21, 19, 26, 23, 23]
1.29[18, 20, 22, 20, 18, 25, 21, 21]
1.312[19, 21, 21, 20, 19, 26, 21, 21]
1.335[18, 21, 22, 20, 20, 25, 20, 21]
1.35[19, 22, 21, 19, 21, 24, 21, 20]
1.373[19, 19, 21, 20, 20, 25, 21, 21]
1.395[19, 20, 21, 21, 21, 23, 20, 24]
1.41[21, 20, 20, 20, 21, 22, 22, 24]
1.432[20, 20, 20, 20, 20, 22, 21, 24]
1.463[20, 18, 20, 22, 21, 20, 20, 22]
1.478[20, 21, 22, 20, 22, 19, 17, 23]
1.501[19, 22, 22, 20, 24, 19, 21, 19]
1.515[17, 20, 23, 20, 23, 19, 20, 19]
1.546[18, 20, 22, 20, 22, 19, 21, 20]
1.56[18, 20, 22, 17, 20, 19, 20, 20]
1.576[20, 20, 18, 19, 21, 19, 23, 19]
1.598[19, 18, 18, 20, 18, 21, 21, 20]
1.627[19, 19, 18, 20, 18, 23, 20, 21]
1.634[18, 20, 19, 22, 18, 20, 19, 22]
1.658[16, 20, 19, 22, 21, 21, 23, 22]
1.68[17, 22, 20, 21, 19, 21, 21, 23]
1.694[19, 21, 22, 19, 19, 19, 20, 25]
1.717[19, 22, 20, 19, 21, 16, 20, 25]
1.74[20, 21, 20, 16, 21, 18, 22, 25]
1.754[21, 22, 19, 18, 19, 19, 19, 24]
1.778[19, 19, 19, 19, 20, 20, 18, 23]
1.8[19, 20, 18, 19, 20, 20, 20, 21]
1.814[20, 21, 19, 20, 20, 21, 21, 21]
1.837[19, 22, 19, 22, 21, 20, 19, 19]
1.86[17, 22, 19, 22, 22, 21, 18, 18]
1.874[18, 22, 21, 23, 21, 22, 20, 18]
1.897[17, 22, 22, 21, 21, 22, 18, 17]
1.92[15, 21, 22, 24, 20, 21, 18, 16]
1.934[17, 21, 23, 22, 19, 22, 20, 17]
1.957[19, 21, 22, 23, 18, 19, 21, 17]
1.98[19, 20, 21, 22, 19, 20, 19, 19]
1.994[19, 21, 19, 27, 20, 19, 20, 20]
2.017[20, 20, 20, 23, 20, 21, 23, 21]
2.04[19, 20, 19, 22, 20, 22, 24, 21]
2.054[18, 19, 20, 20, 20, 25, 23, 20]
2.077[17, 20, 19, 22, 22, 24, 25, 19]
2.1[18, 19, 19, 17, 19, 26, 26, 19]
2.114[18, 22, 20, 21, 19, 24, 23, 18]
2.137[20, 21, 20, 21, 19, 21, 21, 18]
2.16[19, 22, 20, 22, 20, 20, 23, 20]
2.174[20, 21, 21, 20, 19, 21, 21, 20]
2.198[18, 21, 21, 20, 21, 18, 21, 19]
2.22[21, 19, 21, 16, 21, 19, 22, 21]
2.234[19, 19, 21, 16, 22, 20, 23, 20]
2.258[19, 18, 23, 15, 21, 17, 21, 20]
2.28[17, 21, 23, 19, 20, 17, 21, 20]
2.302[18, 23, 23, 18, 20, 16, 22, 22]
2.317[16, 26, 23, 19, 20, 16, 21, 20]
2.34[17, 27, 23, 19, 18, 17, 19, 21]
2.354[18, 28, 23, 21, 21, 20, 19, 20]
2.378[18, 26, 22, 18, 22, 21, 20, 19]
2.4[20, 25, 24, 20, 21, 22, 19, 18]
2.415[20, 23, 23, 21, 23, 23, 18, 17]
2.437[20, 22, 23, 22, 25, 23, 19, 17]
2.46[22, 23, 22, 20, 24, 21, 22, 18]
2.483[21, 21, 23, 21, 23, 20, 21, 19]
2.498[19, 21, 21, 20, 23, 20, 21, 19]
2.52[20, 20, 20, 21, 23, 23, 21, 20]
2.542[21, 19, 21, 20, 22, 24, 20, 20]
2.558[19, 17, 21, 21, 24, 24, 16, 19]
2.58[20, 18, 22, 20, 25, 24, 23, 18]
2.603[24, 21, 24, 22, 24, 24, 23, 17]
2.618[24, 21, 24, 21, 24, 21, 23, 16]
2.64[23, 22, 23, 22, 25, 22, 22, 14]
2.662[25, 24, 24, 23, 20, 22, 23, 16]
2.678[24, 23, 24, 23, 21, 21, 18, 19]
2.7[20, 24, 23, 21, 22, 23, 17, 21]
2.722[20, 23, 23, 21, 21, 25, 18, 20]
2.738[20, 22, 22, 21, 21, 23, 19, 24]
2.761[19, 22, 22, 21, 22, 23, 18, 23]
2.782[19, 22, 21, 20, 22, 24, 19, 21]
2.798[20, 20, 21, 22, 23, 23, 20, 22]
2.82[20, 20, 22, 20, 21, 23, 19, 22]
2.842[22, 21, 22, 22, 20, 24, 18, 19]
2.857[20, 19, 21, 20, 21, 24, 20, 21]
2.88[21, 19, 20, 20, 22, 23, 21, 21]
2.902[19, 21, 22, 20, 22, 23, 22, 19]
2.917[18, 22, 23, 22, 21, 21, 25, 21]
2.94[17, 20, 23, 22, 23, 20, 24, 22]
2.962[17, 21, 24, 22, 20, 21, 24, 21]
2.976[19, 23, 25, 24, 20, 21, 23, 22]
3.0[18, 20, 25, 24, 20, 20, 22, 22]
3.022[19, 20, 22, 23, 20, 21, 19, 20]
3.037[20, 22, 22, 20, 21, 20, 23, 22]
3.06[19, 22, 22, 20, 21, 20, 21, 23]
3.082[20, 21, 20, 19, 20, 20, 23, 23]
3.097[20, 24, 19, 19, 23, 20, 24, 23]
3.12[19, 23, 20, 20, 23, 20, 24, 25]
3.142[18, 22, 20, 21, 22, 23, 22, 24]
3.158[19, 19, 20, 21, 22, 22, 23, 22]
3.18[18, 22, 22, 21, 22, 24, 21, 21]
3.202[18, 20, 21, 21, 21, 23, 19, 21]
3.217[19, 21, 20, 21, 19, 22, 19, 21]
3.24[19, 21, 19, 21, 20, 20, 21, 19]
3.262[19, 24, 19, 22, 21, 21, 21, 19]
3.277[18, 23, 20, 23, 21, 21, 23, 20]
3.3[18, 23, 20, 23, 21, 21, 23, 20]
3.322[19, 24, 22, 23, 21, 22, 23, 21]
3.345[19, 25, 23, 22, 19, 24, 22, 21]
3.36[21, 22, 22, 22, 20, 27, 22, 21]
3.382[22, 20, 19, 21, 24, 25, 21, 20]
3.406[22, 21, 21, 22, 23, 26, 23, 19]
3.42[21, 19, 20, 22, 24, 26, 22, 17]
3.443[21, 19, 19, 22, 24, 24, 22, 18]
3.465[20, 21, 22, 21, 22, 20, 21, 18]
3.487[20, 22, 24, 21, 20, 20, 23, 19]
3.502[19, 20, 22, 20, 22, 20, 22, 19]
3.525[19, 22, 24, 18, 22, 19, 21, 23]
3.541[19, 24, 23, 19, 21, 21, 21, 22]
3.562[18, 22, 21, 18, 23, 20, 23, 22]
3.584[19, 21, 22, 17, 23, 22, 22, 20]
3.601[20, 22, 22, 18, 21, 20, 22, 22]
3.623[21, 23, 20, 21, 19, 22, 23, 19]
3.644[21, 21, 20, 19, 20, 22, 25, 20]
3.661[21, 22, 20, 21, 18, 23, 21, 21]
3.682[21, 23, 21, 21, 19, 22, 20, 23]
3.704[21, 23, 19, 22, 20, 23, 21, 23]
3.728[20, 23, 22, 21, 22, 22, 20, 22]
3.742[20, 22, 20, 21, 23, 23, 17, 20]
3.764[20, 21, 21, 22, 22, 23, 18, 21]
3.781[20, 23, 22, 22, 20, 22, 19, 20]
3.802[21, 21, 22, 21, 21, 20, 19, 19]
3.825[20, 19, 20, 20, 20, 20, 20, 20]
3.841[22, 19, 20, 22, 18, 20, 20, 21]
3.862[22, 20, 20, 23, 20, 18, 21, 22]
3.884[21, 21, 19, 23, 23, 20, 20, 20]
3.9[21, 22, 20, 24, 22, 22, 19, 20]
3.923[19, 24, 22, 26, 22, 21, 19, 22]
3.944[18, 25, 22, 25, 23, 21, 19, 22]
3.96[17, 26, 23, 22, 21, 21, 18, 22]
3.982[17, 23, 23, 23, 19, 21, 19, 22]
4.006[19, 21, 23, 22, 18, 22, 19, 21]
4.021[20, 21, 21, 20, 19, 23, 20, 20]
4.042[21, 19, 21, 21, 18, 24, 19, 17]
4.064[22, 20, 21, 21, 23, 24, 19, 17]
4.081[23, 20, 23, 21, 22, 22, 20, 16]
4.102[22, 21, 22, 21, 22, 21, 19, 16]
4.124[23, 22, 23, 21, 21, 20, 18, 15]
4.14[24, 24, 23, 22, 21, 18, 20, 15]
4.162[24, 22, 23, 21, 16, 18, 21, 17]
4.184[24, 22, 21, 19, 15, 19, 20, 20]
4.201[23, 21, 22, 20, 16, 19, 21, 21]
4.222[23, 19, 22, 19, 16, 20, 20, 23]
4.244[21, 19, 23, 20, 17, 20, 17, 22]
4.261[20, 22, 22, 20, 17, 19, 17, 22]
4.282[19, 22, 21, 24, 20, 19, 17, 25]
4.305[21, 32, 20, 24, 20, 20, 17, 91]
4.321[22, 61, 28, 24, 21, 21, 19, 111]
4.342[24, 62, 27, 23, 21, 21, 19, 125]
4.364[24, 64, 28, 22, 20, 21, 25, 129]
4.386[24, 66, 27, 21, 19, 20, 28, 135]
4.401[22, 61, 27, 22, 21, 20, 29, 105]
4.424[19, 35, 19, 23, 20, 19, 41, 87]
4.448[18, 31, 20, 23, 19, 18, 43, 66]
4.462[17, 24, 18, 23, 22, 20, 42, 57]
4.484[21, 21, 18, 22, 21, 22, 41, 45]
4.506[22, 21, 18, 23, 25, 21, 41, 41]
4.522[23, 23, 20, 21, 27, 21, 32, 38]
4.544[26, 24, 21, 21, 27, 22, 29, 37]
4.575[26, 24, 22, 23, 26, 21, 27, 43]
4.582[23, 25, 23, 22, 27, 21, 26, 51]
4.604[23, 25, 23, 20, 21, 21, 26, 56]
4.635[25, 24, 21, 21, 19, 20, 22, 133]
4.642[23, 24, 23, 22, 18, 19, 23, 144]
4.664[23, 23, 22, 21, 17, 20, 21, 186]
4.686[22, 21, 22, 21, 17, 18, 20, 200]
4.702[22, 23, 23, 20, 16, 20, 18, 249]
4.724[19, 22, 23, 20, 17, 20, 28, 271]
4.746[22, 39, 20, 19, 19, 18, 28, 309]
4.762[25, 68, 24, 18, 21, 20, 28, 326]
4.784[27, 73, 24, 18, 21, 23, 33, 322]
4.806[25, 74, 24, 19, 22, 22, 35, 285]
4.822[24, 75, 24, 19, 21, 22, 28, 239]
4.844[22, 83, 27, 18, 20, 24, 28, 181]
4.866[18, 64, 24, 18, 19, 24, 27, 93]
4.882[19, 59, 24, 18, 20, 20, 21, 75]
4.904[20, 58, 23, 21, 21, 21, 15, 70]
4.927[20, 62, 22, 20, 21, 21, 13, 60]
4.942[20, 44, 20, 21, 21, 20, 15, 122]
4.972[20, 42, 20, 23, 21, 24, 31, 127]
4.986[20, 63, 23, 22, 20, 25, 32, 154]
5.002[20, 64, 23, 19, 19, 24, 34, 159]
5.024[21, 59, 25, 21, 20, 23, 34, 160]
5.047[20, 56, 27, 19, 20, 23, 33, 115]
5.061[20, 55, 27, 18, 19, 19, 21, 107]
5.084[20, 30, 23, 19, 20, 19, 21, 53]
5.106[20, 73, 29, 21, 21, 20, 19, 35]
5.122[22, 75, 29, 19, 22, 20, 21, 27]
5.144[24, 76, 26, 20, 22, 20, 21, 27]
5.167[24, 77, 27, 20, 22, 18, 19, 28]
5.189[23, 81, 28, 20, 21, 18, 19, 25]
5.204[26, 68, 24, 19, 21, 17, 18, 26]
5.227[25, 68, 22, 18, 20, 19, 17, 25]
5.242[25, 66, 23, 18, 20, 20, 16, 25]
5.273[25, 67, 23, 21, 20, 21, 16, 24]
5.287[25, 61, 22, 21, 22, 22, 17, 24]
5.309[22, 36, 22, 20, 22, 22, 18, 189]
5.324[22, 36, 24, 20, 21, 21, 19, 301]
5.347[22, 52, 24, 20, 23, 20, 19, 314]
5.369[21, 63, 25, 17, 25, 19, 23, 322]
5.384[20, 62, 24, 17, 23, 19, 24, 370]
5.407[19, 63, 25, 18, 24, 18, 25, 329]
5.429[21, 60, 23, 20, 23, 19, 27, 230]
5.444[19, 46, 22, 21, 22, 20, 29, 213]
5.467[20, 27, 21, 22, 21, 19, 28, 203]
5.49[21, 25, 22, 21, 19, 21, 27, 93]
5.504[22, 25, 20, 21, 20, 21, 25, 53]
5.527[22, 46, 24, 19, 20, 21, 23, 55]
5.549[21, 48, 23, 17, 21, 18, 22, 55]
5.564[21, 50, 25, 17, 21, 20, 19, 46]
5.586[21, 52, 26, 19, 20, 21, 18, 38]
5.609[21, 50, 27, 19, 20, 22, 18, 33]
5.626[19, 33, 24, 19, 22, 21, 17, 31]
5.646[19, 29, 25, 19, 21, 22, 16, 35]
5.669[19, 24, 24, 19, 21, 20, 19, 32]
5.684[19, 23, 24, 21, 20, 17, 21, 33]
5.707[19, 21, 22, 21, 21, 18, 21, 32]
5.729[20, 22, 21, 22, 19, 18, 22, 29]
5.744[20, 22, 20, 23, 21, 19, 22, 18]
5.767[20, 23, 20, 22, 20, 19, 20, 20]
5.79[21, 22, 18, 21, 22, 20, 19, 17]
5.804[21, 22, 19, 20, 22, 17, 19, 19]
5.826[20, 21, 19, 20, 21, 20, 20, 18]
5.849[21, 49, 23, 20, 20, 19, 21, 19]
5.864[21, 60, 24, 20, 19, 21, 22, 23]
5.887[24, 67, 26, 19, 21, 21, 23, 23]
5.909[23, 68, 25, 19, 19, 21, 23, 25]
5.924[23, 86, 29, 19, 21, 20, 23, 26]
5.947[22, 76, 26, 18, 21, 22, 22, 27]
5.969[21, 69, 27, 18, 23, 20, 22, 23]
5.985[19, 62, 26, 18, 22, 21, 23, 22]
6.008[20, 69, 29, 18, 23, 20, 22, 21]
6.029[19, 45, 28, 19, 23, 20, 26, 21]
6.044[21, 67, 32, 20, 22, 20, 27, 18]
6.067[22, 68, 32, 21, 20, 22, 27, 19]
6.089[20, 68, 32, 22, 22, 22, 25, 19]
6.104[19, 61, 30, 23, 21, 21, 23, 16]
6.127[19, 60, 28, 21, 23, 21, 19, 18]
6.149[18, 53, 25, 20, 23, 20, 15, 20]
6.164[19, 52, 24, 19, 23, 17, 18, 22]
6.187[19, 53, 23, 19, 21, 26, 19, 24]
6.209[19, 53, 22, 22, 23, 29, 20, 23]
6.232[22, 53, 23, 25, 21, 32, 23, 23]
6.247[22, 32, 21, 25, 22, 32, 23, 21]
6.269[21, 29, 23, 26, 25, 33, 23, 22]
6.292[20, 24, 22, 26, 25, 26, 27, 24]
6.307[22, 25, 23, 23, 25, 24, 27, 25]
6.329[20, 24, 23, 21, 23, 30, 25, 27]
6.352[21, 34, 23, 20, 23, 31, 27, 27]
6.367[21, 48, 25, 21, 20, 31, 25, 25]
6.389[25, 63, 28, 18, 22, 31, 19, 20]
6.413[26, 70, 29, 17, 23, 31, 18, 18]
6.426[26, 71, 28, 19, 23, 22, 19, 16]
6.449[24, 68, 28, 20, 23, 23, 20, 17]
6.472[25, 60, 25, 19, 24, 23, 20, 18]
6.486[21, 57, 25, 19, 21, 23, 22, 19]
6.509[20, 72, 30, 20, 19, 21, 22, 19]
6.54[22, 71, 33, 21, 21, 21, 21, 17]
6.546[21, 72, 32, 21, 19, 18, 17, 20]
6.57[22, 91, 34, 22, 17, 16, 19, 21]
6.593[24, 84, 33, 23, 18, 18, 17, 19]
6.606[23, 69, 27, 23, 17, 17, 17, 20]
6.629[21, 69, 25, 22, 19, 16, 17, 22]
6.652[22, 68, 25, 21, 19, 19, 23, 19]
6.666[21, 45, 21, 21, 22, 21, 26, 21]
6.689[23, 62, 22, 22, 23, 20, 28, 23]
6.712[22, 60, 24, 21, 23, 21, 28, 26]
6.726[24, 62, 24, 21, 22, 20, 30, 25]
6.749[23, 63, 24, 21, 21, 17, 27, 24]
6.78[25, 96, 37, 23, 20, 16, 23, 23]
6.787[22, 86, 35, 22, 18, 16, 20, 22]
6.818[21, 84, 35, 24, 18, 16, 20, 19]
6.833[20, 84, 35, 24, 17, 19, 17, 21]
6.846[23, 87, 35, 24, 18, 19, 17, 29]
6.87[20, 61, 21, 21, 20, 19, 20, 35]
6.892[21, 62, 26, 23, 20, 20, 21, 68]
6.907[21, 63, 25, 20, 20, 21, 20, 69]
6.93[21, 62, 24, 18, 19, 21, 20, 69]
6.952[23, 58, 25, 17, 22, 21, 21, 68]
6.966[23, 43, 24, 18, 21, 21, 19, 66]
6.99[22, 37, 20, 18, 21, 21, 20, 32]
7.012[23, 35, 20, 19, 20, 22, 21, 29]
7.027[22, 57, 26, 20, 22, 21, 22, 29]
7.05[19, 58, 27, 21, 19, 21, 21, 23]
7.072[24, 63, 27, 20, 19, 21, 21, 22]
7.087[25, 63, 30, 25, 18, 21, 20, 19]
7.11[23, 65, 30, 24, 21, 21, 19, 21]
7.132[23, 46, 26, 23, 19, 21, 18, 22]
7.146[24, 59, 27, 23, 18, 21, 20, 25]
7.178[20, 59, 28, 24, 17, 23, 21, 25]
7.192[24, 62, 27, 18, 19, 21, 21, 28]
7.215[24, 60, 27, 18, 17, 21, 22, 29]
7.23[25, 62, 27, 20, 18, 21, 22, 28]
7.252[24, 50, 24, 19, 19, 21, 20, 24]
7.275[23, 58, 26, 21, 22, 18, 20, 25]
7.29[20, 60, 24, 21, 22, 20, 19, 22]
7.312[22, 60, 27, 24, 22, 20, 20, 20]
7.335[21, 58, 27, 22, 23, 20, 21, 20]
7.35[22, 54, 27, 23, 22, 19, 20, 20]
7.372[24, 60, 28, 22, 20, 20, 20, 21]
7.395[24, 56, 28, 23, 18, 19, 19, 21]
7.41[24, 61, 26, 22, 21, 18, 19, 19]
7.432[25, 69, 30, 25, 22, 19, 19, 20]
7.455[24, 71, 29, 25, 23, 22, 19, 22]
7.47[22, 52, 24, 24, 22, 21, 19, 20]
7.492[23, 65, 28, 24, 23, 24, 21, 23]
7.515[20, 61, 28, 25, 22, 24, 21, 24]
7.53[20, 51, 25, 21, 21, 23, 21, 24]
7.552[22, 51, 26, 21, 21, 21, 22, 22]
7.575[21, 52, 27, 21, 20, 22, 20, 22]
7.59[21, 35, 23, 20, 23, 19, 19, 21]
7.612[20, 34, 22, 19, 23, 20, 18, 20]
7.635[20, 33, 23, 19, 22, 22, 19, 20]
7.65[20, 30, 21, 18, 23, 21, 18, 21]
7.672[21, 50, 22, 20, 23, 22, 19, 21]
7.695[20, 51, 23, 20, 19, 21, 17, 19]
7.709[22, 51, 23, 21, 19, 21, 17, 22]
7.733[20, 55, 27, 21, 20, 20, 18, 21]
7.755[19, 55, 28, 23, 20, 21, 21, 22]
7.769[18, 38, 26, 21, 21, 21, 21, 22]
7.793[20, 32, 27, 21, 21, 21, 21, 22]
7.815[17, 31, 27, 22, 22, 21, 21, 19]
7.83[20, 22, 23, 24, 21, 20, 19, 18]
7.852[19, 23, 22, 22, 22, 20, 17, 22]
7.875[20, 22, 21, 24, 24, 22, 19, 22]
7.889[18, 23, 20, 23, 23, 22, 19, 23]
7.912[19, 21, 21, 21, 23, 22, 19, 22]
7.942[16, 21, 20, 19, 23, 22, 21, 23]
7.949[18, 22, 21, 21, 22, 22, 18, 19]
7.972[17, 21, 20, 20, 22, 19, 17, 18]
7.995[20, 23, 20, 21, 21, 19, 16, 17]
8.009[20, 23, 20, 21, 21, 19, 16, 19]
8.032[20, 26, 23, 21, 21, 19, 15, 20]
8.055[19, 24, 22, 23, 20, 19, 20, 21]
8.069[22, 24, 22, 21, 19, 21, 23, 25]
8.092[21, 24, 22, 21, 19, 21, 25, 25]
8.114[21, 25, 22, 22, 20, 19, 25, 25]
8.137[23, 25, 22, 23, 22, 20, 24, 23]
8.152[24, 24, 22, 20, 23, 22, 22, 22]
8.174[21, 24, 22, 21, 23, 21, 20, 18]
8.198[20, 21, 25, 22, 23, 21, 19, 19]
8.212[21, 23, 22, 20, 22, 22, 20, 21]
8.235[19, 21, 20, 20, 21, 22, 21, 21]
8.257[19, 22, 20, 21, 21, 20, 20, 20]
8.272[19, 25, 20, 20, 21, 20, 20, 20]
8.295[22, 25, 18, 19, 21, 18, 20, 19]
8.325[21, 22, 18, 20, 20, 20, 18, 20]
8.332[22, 22, 19, 19, 20, 18, 18, 21]
8.355[21, 24, 18, 19, 20, 17, 20, 22]
8.378[22, 22, 21, 19, 20, 18, 21, 25]
8.392[20, 23, 20, 18, 19, 18, 20, 25]
8.415[21, 23, 21, 17, 19, 16, 20, 22]
8.445[20, 23, 21, 17, 20, 18, 20, 21]
8.452[20, 25, 23, 21, 19, 20, 17, 18]
8.475[20, 24, 22, 20, 18, 20, 16, 14]
8.497[19, 23, 21, 21, 20, 21, 18, 15]
8.513[20, 23, 21, 21, 19, 24, 20, 15]
8.535[18, 26, 22, 22, 20, 22, 20, 16]
8.557[16, 21, 21, 20, 22, 20, 21, 20]
8.573[15, 20, 20, 23, 21, 21, 22, 23]
8.595[17, 20, 21, 22, 22, 20, 22, 24]
8.617[13, 22, 20, 22, 23, 18, 22, 28]
8.633[16, 19, 19, 22, 22, 19, 22, 26]
8.654[20, 21, 19, 22, 21, 19, 21, 25]
8.676[20, 23, 20, 22, 21, 19, 19, 23]
8.693[20, 21, 19, 22, 20, 20, 16, 21]
8.715[21, 21, 19, 22, 20, 20, 16, 17]
8.736[22, 23, 21, 21, 20, 21, 19, 20]
8.753[20, 21, 21, 19, 22, 22, 21, 23]
8.774[21, 19, 21, 18, 22, 21, 22, 24]
8.797[21, 22, 21, 18, 22, 20, 25, 26]
8.813[22, 21, 21, 18, 21, 20, 24, 25]
8.834[21, 18, 20, 17, 22, 18, 20, 22]
8.857[21, 20, 19, 20, 22, 18, 19, 20]
8.873[21, 21, 18, 21, 22, 18, 20, 18]
8.894[21, 23, 18, 23, 21, 19, 22, 23]
8.916[19, 23, 20, 22, 23, 19, 23, 24]
8.933[19, 22, 19, 24, 23, 20, 24, 25]
8.954[22, 21, 19, 21, 20, 19, 23, 24]
8.977[22, 21, 22, 21, 22, 20, 22, 22]
8.994[22, 18, 21, 20, 23, 19, 17, 17]
9.015[22, 19, 20, 20, 22, 18, 17, 16]
9.038[23, 20, 21, 19, 21, 20, 18, 17]
9.053[18, 21, 21, 19, 21, 19, 19, 18]
9.075[21, 22, 18, 18, 21, 19, 19, 20]
9.097[21, 21, 19, 20, 21, 18, 19, 20]
9.12[21, 21, 20, 22, 23, 18, 17, 19]
9.134[21, 23, 19, 23, 23, 17, 16, 20]
9.157[23, 22, 21, 25, 23, 18, 16, 19]
9.179[19, 21, 21, 26, 22, 18, 14, 17]
9.194[22, 23, 23, 24, 21, 18, 14, 16]
9.217[22, 23, 23, 21, 19, 17, 15, 16]
9.239[23, 21, 24, 21, 21, 18, 19, 23]
9.254[22, 21, 22, 19, 21, 16, 21, 28]
9.276[23, 21, 22, 20, 22, 17, 23, 32]
9.299[23, 22, 21, 20, 22, 18, 24, 32]
9.314[23, 22, 20, 22, 22, 19, 23, 32]
9.337[20, 23, 19, 22, 21, 18, 23, 26]
9.359[22, 24, 19, 22, 22, 18, 21, 21]
9.374[22, 25, 19, 22, 22, 18, 19, 17]
9.397[19, 23, 20, 21, 21, 18, 20, 16]
9.419[20, 23, 20, 19, 20, 18, 20, 17]
9.435[20, 21, 20, 19, 21, 19, 18, 19]
9.456[19, 22, 20, 18, 18, 18, 19, 18]
9.479[17, 21, 20, 20, 17, 19, 18, 19]
9.494[16, 21, 20, 20, 17, 22, 18, 20]
9.516[16, 21, 19, 20, 20, 23, 19, 21]
9.539[17, 23, 19, 22, 21, 22, 18, 22]
9.554[19, 21, 20, 21, 21, 23, 19, 23]
9.577[20, 23, 21, 19, 21, 22, 19, 19]
9.599[22, 23, 20, 18, 23, 18, 17, 19]
9.614[22, 23, 23, 19, 21, 17, 16, 18]
9.637[23, 22, 24, 16, 22, 19, 19, 16]
9.659[22, 23, 23, 18, 22, 21, 19, 14]
9.674[22, 23, 22, 18, 22, 24, 19, 17]
9.697[21, 22, 23, 18, 20, 24, 20, 19]
9.719[23, 22, 21, 19, 21, 25, 21, 19]
9.734[22, 22, 21, 19, 20, 24, 18, 18]
9.757[23, 22, 22, 17, 21, 21, 16, 19]
9.779[22, 23, 21, 21, 23, 19, 16, 17]
9.794[21, 23, 20, 23, 23, 17, 16, 18]
9.816[20, 24, 22, 21, 23, 18, 15, 19]
9.839[21, 25, 22, 25, 23, 17, 17, 23]
9.854[17, 24, 21, 25, 23, 20, 18, 22]
9.877[20, 25, 22, 22, 21, 20, 19, 25]
9.908[20, 25, 23, 21, 23, 20, 18, 23]
9.916[20, 23, 22, 24, 21, 22, 18, 22]
9.936[20, 22, 21, 19, 21, 22, 18, 19]
9.959[21, 26, 23, 20, 20, 21, 18, 20]
9.974[19, 22, 24, 21, 21, 21, 19, 18]
9.997[20, 23, 23, 22, 21, 19, 20, 18]
10.019[19, 27, 25, 20, 21, 18, 21, 20]
10.042[19, 26, 25, 20, 21, 18, 21, 19]
10.056[18, 23, 26, 25, 24, 20, 24, 18]
10.079[22, 25, 25, 28, 24, 21, 23, 20]
10.102[23, 31, 29, 39, 78, 27, 24, 24]
10.116[30, 37, 52, 106, 173, 53, 37, 29]
10.139[41, 59, 79, 177, 326, 94, 57, 41]
10.162[44, 65, 84, 193, 344, 99, 61, 45]
10.176[43, 66, 86, 201, 349, 101, 64, 67]
10.199[42, 65, 87, 226, 353, 106, 65, 82]
10.221[46, 67, 84, 269, 349, 104, 69, 99]
10.236[43, 62, 74, 249, 264, 89, 68, 107]
10.259[44, 60, 73, 310, 262, 94, 68, 118]
10.282[48, 65, 77, 348, 281, 98, 74, 156]
10.297[54, 74, 86, 386, 284, 98, 79, 150]
10.319[58, 83, 104, 376, 398, 137, 89, 155]
10.342[61, 86, 110, 386, 421, 142, 94, 151]
10.357[66, 95, 133, 386, 455, 163, 105, 159]
10.379[66, 96, 148, 405, 530, 176, 105, 237]
10.402[71, 104, 161, 403, 590, 204, 120, 253]
10.417[83, 123, 169, 408, 528, 194, 134, 284]
10.439[82, 120, 166, 424, 559, 198, 133, 341]
10.462[85, 130, 182, 479, 641, 206, 131, 341]
10.477[117, 178, 255, 668, 814, 340, 199, 287]
10.499[130, 189, 273, 746, 865, 372, 219, 314]
10.521[130, 179, 274, 788, 958, 405, 235, 318]
10.545[181, 273, 449, 958, 1026, 497, 306, 477]
10.559[200, 293, 471, 1112, 1073, 551, 352, 491]
10.582[212, 310, 510, 1096, 1059, 579, 355, 496]
10.598[210, 322, 582, 1089, 1107, 596, 351, 477]
10.619[213, 337, 621, 1090, 1084, 608, 350, 470]
10.642[185, 292, 552, 1038, 1044, 559, 318, 272]
10.664[173, 275, 539, 877, 969, 522, 291, 255]
10.679[168, 251, 495, 868, 915, 477, 311, 304]
10.701[163, 239, 460, 853, 850, 461, 303, 308]
10.716[154, 221, 420, 830, 805, 429, 286, 297]
10.739[136, 189, 381, 731, 789, 415, 264, 286]
10.761[141, 208, 419, 738, 822, 414, 256, 291]
10.777[114, 190, 399, 681, 765, 387, 191, 219]
10.799[113, 176, 328, 650, 750, 352, 196, 203]
10.823[116, 174, 311, 693, 787, 357, 202, 241]
10.836[137, 200, 326, 766, 833, 370, 214, 265]
10.859[136, 198, 311, 789, 805, 404, 224, 252]
10.881[137, 203, 304, 793, 808, 377, 230, 259]
10.905[140, 205, 305, 789, 772, 369, 232, 261]
10.919[137, 198, 297, 744, 739, 351, 224, 205]
10.942[118, 172, 262, 665, 664, 319, 205, 145]
10.956[112, 157, 228, 654, 687, 257, 188, 143]
10.979[96, 138, 221, 644, 625, 237, 163, 114]
11.001[102, 143, 228, 663, 635, 242, 166, 119]
11.025[102, 148, 228, 649, 614, 239, 161, 117]
11.04[105, 147, 228, 673, 592, 252, 165, 121]
11.062[88, 119, 201, 636, 595, 252, 142, 98]
11.085[93, 120, 203, 562, 659, 282, 152, 103]
11.099[75, 97, 190, 506, 616, 274, 127, 90]
11.121[74, 89, 187, 526, 619, 278, 131, 94]
11.145[65, 83, 181, 458, 616, 256, 114, 85]
11.159[63, 77, 149, 377, 604, 222, 107, 84]
11.182[61, 91, 190, 442, 541, 191, 91, 78]
11.204[59, 95, 181, 470, 560, 183, 82, 64]
11.219[65, 101, 186, 456, 553, 190, 97, 72]
11.242[76, 111, 213, 490, 590, 199, 115, 86]
11.272[79, 121, 221, 504, 511, 205, 123, 90]
11.279[84, 123, 195, 527, 541, 227, 146, 103]
11.302[83, 121, 193, 515, 537, 303, 162, 108]
11.324[81, 118, 197, 531, 568, 299, 154, 102]
11.339[72, 109, 171, 507, 556, 300, 146, 92]
11.361[68, 100, 161, 531, 615, 301, 139, 85]
11.385[63, 84, 148, 513, 652, 281, 125, 77]
11.399[68, 99, 190, 581, 762, 226, 116, 77]
11.421[64, 102, 193, 601, 763, 230, 112, 73]
11.445[68, 108, 207, 601, 772, 247, 118, 77]
11.459[74, 115, 221, 598, 740, 252, 125, 86]
11.481[68, 111, 211, 531, 696, 248, 124, 83]
11.504[64, 98, 173, 429, 613, 259, 119, 79]
11.519[61, 88, 155, 376, 600, 261, 119, 78]
11.542[64, 92, 152, 370, 560, 268, 121, 84]
11.566[56, 79, 137, 332, 536, 275, 113, 75]
11.579[53, 79, 140, 321, 552, 292, 104, 68]
11.601[55, 80, 148, 376, 536, 264, 97, 68]
11.625[56, 83, 151, 357, 488, 246, 93, 69]
11.639[48, 69, 132, 368, 498, 231, 76, 53]
11.661[48, 70, 124, 375, 529, 215, 73, 52]
11.692[48, 70, 123, 381, 470, 175, 70, 53]
11.699[44, 68, 114, 332, 478, 172, 68, 49]
11.721[42, 62, 106, 337, 528, 170, 67, 49]
11.745[40, 60, 111, 300, 496, 153, 65, 47]
11.759[41, 61, 126, 272, 457, 159, 65, 45]
11.782[40, 54, 117, 272, 454, 155, 60, 43]
11.812[40, 54, 125, 282, 412, 145, 57, 40]
11.819[55, 91, 182, 424, 391, 161, 73, 59]
11.841[58, 99, 209, 463, 408, 161, 70, 61]
11.864[57, 99, 201, 480, 433, 158, 70, 62]
11.887[62, 106, 215, 543, 455, 174, 82, 68]
11.902[62, 105, 210, 539, 468, 178, 86, 71]
11.925[52, 79, 162, 431, 467, 171, 72, 56]
11.947[48, 72, 119, 436, 459, 178, 76, 56]
11.961[69, 102, 149, 491, 474, 172, 108, 80]
11.985[69, 100, 146, 425, 486, 152, 105, 78]
12.007[73, 106, 160, 426, 474, 158, 116, 83]
12.021[90, 135, 190, 485, 582, 205, 144, 105]
12.044[90, 135, 191, 491, 588, 189, 142, 104]
12.067[81, 120, 174, 428, 582, 197, 131, 94]
12.09[79, 117, 164, 416, 550, 195, 127, 93]
12.105[74, 114, 163, 465, 525, 184, 113, 87]
12.127[57, 85, 164, 438, 439, 128, 81, 66]
12.142[57, 85, 161, 385, 450, 133, 83, 66]
12.165[54, 85, 167, 428, 452, 120, 70, 60]
12.187[52, 80, 165, 442, 477, 129, 67, 57]
12.202[53, 84, 170, 437, 533, 148, 73, 61]
12.225[51, 80, 146, 453, 533, 147, 72, 59]
12.248[53, 81, 149, 468, 525, 142, 73, 62]
12.262[50, 75, 140, 422, 504, 164, 74, 59]
12.284[51, 79, 148, 424, 504, 194, 83, 63]
12.307[57, 85, 143, 450, 456, 190, 89, 69]
12.322[56, 83, 131, 440, 406, 184, 88, 71]
12.344[52, 82, 144, 517, 397, 200, 83, 67]
12.367[50, 83, 137, 517, 416, 183, 80, 66]
12.382[47, 81, 132, 516, 422, 164, 76, 62]
12.405[38, 70, 124, 482, 421, 154, 69, 53]
12.427[36, 68, 121, 442, 418, 159, 68, 44]
12.441[46, 83, 134, 478, 450, 149, 79, 55]
12.464[54, 90, 143, 496, 456, 159, 84, 61]
12.487[61, 95, 143, 503, 446, 156, 88, 67]
12.501[63, 94, 135, 483, 499, 170, 88, 68]
12.525[65, 94, 147, 493, 478, 163, 86, 69]
12.547[58, 81, 125, 363, 447, 152, 75, 60]
12.561[51, 67, 116, 360, 416, 139, 65, 54]
12.585[46, 61, 119, 343, 418, 132, 60, 49]
12.607[42, 58, 122, 389, 322, 124, 60, 49]
12.622[38, 53, 110, 390, 344, 137, 63, 51]
12.644[37, 48, 106, 405, 379, 142, 65, 51]
12.667[46, 58, 112, 396, 404, 158, 75, 59]
12.681[42, 59, 116, 408, 415, 162, 73, 58]
12.704[41, 57, 117, 386, 422, 168, 69, 55]
12.727[41, 56, 114, 392, 426, 176, 65, 51]
12.741[43, 61, 128, 395, 506, 190, 65, 50]
12.765[35, 55, 121, 393, 504, 180, 59, 43]
12.787[35, 50, 116, 416, 481, 203, 61, 41]
12.801[36, 54, 111, 374, 534, 199, 63, 42]
12.825[37, 61, 121, 380, 546, 200, 59, 44]
12.847[36, 60, 117, 390, 475, 196, 66, 47]
12.87[41, 74, 137, 391, 501, 198, 68, 48]
12.885[60, 97, 137, 373, 534, 188, 86, 65]
12.907[64, 113, 139, 384, 488, 187, 85, 66]
12.929[63, 112, 133, 379, 597, 174, 86, 65]
12.945[65, 114, 125, 364, 582, 187, 83, 64]
12.967[62, 104, 115, 346, 572, 185, 82, 62]
12.99[54, 93, 122, 393, 648, 210, 77, 54]
13.004[52, 80, 151, 462, 670, 213, 77, 53]
13.027[51, 78, 153, 450, 541, 209, 79, 52]
13.049[47, 73, 157, 455, 530, 191, 77, 51]
13.064[46, 74, 179, 471, 571, 190, 74, 51]
13.087[45, 74, 184, 448, 469, 163, 71, 50]
13.111[44, 78, 173, 514, 452, 153, 73, 52]
13.125[43, 74, 167, 509, 469, 159, 70, 52]
13.147[45, 74, 162, 530, 513, 162, 72, 55]
13.17[50, 78, 151, 533, 425, 177, 73, 57]
13.185[45, 73, 140, 551, 435, 150, 63, 53]
13.207[45, 66, 142, 443, 424, 161, 61, 51]
13.229[50, 86, 160, 440, 443, 177, 74, 59]
13.244[52, 92, 167, 474, 401, 175, 76, 60]
13.267[52, 93, 156, 488, 426, 190, 80, 61]
13.29[58, 98, 158, 435, 416, 196, 88, 66]
13.304[60, 99, 151, 481, 425, 199, 90, 70]
13.327[55, 84, 131, 493, 408, 191, 82, 65]
13.35[59, 83, 133, 422, 484, 210, 89, 68]
13.364[57, 89, 135, 388, 464, 186, 91, 68]
13.387[54, 81, 146, 458, 490, 174, 87, 63]
13.41[60, 92, 161, 464, 595, 180, 97, 70]
13.431[61, 92, 171, 490, 642, 182, 96, 70]
13.447[58, 92, 177, 510, 623, 171, 90, 67]
13.469[56, 78, 167, 540, 620, 161, 82, 63]
13.491[55, 81, 164, 474, 597, 166, 79, 61]
13.508[43, 66, 167, 465, 506, 150, 61, 44]
13.529[44, 72, 166, 464, 471, 136, 65, 47]
13.552[42, 69, 159, 475, 472, 121, 61, 46]
13.568[42, 71, 174, 511, 520, 129, 62, 46]
13.589[38, 66, 173, 567, 546, 140, 59, 44]
13.611[41, 63, 158, 528, 525, 128, 61, 50]
13.628[39, 55, 149, 494, 482, 118, 55, 44]
13.649[40, 59, 147, 454, 468, 109, 54, 46]
13.671[43, 56, 132, 358, 420, 105, 55, 49]
13.688[47, 81, 123, 323, 391, 98, 63, 57]
13.709[46, 81, 117, 312, 374, 109, 60, 53]
13.731[46, 83, 119, 325, 419, 114, 63, 55]
13.748[46, 85, 131, 379, 406, 136, 65, 53]
13.769[42, 84, 126, 383, 395, 130, 65, 53]
13.785[54, 65, 128, 368, 383, 177, 103, 75]
13.808[56, 64, 127, 409, 379, 176, 106, 76]
13.829[70, 86, 149, 442, 371, 200, 125, 93]
13.852[79, 99, 147, 464, 402, 205, 137, 100]
13.868[83, 107, 147, 470, 421, 209, 143, 104]
13.889[78, 108, 149, 466, 472, 179, 126, 91]
13.911[80, 108, 146, 463, 507, 190, 130, 93]
13.928[68, 91, 125, 421, 480, 168, 112, 76]
13.949[57, 82, 129, 430, 581, 190, 107, 73]
13.971[59, 80, 135, 455, 603, 199, 104, 72]
13.988[56, 79, 132, 440, 583, 193, 92, 65]
14.009[49, 77, 137, 388, 567, 182, 80, 58]
14.031[48, 74, 140, 386, 575, 183, 78, 57]
14.046[58, 83, 144, 383, 507, 190, 84, 61]
14.069[55, 81, 144, 365, 490, 196, 88, 60]
14.091[54, 81, 153, 430, 527, 205, 86, 62]
14.106[54, 79, 147, 439, 533, 207, 88, 64]
14.129[54, 81, 148, 456, 539, 211, 91, 64]
14.151[42, 66, 150, 391, 505, 180, 76, 56]
14.166[37, 61, 158, 421, 513, 171, 64, 52]
14.189[34, 53, 147, 349, 444, 148, 59, 47]
14.211[33, 57, 157, 351, 484, 142, 56, 45]
14.226[35, 56, 155, 348, 481, 132, 52, 47]
14.249[31, 50, 131, 340, 486, 117, 44, 37]
14.271[31, 53, 119, 292, 468, 99, 42, 33]
14.286[35, 61, 126, 313, 473, 113, 52, 40]
14.31[37, 58, 114, 319, 419, 113, 52, 42]
14.331[39, 64, 117, 370, 518, 135, 61, 47]
14.346[38, 63, 114, 376, 506, 150, 61, 47]
14.369[42, 69, 124, 378, 565, 159, 66, 51]
14.391[41, 64, 110, 355, 562, 166, 61, 48]
14.406[41, 64, 114, 343, 556, 171, 64, 49]
14.429[43, 65, 133, 284, 464, 152, 56, 45]
14.451[45, 66, 144, 360, 442, 133, 55, 46]
14.466[41, 59, 141, 380, 400, 125, 50, 45]
14.489[45, 65, 142, 410, 410, 128, 66, 51]
14.511[46, 79, 174, 409, 402, 121, 68, 51]
14.526[46, 80, 162, 410, 422, 142, 76, 53]
14.55[48, 79, 155, 332, 427, 154, 77, 51]
14.571[48, 75, 142, 291, 393, 153, 77, 51]
14.586[43, 71, 150, 308, 396, 154, 64, 41]
14.609[43, 57, 107, 336, 464, 174, 64, 44]
14.631[44, 67, 125, 384, 449, 156, 60, 47]
14.646[44, 73, 132, 406, 422, 149, 63, 52]
14.669[47, 76, 144, 446, 450, 154, 61, 52]
14.691[47, 74, 140, 416, 445, 142, 63, 56]
14.706[49, 74, 142, 386, 379, 133, 62, 55]
14.729[45, 59, 120, 345, 391, 138, 61, 51]
14.752[44, 52, 117, 333, 459, 137, 55, 46]
14.774[40, 51, 104, 316, 434, 130, 57, 45]
14.789[40, 53, 107, 325, 409, 130, 60, 44]
14.811[39, 53, 104, 328, 422, 124, 60, 45]
14.834[36, 49, 102, 294, 391, 117, 57, 41]
14.849[37, 48, 98, 296, 326, 138, 62, 43]
14.871[44, 59, 134, 313, 412, 150, 68, 49]
14.894[43, 57, 131, 292, 409, 161, 64, 49]
14.909[40, 54, 133, 332, 422, 153, 61, 43]
14.931[45, 64, 134, 348, 431, 167, 66, 47]
14.954[49, 70, 135, 347, 474, 170, 73, 54]
14.969[45, 66, 117, 347, 426, 160, 72, 51]
14.991[46, 68, 115, 340, 430, 139, 71, 52]
15.014[56, 80, 116, 309, 423, 156, 81, 60]
15.029[54, 77, 108, 289, 435, 142, 75, 58]
15.051[53, 75, 111, 366, 459, 123, 74, 61]
15.074[50, 70, 105, 355, 430, 119, 68, 59]
15.089[60, 88, 136, 400, 431, 145, 88, 70]
15.111[52, 79, 140, 394, 407, 123, 79, 63]
15.134[59, 96, 175, 425, 401, 156, 94, 70]
15.15[56, 92, 167, 344, 311, 150, 87, 60]
15.171[59, 96, 167, 352, 386, 154, 91, 63]
15.194[53, 82, 145, 338, 401, 139, 78, 53]
15.209[73, 113, 192, 447, 549, 183, 109, 79]
15.231[69, 101, 168, 434, 557, 165, 106, 79]
15.254[70, 103, 172, 445, 551, 173, 108, 81]
15.269[69, 103, 168, 415, 496, 166, 105, 80]
15.291[71, 106, 169, 399, 544, 166, 103, 80]
15.314[51, 80, 140, 387, 417, 124, 70, 57]
15.336[49, 78, 134, 388, 509, 135, 65, 55]
15.351[45, 75, 137, 371, 529, 130, 61, 51]
15.374[45, 71, 151, 372, 529, 129, 59, 50]
15.389[39, 63, 148, 360, 488, 135, 58, 46]
15.411[39, 56, 114, 246, 486, 140, 57, 46]
15.434[36, 49, 113, 240, 362, 118, 46, 36]
15.449[41, 57, 116, 325, 366, 161, 53, 42]
15.471[42, 60, 109, 363, 376, 168, 61, 46]
15.494[44, 65, 133, 432, 417, 166, 66, 49]
15.509[41, 67, 156, 489, 427, 162, 66, 46]
15.531[46, 71, 162, 556, 474, 169, 71, 49]
15.554[43, 69, 161, 516, 444, 132, 67, 47]
15.569[40, 67, 151, 495, 438, 136, 60, 41]
15.591[41, 70, 163, 508, 456, 132, 60, 42]
15.614[47, 68, 148, 485, 442, 130, 67, 48]
15.629[45, 67, 160, 448, 470, 146, 67, 47]
15.651[45, 65, 157, 447, 472, 137, 67, 47]
15.674[54, 80, 188, 448, 516, 143, 71, 54]
15.696[53, 80, 178, 400, 476, 150, 75, 55]
15.711[50, 80, 180, 372, 493, 158, 69, 52]
15.735[48, 79, 169, 313, 415, 138, 66, 51]
15.756[49, 80, 174, 310, 431, 144, 66, 52]
15.779[40, 63, 143, 323, 424, 138, 64, 48]
15.794[35, 48, 116, 276, 405, 125, 51, 41]
15.816[35, 51, 124, 280, 396, 135, 61, 43]
15.831[37, 53, 126, 312, 427, 141, 59, 44]
15.854[36, 55, 130, 344, 427, 141, 58, 41]
15.877[40, 59, 127, 315, 415, 139, 61, 46]
15.891[41, 63, 132, 316, 420, 138, 65, 50]
15.914[36, 56, 117, 287, 436, 126, 50, 46]
15.937[34, 55, 111, 264, 421, 116, 51, 44]
15.951[42, 63, 104, 369, 413, 112, 58, 50]
15.974[41, 64, 118, 407, 367, 103, 53, 45]
15.997[42, 68, 125, 419, 363, 103, 52, 43]
16.011[43, 69, 127, 423, 404, 94, 56, 43]
16.034[44, 69, 134, 428, 436, 94, 60, 45]
16.065[35, 58, 131, 317, 441, 94, 51, 36]
16.071[34, 56, 132, 283, 460, 107, 56, 37]
16.094[31, 50, 119, 273, 477, 118, 58, 40]
16.117[37, 60, 124, 313, 511, 121, 60, 44]
16.131[37, 60, 120, 293, 494, 118, 58, 45]
16.154[37, 58, 113, 336, 485, 113, 58, 45]
16.177[35, 55, 104, 330, 527, 106, 56, 42]
16.191[38, 59, 121, 333, 497, 104, 53, 38]
16.214[35, 56, 131, 330, 416, 104, 52, 36]
16.237[41, 65, 145, 473, 442, 118, 64, 45]
16.251[45, 74, 151, 443, 444, 126, 70, 50]
16.274[47, 76, 153, 505, 408, 129, 72, 52]
16.297[51, 82, 152, 525, 452, 132, 79, 57]
16.311[48, 76, 132, 505, 419, 125, 75, 56]
16.334[44, 66, 113, 405, 376, 131, 69, 50]
16.357[38, 61, 105, 465, 382, 128, 64, 46]
16.371[67, 95, 114, 541, 455, 163, 118, 87]
16.394[66, 90, 98, 519, 420, 157, 117, 86]
16.417[66, 90, 100, 512, 440, 160, 118, 86]
16.431[65, 92, 116, 494, 433, 148, 116, 85]
16.454[70, 98, 125, 512, 535, 188, 123, 90]
16.477[54, 80, 121, 433, 532, 179, 92, 67]
16.492[51, 77, 128, 432, 532, 176, 88, 64]
16.514[56, 82, 138, 441, 547, 180, 89, 68]
16.537[55, 79, 121, 440, 535, 178, 89, 68]
16.551[50, 69, 108, 367, 473, 138, 79, 62]
16.574[41, 52, 95, 321, 403, 107, 57, 45]
16.597[44, 59, 100, 386, 459, 142, 62, 46]
16.611[39, 52, 86, 384, 426, 140, 63, 48]
16.634[39, 54, 89, 374, 433, 145, 62, 47]
16.658[38, 52, 91, 359, 370, 141, 56, 45]
16.687[33, 49, 93, 315, 362, 143, 50, 44]
16.702[49, 77, 158, 437, 382, 134, 68, 60]
16.717[51, 82, 168, 504, 406, 136, 76, 59]
16.739[52, 82, 169, 523, 422, 136, 78, 60]
16.754[52, 82, 168, 513, 421, 134, 78, 62]
16.784[53, 82, 166, 512, 401, 133, 78, 60]
16.799[47, 62, 102, 474, 516, 138, 80, 54]
16.814[48, 62, 89, 425, 517, 142, 78, 51]
16.837[50, 68, 89, 418, 510, 150, 81, 55]
16.859[50, 70, 92, 417, 514, 150, 81, 53]
16.874[49, 70, 101, 419, 518, 143, 82, 53]
16.897[39, 65, 101, 290, 349, 114, 63, 47]
16.919[41, 67, 112, 303, 371, 104, 60, 46]
16.934[43, 66, 115, 293, 413, 94, 65, 50]
16.957[45, 66, 113, 359, 422, 111, 70, 55]
16.98[45, 65, 102, 370, 419, 111, 70, 55]
16.994[44, 60, 99, 403, 386, 117, 66, 50]
17.017[38, 53, 85, 390, 346, 110, 62, 47]
17.039[32, 45, 76, 410, 289, 104, 51, 37]
17.054[31, 44, 93, 427, 333, 97, 48, 32]
17.077[35, 58, 108, 418, 319, 107, 54, 39]
17.099[37, 61, 113, 415, 390, 103, 53, 41]
17.114[36, 64, 130, 435, 491, 116, 56, 43]
17.137[37, 69, 146, 423, 536, 130, 55, 42]
17.159[39, 68, 139, 365, 520, 130, 51, 40]
17.174[36, 58, 131, 358, 528, 123, 44, 33]
17.197[35, 56, 122, 304, 476, 117, 45, 32]
17.219[34, 50, 110, 282, 393, 107, 38, 30]
17.242[32, 46, 95, 304, 352, 94, 41, 32]
17.257[31, 50, 102, 296, 378, 85, 41, 34]
17.279[28, 47, 98, 315, 432, 90, 42, 34]
17.294[30, 55, 116, 334, 434, 101, 44, 38]
17.317[31, 55, 112, 342, 478, 114, 48, 40]
17.339[35, 54, 112, 339, 513, 125, 50, 41]
17.354[35, 52, 109, 344, 493, 134, 55, 41]
17.377[45, 70, 142, 411, 483, 156, 65, 47]
17.399[44, 65, 131, 410, 516, 155, 68, 46]
17.414[44, 69, 134, 406, 458, 147, 66, 45]
17.437[44, 74, 148, 422, 421, 148, 68, 46]
17.459[47, 80, 166, 429, 425, 143, 68, 48]
17.482[40, 69, 153, 444, 408, 120, 62, 43]
17.497[38, 66, 151, 435, 373, 114, 55, 41]
17.519[41, 66, 154, 459, 362, 105, 55, 40]
17.534[39, 60, 138, 447, 351, 90, 50, 38]
17.557[38, 53, 122, 460, 438, 114, 51, 43]
17.579[38, 52, 115, 438, 460, 135, 54, 48]
17.602[39, 53, 118, 456, 492, 146, 58, 49]
17.617[34, 45, 108, 408, 521, 154, 55, 47]
17.639[33, 44, 105, 390, 575, 170, 54, 47]
17.662[30, 43, 89, 356, 496, 151, 48, 40]
17.677[31, 44, 98, 296, 468, 149, 46, 34]
17.7[35, 50, 112, 281, 450, 152, 50, 38]
17.722[38, 55, 112, 281, 428, 149, 52, 42]
17.737[37, 55, 122, 280, 378, 130, 53, 41]
17.76[37, 55, 120, 302, 398, 130, 54, 41]
17.782[35, 52, 105, 275, 425, 110, 53, 43]
17.797[37, 54, 88, 271, 442, 106, 61, 49]
17.819[34, 51, 93, 276, 467, 111, 61, 49]
17.842[34, 53, 91, 346, 451, 108, 61, 49]
17.857[35, 56, 101, 328, 442, 113, 60, 49]
17.88[34, 55, 106, 328, 434, 117, 57, 45]
17.902[30, 55, 117, 349, 424, 104, 45, 36]
17.917[32, 55, 115, 356, 391, 91, 43, 31]
17.94[32, 51, 103, 268, 387, 87, 41, 32]
17.962[30, 50, 123, 254, 363, 81, 40, 32]
17.977[30, 50, 122, 265, 338, 71, 38, 32]
17.999[27, 41, 111, 236, 367, 78, 33, 27]
18.022[28, 40, 120, 238, 388, 104, 37, 28]
18.037[27, 39, 126, 258, 389, 105, 36, 26]
18.059[28, 43, 109, 276, 391, 105, 37, 30]
18.081[30, 42, 111, 302, 398, 110, 40, 33]
18.096[32, 46, 117, 288, 387, 121, 44, 37]
18.119[33, 50, 105, 312, 386, 112, 48, 40]
18.142[37, 55, 108, 311, 422, 125, 52, 42]
18.156[39, 55, 99, 310, 422, 123, 53, 44]
18.179[38, 55, 91, 298, 406, 125, 54, 42]
18.202[39, 62, 110, 332, 389, 115, 52, 41]
18.216[41, 69, 128, 346, 396, 113, 51, 44]
18.24[44, 71, 137, 384, 410, 104, 55, 45]
18.262[44, 72, 145, 424, 468, 114, 56, 41]
18.276[45, 75, 157, 418, 484, 117, 59, 49]
18.299[42, 67, 153, 412, 485, 116, 58, 48]
18.322[41, 60, 140, 372, 492, 111, 60, 45]
18.337[36, 55, 127, 339, 489, 115, 55, 41]
18.36[33, 48, 117, 291, 437, 108, 53, 42]
18.382[33, 47, 104, 294, 414, 99, 52, 35]
18.396[35, 49, 85, 293, 450, 105, 59, 39]
18.42[39, 57, 109, 353, 470, 119, 61, 42]
18.442[39, 57, 104, 344, 421, 119, 62, 42]
18.464[42, 58, 107, 344, 408, 115, 63, 43]
18.48[41, 55, 103, 334, 456, 130, 62, 45]
18.501[40, 53, 103, 355, 457, 119, 55, 43]
18.524[36, 49, 100, 333, 393, 112, 53, 44]
18.54[37, 51, 113, 428, 520, 120, 56, 47]
18.561[34, 51, 114, 454, 566, 126, 57, 46]
18.583[32, 53, 127, 446, 542, 124, 53, 43]
18.6[39, 71, 158, 431, 499, 125, 56, 47]
18.621[46, 74, 150, 439, 544, 130, 60, 47]
18.643[44, 70, 145, 348, 441, 120, 56, 44]
18.66[46, 71, 145, 309, 427, 119, 55, 45]
18.681[48, 72, 144, 308, 422, 109, 63, 48]
18.704[42, 55, 112, 282, 411, 102, 60, 43]
18.72[32, 43, 106, 341, 362, 89, 52, 38]
18.741[34, 49, 106, 355, 324, 83, 57, 42]
18.763[35, 52, 102, 354, 329, 86, 57, 42]
18.78[36, 55, 98, 394, 345, 91, 55, 42]
18.801[43, 59, 99, 450, 393, 105, 63, 47]
18.824[42, 61, 111, 412, 417, 102, 61, 46]
18.84[43, 57, 114, 424, 452, 110, 59, 43]
18.861[44, 61, 133, 460, 440, 103, 64, 47]
18.884[47, 60, 126, 486, 483, 109, 60, 45]
18.9[40, 53, 124, 434, 441, 101, 51, 38]
18.921[43, 53, 111, 397, 405, 105, 52, 42]
18.945[42, 54, 110, 379, 418, 108, 50, 42]
18.96[41, 50, 109, 401, 440, 127, 50, 40]
18.981[40, 52, 115, 332, 369, 153, 55, 43]
19.004[43, 54, 110, 329, 368, 154, 57, 46]
19.02[40, 50, 110, 308, 378, 151, 56, 43]
19.042[48, 59, 113, 335, 440, 156, 70, 52]
19.064[47, 61, 112, 250, 424, 164, 64, 50]
19.08[43, 56, 109, 267, 454, 132, 61, 45]
19.101[43, 58, 123, 298, 506, 140, 67, 48]
19.124[47, 64, 136, 334, 561, 143, 71, 52]
19.14[40, 55, 126, 315, 488, 138, 58, 42]
19.162[37, 47, 109, 329, 516, 117, 59, 42]
19.185[38, 54, 117, 322, 516, 126, 58, 43]
19.2[39, 56, 134, 316, 476, 116, 56, 38]
19.221[37, 53, 120, 291, 417, 118, 58, 41]
19.244[34, 52, 119, 260, 403, 109, 56, 39]
19.26[36, 54, 121, 229, 354, 102, 56, 41]
19.283[36, 54, 130, 290, 402, 105, 57, 43]
19.304[32, 50, 107, 278, 392, 105, 51, 42]
19.32[31, 48, 103, 265, 410, 107, 51, 42]
19.341[35, 53, 116, 310, 453, 116, 54, 44]
19.363[37, 62, 128, 388, 444, 135, 59, 47]
19.38[38, 59, 149, 398, 371, 131, 61, 46]
19.402[41, 65, 152, 407, 465, 148, 61, 47]
19.424[40, 65, 155, 424, 452, 145, 57, 42]
19.44[38, 63, 146, 391, 405, 144, 54, 41]
19.462[35, 52, 140, 332, 402, 130, 47, 37]
19.484[31, 50, 112, 261, 418, 125, 43, 35]
19.506[30, 47, 116, 263, 342, 122, 45, 34]
19.521[32, 51, 116, 240, 367, 118, 43, 34]
19.544[37, 59, 139, 366, 393, 119, 54, 41]
19.566[40, 65, 144, 412, 405, 128, 59, 41]
19.581[39, 62, 133, 418, 394, 126, 61, 41]
19.604[41, 62, 128, 407, 376, 109, 64, 46]
19.626[41, 58, 125, 406, 335, 112, 67, 48]
19.641[40, 57, 114, 389, 401, 106, 60, 44]
19.664[38, 51, 102, 354, 397, 98, 58, 47]
19.686[39, 55, 123, 465, 434, 113, 55, 47]
19.701[34, 52, 121, 491, 450, 129, 51, 42]
19.724[33, 52, 120, 492, 464, 127, 47, 38]
19.746[27, 42, 111, 433, 383, 119, 44, 35]
19.761[28, 43, 113, 439, 368, 113, 40, 29]
19.785[35, 43, 96, 332, 382, 115, 44, 30]
19.806[37, 54, 110, 331, 368, 98, 48, 31]
19.821[38, 61, 112, 384, 424, 130, 53, 36]
19.844[40, 63, 116, 372, 426, 133, 54, 38]
19.866[46, 76, 134, 412, 453, 135, 65, 46]
19.882[47, 79, 129, 413, 421, 143, 65, 49]
19.903[45, 70, 108, 392, 474, 150, 63, 48]
19.926[44, 67, 109, 340, 428, 134, 61, 50]
19.941[46, 69, 110, 392, 444, 139, 59, 53]
19.964[39, 55, 83, 326, 411, 137, 48, 48]
19.986[33, 49, 79, 288, 371, 109, 43, 43]
20.001[31, 48, 80, 266, 262, 95, 37, 42]
20.024[32, 45, 79, 261, 217, 73, 32, 37]
20.046[29, 45, 66, 163, 223, 70, 31, 37]
20.061[28, 42, 60, 135, 206, 70, 30, 37]
20.084[25, 38, 61, 133, 203, 79, 30, 37]
20.106[25, 40, 68, 127, 197, 80, 30, 39]
20.121[22, 41, 62, 117, 184, 86, 32, 34]
20.144[20, 31, 59, 118, 104, 85, 30, 26]
20.166[18, 30, 55, 93, 79, 84, 26, 22]
20.181[20, 29, 49, 89, 76, 71, 26, 21]
20.204[20, 47, 33, 78, 74, 88, 27, 18]
20.226[20, 74, 32, 64, 71, 87, 30, 18]
20.241[20, 75, 33, 52, 53, 125, 35, 24]
20.264[21, 74, 32, 50, 51, 125, 36, 34]
20.286[25, 75, 31, 42, 45, 127, 51, 53]
20.302[27, 71, 30, 40, 40, 115, 54, 59]
20.324[28, 40, 26, 38, 36, 111, 51, 63]
20.346[27, 37, 19, 25, 27, 56, 49, 61]
20.361[27, 37, 20, 26, 31, 56, 49, 58]
20.384[24, 36, 19, 28, 27, 49, 33, 42]
20.406[21, 21, 16, 27, 27, 46, 27, 32]
20.429[19, 22, 16, 28, 27, 46, 26, 26]
20.452[19, 23, 19, 28, 26, 37, 20, 25]
20.466[18, 24, 18, 24, 22, 29, 18, 22]
20.489[18, 24, 18, 20, 24, 26, 19, 22]
20.504[18, 21, 20, 20, 23, 26, 20, 23]
20.526[18, 22, 22, 20, 25, 22, 21, 21]
20.548[19, 22, 23, 20, 25, 22, 24, 21]
20.564[20, 22, 27, 20, 24, 21, 26, 21]
20.586[20, 29, 27, 21, 24, 24, 24, 17]
20.609[21, 32, 25, 21, 24, 23, 22, 15]
20.624[21, 31, 25, 22, 22, 25, 22, 16]
20.646[21, 31, 24, 21, 21, 24, 22, 15]
20.669[21, 31, 21, 23, 21, 25, 21, 15]
20.684[21, 25, 21, 23, 22, 30, 21, 16]
20.706[20, 23, 22, 22, 22, 32, 22, 17]
20.729[20, 21, 21, 22, 25, 31, 27, 20]
20.743[19, 19, 20, 22, 28, 31, 25, 22]
20.766[18, 20, 19, 20, 33, 32, 24, 23]
20.788[18, 20, 19, 21, 33, 29, 24, 23]
20.803[22, 20, 22, 21, 34, 27, 24, 22]
20.826[24, 21, 21, 20, 36, 28, 19, 20]
20.849[22, 22, 20, 21, 34, 28, 18, 17]
20.864[22, 22, 21, 20, 30, 27, 19, 16]
20.886[22, 22, 25, 21, 26, 23, 21, 16]
20.908[20, 22, 22, 20, 26, 25, 21, 17]
20.923[18, 23, 22, 20, 24, 25, 20, 17]
20.946[21, 23, 23, 20, 31, 28, 20, 17]
20.969[21, 22, 23, 22, 31, 28, 20, 18]
20.983[21, 22, 19, 21, 32, 31, 20, 19]
21.006[20, 22, 21, 23, 31, 34, 19, 19]
21.029[22, 20, 20, 22, 31, 34, 20, 21]
21.044[19, 19, 20, 20, 26, 32, 22, 21]
21.066[19, 21, 21, 20, 31, 32, 21, 22]
21.089[18, 20, 21, 20, 35, 30, 21, 20]
21.105[20, 19, 20, 18, 34, 24, 21, 18]
21.126[18, 21, 21, 19, 32, 23, 20, 17]
21.148[20, 21, 21, 20, 34, 23, 18, 18]
21.163[21, 20, 19, 20, 29, 20, 19, 19]
21.186[22, 22, 21, 22, 22, 21, 17, 19]
21.208[20, 22, 22, 22, 23, 22, 17, 19]
21.224[22, 21, 21, 22, 23, 21, 16, 19]
21.247[21, 24, 22, 20, 26, 22, 20, 19]
21.268[20, 23, 21, 20, 28, 22, 19, 18]
21.283[20, 21, 20, 21, 30, 21, 19, 20]
21.306[20, 24, 19, 22, 29, 19, 20, 20]
21.329[20, 25, 21, 21, 30, 20, 20, 19]
21.343[22, 25, 20, 23, 26, 19, 19, 22]
21.366[23, 25, 22, 24, 25, 20, 18, 23]
21.389[23, 25, 22, 23, 23, 21, 20, 22]
21.413[22, 21, 21, 23, 31, 21, 19, 22]
21.426[22, 23, 24, 29, 35, 24, 21, 24]
21.449[20, 19, 23, 31, 35, 24, 19, 21]
21.472[19, 20, 23, 32, 37, 24, 20, 23]
21.486[20, 22, 24, 32, 36, 25, 19, 22]
21.509[20, 23, 24, 32, 31, 24, 19, 23]
21.532[20, 20, 21, 28, 28, 22, 19, 20]
21.546[21, 21, 23, 26, 26, 21, 19, 20]
21.569[20, 21, 23, 24, 26, 21, 20, 18]
21.592[19, 19, 23, 23, 30, 19, 20, 19]
21.606[21, 20, 23, 22, 32, 21, 21, 19]
21.63[21, 23, 24, 20, 32, 20, 20, 19]
21.652[21, 22, 24, 22, 38, 21, 22, 20]
21.666[21, 22, 22, 20, 38, 20, 21, 18]
21.689[20, 23, 22, 21, 37, 19, 22, 20]
21.712[17, 26, 21, 21, 35, 16, 20, 20]
21.726[19, 23, 19, 22, 35, 17, 18, 20]
21.749[19, 24, 18, 21, 33, 19, 18, 21]
21.779[21, 24, 18, 22, 32, 21, 18, 23]
21.786[21, 23, 16, 21, 29, 21, 16, 21]
21.809[23, 22, 18, 21, 30, 23, 18, 23]
21.832[21, 23, 20, 21, 29, 21, 20, 25]
21.846[22, 22, 21, 21, 23, 18, 18, 23]
21.869[21, 23, 21, 20, 23, 19, 22, 22]
21.892[22, 23, 23, 20, 25, 19, 21, 23]
21.907[20, 20, 21, 20, 24, 18, 23, 21]
21.929[23, 21, 22, 19, 27, 19, 22, 19]
21.952[21, 20, 21, 19, 27, 20, 22, 19]
21.966[21, 20, 21, 19, 27, 20, 18, 17]
21.989[22, 21, 19, 18, 26, 20, 20, 17]
22.012[33, 22, 21, 18, 27, 20, 19, 25]
22.026[33, 21, 21, 19, 23, 20, 20, 25]
22.05[35, 23, 21, 19, 26, 21, 21, 25]
22.072[35, 23, 20, 19, 28, 21, 20, 25]
22.086[34, 22, 24, 20, 28, 21, 20, 26]
22.11[24, 23, 22, 21, 28, 20, 20, 19]
22.132[21, 24, 23, 19, 30, 19, 19, 20]
22.154[20, 22, 23, 19, 27, 17, 18, 22]
22.169[19, 20, 26, 19, 25, 14, 19, 22]
22.199[20, 20, 22, 21, 27, 16, 18, 21]
22.206[20, 19, 22, 19, 31, 17, 21, 20]
22.237[21, 18, 22, 20, 31, 18, 22, 19]
22.252[19, 17, 23, 22, 34, 19, 22, 18]
22.282[22, 18, 21, 21, 33, 20, 22, 19]
22.289[21, 19, 22, 20, 33, 19, 24, 19]
22.312[20, 17, 23, 19, 28, 18, 22, 20]
22.334[20, 18, 22, 18, 26, 17, 23, 20]
22.349[21, 21, 21, 17, 28, 17, 22, 23]
22.372[18, 22, 21, 18, 28, 18, 22, 23]
22.394[18, 22, 19, 18, 27, 18, 21, 23]
22.409[18, 24, 19, 19, 26, 18, 21, 24]
22.432[17, 24, 18, 18, 27, 19, 18, 25]
22.455[18, 23, 17, 18, 25, 20, 17, 23]
22.469[18, 24, 17, 16, 27, 20, 20, 21]
22.492[18, 26, 19, 17, 31, 21, 19, 22]
22.514[18, 25, 20, 17, 32, 20, 20, 19]
22.529[17, 25, 21, 18, 34, 22, 20, 19]
22.552[17, 24, 21, 19, 31, 22, 21, 18]
22.574[19, 23, 23, 19, 30, 21, 20, 18]
22.589[20, 21, 23, 18, 24, 21, 20, 18]
22.612[21, 20, 22, 19, 23, 22, 22, 18]
22.634[22, 21, 21, 20, 23, 21, 22, 16]
22.649[21, 20, 22, 20, 23, 21, 22, 17]
22.672[20, 21, 23, 21, 26, 21, 21, 16]
22.694[22, 19, 21, 21, 28, 19, 21, 16]
22.717[20, 20, 22, 22, 28, 19, 18, 15]
22.732[22, 20, 21, 20, 25, 18, 19, 14]
22.754[22, 21, 21, 20, 25, 17, 17, 13]
22.77[22, 20, 18, 20, 23, 19, 17, 18]
22.792[18, 22, 22, 20, 26, 19, 17, 18]
22.814[20, 20, 21, 21, 24, 19, 22, 27]
22.829[17, 20, 22, 20, 26, 20, 23, 28]
22.852[16, 18, 22, 20, 26, 20, 26, 28]
22.874[18, 21, 21, 20, 26, 19, 25, 26]
22.889[19, 20, 19, 21, 21, 19, 25, 26]
22.912[18, 22, 20, 19, 22, 20, 22, 16]
22.934[18, 22, 19, 20, 21, 19, 20, 15]
22.949[19, 23, 18, 23, 23, 19, 17, 18]
22.972[18, 21, 20, 23, 23, 19, 20, 18]
22.994[17, 25, 20, 22, 25, 19, 20, 19]
23.009[17, 24, 19, 23, 25, 18, 18, 21]
23.032[19, 23, 20, 23, 25, 19, 21, 22]
23.054[20, 24, 22, 20, 24, 19, 22, 21]
23.069[19, 23, 21, 20, 26, 21, 20, 21]
23.092[20, 20, 21, 22, 22, 20, 22, 23]
23.114[21, 22, 20, 21, 23, 20, 22, 21]
23.129[19, 22, 22, 21, 23, 22, 20, 22]
23.152[19, 21, 22, 20, 22, 21, 21, 22]
23.174[19, 23, 25, 22, 22, 21, 20, 21]
23.189[21, 25, 25, 18, 22, 21, 18, 16]
23.212[22, 22, 26, 19, 24, 21, 17, 16]
23.234[21, 23, 25, 19, 25, 20, 18, 15]
23.249[22, 22, 25, 19, 28, 21, 18, 15]
23.272[22, 23, 23, 18, 27, 20, 21, 19]
23.294[21, 20, 22, 17, 28, 19, 22, 24]
23.317[20, 20, 23, 17, 31, 23, 23, 25]
23.332[21, 20, 23, 16, 33, 23, 20, 26]
23.354[19, 19, 22, 17, 35, 23, 20, 26]
23.377[20, 19, 21, 18, 37, 24, 17, 24]
23.392[21, 20, 23, 18, 39, 24, 18, 22]
23.414[21, 21, 21, 18, 35, 21, 18, 20]
23.436[20, 21, 21, 19, 37, 21, 18, 18]
23.453[23, 24, 23, 21, 32, 20, 17, 17]
23.474[23, 22, 23, 21, 30, 19, 18, 16]
23.496[22, 21, 22, 22, 28, 18, 17, 14]
23.512[23, 20, 23, 25, 30, 18, 17, 15]
23.533[22, 21, 23, 25, 26, 21, 19, 17]
23.556[20, 17, 21, 23, 28, 22, 21, 18]
23.573[19, 19, 19, 25, 29, 20, 22, 21]
23.601[19, 22, 18, 24, 29, 22, 21, 22]
23.616[20, 21, 16, 22, 28, 21, 21, 22]
23.633[20, 24, 16, 22, 25, 19, 22, 21]
23.653[20, 26, 16, 23, 30, 21, 23, 24]
23.676[21, 24, 17, 22, 31, 21, 22, 22]
23.693[21, 22, 17, 22, 32, 20, 22, 24]
23.714[19, 24, 18, 22, 32, 21, 22, 25]
23.736[19, 22, 19, 23, 33, 20, 20, 25]
23.752[19, 21, 19, 20, 27, 16, 18, 23]
23.774[18, 22, 19, 20, 30, 16, 19, 24]
23.796[19, 22, 19, 20, 30, 18, 19, 22]
23.813[19, 20, 19, 19, 29, 19, 20, 22]
23.833[20, 18, 19, 18, 30, 19, 19, 22]
23.856[19, 18, 18, 19, 31, 19, 19, 20]
23.873[21, 19, 19, 18, 33, 19, 18, 17]
23.894[20, 19, 20, 18, 33, 20, 16, 17]
23.916[19, 20, 21, 21, 32, 19, 17, 15]
23.933[21, 21, 21, 21, 30, 20, 16, 15]
23.953[22, 23, 22, 24, 29, 21, 18, 17]
23.976[19, 22, 21, 23, 23, 20, 20, 18]
23.992[20, 23, 19, 23, 24, 19, 21, 19]
24.013[21, 21, 19, 23, 27, 21, 21, 19]
24.038[16, 19, 21, 21, 27, 20, 22, 20]
24.052[18, 17, 20, 19, 31, 20, 22, 19]
24.074[21, 18, 21, 19, 30, 22, 19, 20]
24.104[19, 19, 24, 20, 29, 21, 19, 20]
24.112[20, 23, 25, 18, 31, 19, 20, 22]
24.134[20, 23, 22, 18, 31, 19, 21, 20]
24.156[21, 23, 22, 19, 30, 20, 21, 20]
24.172[20, 23, 22, 21, 31, 18, 24, 20]
24.193[20, 25, 21, 20, 32, 19, 22, 20]
24.216[20, 23, 18, 21, 28, 19, 21, 18]
24.238[19, 23, 22, 23, 31, 20, 20, 20]
24.253[16, 23, 22, 21, 28, 18, 22, 22]
24.276[17, 24, 23, 19, 27, 19, 20, 22]
24.298[18, 22, 21, 18, 25, 18, 21, 22]
24.314[19, 22, 22, 20, 27, 19, 22, 22]
24.336[19, 22, 20, 18, 22, 19, 21, 21]
24.358[20, 23, 20, 20, 21, 20, 19, 19]
24.374[19, 22, 20, 21, 23, 20, 18, 19]
24.396[19, 20, 20, 23, 23, 19, 17, 19]
24.42[19, 21, 21, 22, 23, 19, 16, 20]
24.434[19, 23, 22, 21, 25, 19, 16, 20]
24.456[22, 23, 22, 19, 25, 18, 15, 22]
24.478[22, 22, 20, 20, 24, 18, 16, 21]
24.503[21, 24, 21, 19, 29, 19, 18, 19]
24.516[23, 23, 22, 19, 28, 19, 17, 19]
24.54[21, 22, 20, 19, 28, 21, 19, 22]
24.554[20, 24, 22, 20, 28, 23, 22, 20]
24.576[20, 24, 24, 18, 28, 22, 23, 21]
24.598[22, 23, 22, 19, 23, 22, 21, 21]
24.614[20, 23, 20, 20, 32, 22, 22, 21]
24.636[21, 21, 22, 20, 34, 20, 22, 18]
24.659[19, 18, 20, 20, 33, 19, 19, 18]
24.674[18, 20, 18, 23, 33, 20, 19, 18]
24.696[15, 20, 19, 21, 33, 19, 21, 19]
24.718[16, 22, 20, 21, 25, 20, 21, 18]
24.734[19, 24, 19, 21, 23, 19, 21, 19]
24.756[20, 24, 23, 23, 29, 20, 21, 20]
24.778[20, 22, 23, 19, 29, 19, 21, 19]
24.794[20, 23, 24, 19, 30, 21, 20, 18]
24.816[20, 22, 24, 18, 30, 19, 20, 18]
24.839[19, 20, 24, 20, 28, 18, 19, 21]
24.854[20, 23, 21, 18, 22, 18, 20, 19]
24.876[20, 23, 20, 18, 22, 18, 20, 21]
24.898[21, 22, 21, 19, 22, 16, 19, 21]
24.914[22, 23, 22, 19, 21, 17, 19, 23]
24.936[23, 22, 22, 17, 22, 18, 20, 19]
24.958[24, 20, 22, 18, 24, 17, 20, 19]
24.973[23, 21, 22, 18, 23, 16, 20, 18]
24.996[23, 21, 22, 18, 22, 17, 21, 20]
25.018[24, 20, 21, 19, 25, 18, 20, 17]
25.034[22, 22, 20, 18, 26, 19, 18, 19]
25.057[20, 22, 23, 18, 24, 18, 18, 21]
25.078[21, 20, 23, 20, 24, 19, 18, 21]
25.095[20, 19, 23, 21, 25, 18, 17, 19]
25.116[19, 21, 24, 21, 21, 17, 17, 21]
25.138[19, 18, 24, 22, 18, 17, 21, 21]
25.154[19, 21, 22, 22, 19, 19, 21, 20]
25.176[19, 21, 23, 21, 20, 19, 21, 20]
25.198[21, 21, 21, 19, 23, 21, 21, 23]
25.221[20, 20, 19, 18, 25, 20, 22, 21]
25.236[21, 22, 20, 18, 28, 21, 22, 22]
25.267[23, 19, 22, 18, 28, 21, 21, 21]
25.281[22, 20, 21, 19, 26, 19, 20, 22]
25.296[20, 22, 21, 19, 24, 18, 21, 18]
25.319[21, 23, 21, 20, 22, 19, 22, 18]
25.341[20, 22, 22, 19, 20, 18, 20, 15]
25.356[17, 24, 21, 18, 19, 19, 20, 14]
25.378[18, 23, 22, 19, 19, 20, 21, 16]
25.402[18, 22, 23, 21, 18, 20, 20, 19]
25.416[18, 22, 24, 20, 21, 21, 20, 21]
25.438[19, 23, 23, 20, 21, 21, 19, 21]
25.461[20, 22, 22, 21, 21, 19, 19, 24]
25.476[21, 21, 22, 19, 22, 19, 20, 23]
25.499[21, 22, 21, 18, 21, 18, 22, 22]
25.522[23, 20, 21, 19, 20, 16, 21, 21]
25.536[22, 20, 21, 19, 21, 15, 22, 22]
25.567[22, 21, 22, 20, 21, 16, 25, 19]
25.581[22, 23, 21, 22, 25, 16, 23, 20]
25.596[23, 21, 23, 22, 25, 17, 21, 17]
25.619[23, 21, 23, 22, 24, 18, 20, 19]
25.65[24, 22, 23, 25, 26, 20, 20, 17]
25.656[24, 22, 20, 24, 26, 20, 17, 19]
25.678[23, 20, 22, 24, 21, 20, 17, 18]
25.701[23, 23, 20, 23, 25, 20, 19, 22]
25.716[21, 25, 21, 23, 25, 22, 19, 19]
25.738[19, 26, 22, 21, 26, 21, 18, 21]
25.761[18, 24, 21, 22, 26, 21, 18, 21]
25.776[19, 25, 21, 20, 25, 22, 19, 24]
25.798[17, 23, 21, 21, 23, 21, 19, 21]
25.821[17, 22, 22, 22, 26, 21, 21, 22]
25.836[17, 17, 20, 23, 24, 20, 21, 21]
25.858[18, 16, 22, 22, 24, 23, 20, 22]
25.881[18, 18, 21, 22, 24, 23, 23, 18]
25.896[20, 18, 21, 21, 23, 23, 22, 20]
25.918[19, 18, 20, 21, 20, 23, 23, 19]
25.941[20, 20, 21, 17, 20, 22, 22, 18]
25.956[20, 22, 19, 18, 20, 19, 24, 20]
25.978[19, 20, 19, 18, 20, 17, 20, 21]
26.001[20, 21, 20, 18, 20, 18, 20, 18]
26.016[20, 22, 19, 19, 19, 18, 19, 21]
26.038[19, 20, 19, 21, 23, 19, 20, 23]
26.061[20, 20, 20, 20, 21, 20, 20, 24]
26.077[20, 20, 21, 19, 22, 21, 21, 27]
26.098[21, 19, 22, 18, 22, 19, 20, 27]
26.121[21, 19, 23, 18, 24, 18, 18, 26]
26.144[21, 20, 23, 18, 19, 18, 18, 24]
26.158[19, 20, 24, 20, 20, 17, 19, 19]
26.181[20, 19, 24, 19, 22, 17, 17, 15]
26.204[18, 19, 22, 21, 23, 17, 18, 14]
26.218[19, 20, 21, 21, 22, 16, 17, 15]
26.241[20, 21, 22, 20, 22, 17, 19, 16]
26.266[18, 23, 21, 17, 21, 18, 19, 17]
26.279[17, 23, 21, 18, 21, 17, 20, 17]
26.301[18, 23, 20, 17, 20, 18, 20, 17]
26.324[18, 22, 19, 18, 22, 17, 22, 15]
26.338[19, 23, 20, 18, 23, 18, 19, 16]
26.361[19, 21, 20, 19, 23, 16, 19, 18]
26.392[21, 22, 22, 19, 22, 19, 19, 18]
26.399[20, 22, 23, 19, 23, 19, 19, 18]
26.421[21, 21, 24, 21, 21, 20, 19, 21]
26.444[21, 21, 21, 21, 22, 21, 19, 19]
26.458[21, 21, 23, 20, 23, 24, 19, 18]
26.481[21, 23, 21, 22, 22, 22, 20, 18]
26.504[21, 22, 21, 22, 20, 22, 21, 18]
26.518[19, 24, 22, 20, 21, 22, 20, 17]
26.541[18, 23, 23, 20, 20, 20, 21, 19]
26.565[18, 24, 22, 23, 20, 19, 22, 20]
26.579[18, 23, 22, 20, 20, 22, 20, 21]
26.601[17, 24, 21, 21, 20, 21, 19, 21]
26.624[18, 24, 22, 23, 20, 22, 20, 23]
26.638[19, 22, 23, 23, 20, 23, 21, 22]
26.661[17, 22, 22, 21, 20, 23, 21, 20]
26.684[18, 20, 22, 23, 20, 20, 21, 20]
26.698[19, 19, 24, 21, 19, 21, 21, 20]
26.721[17, 19, 23, 19, 20, 20, 20, 16]
26.745[18, 21, 21, 19, 22, 19, 17, 17]
26.758[19, 21, 20, 19, 21, 19, 16, 18]
26.782[20, 22, 20, 17, 21, 20, 15, 19]
26.804[18, 24, 20, 17, 22, 20, 17, 19]
26.818[19, 24, 19, 18, 22, 19, 17, 20]
26.843[19, 23, 21, 19, 22, 19, 17, 19]
26.864[19, 23, 20, 20, 23, 19, 17, 21]
26.878[18, 22, 22, 20, 23, 20, 18, 19]
26.902[18, 20, 21, 20, 22, 19, 19, 20]
26.924[18, 21, 21, 20, 21, 20, 20, 20]
26.938[18, 20, 19, 19, 19, 20, 19, 20]
26.961[19, 20, 20, 21, 19, 19, 18, 17]
26.984[18, 22, 19, 21, 18, 17, 18, 18]
26.998[20, 22, 20, 22, 19, 19, 18, 18]
27.021[20, 22, 20, 21, 20, 17, 16, 19]
27.044[21, 21, 22, 20, 22, 17, 18, 20]
27.058[22, 23, 23, 18, 20, 18, 18, 21]
27.082[22, 22, 24, 19, 19, 20, 18, 20]
27.104[20, 24, 24, 20, 18, 20, 17, 18]
27.127[22, 23, 25, 20, 17, 19, 17, 18]
27.142[21, 26, 24, 21, 15, 19, 18, 19]
27.164[20, 23, 22, 24, 21, 18, 18, 19]
27.187[20, 22, 21, 23, 23, 17, 17, 20]
27.202[21, 21, 20, 21, 23, 17, 18, 22]
27.225[17, 22, 19, 22, 23, 17, 18, 21]
27.246[18, 21, 22, 22, 23, 19, 19, 22]
27.261[17, 21, 22, 19, 19, 20, 19, 21]
27.284[18, 22, 22, 20, 17, 20, 18, 21]
27.314[18, 19, 22, 20, 21, 21, 20, 19]
27.322[17, 18, 21, 20, 21, 21, 19, 20]
27.344[18, 18, 19, 20, 22, 20, 18, 20]
27.367[19, 22, 20, 18, 21, 20, 18, 19]
27.382[19, 22, 22, 19, 23, 22, 19, 19]
27.405[20, 23, 22, 20, 20, 20, 19, 21]
27.427[20, 24, 24, 20, 19, 20, 18, 21]
27.442[17, 23, 23, 20, 20, 20, 20, 22]
27.464[17, 18, 22, 23, 21, 20, 21, 23]
27.487[15, 18, 20, 23, 21, 20, 22, 24]
27.502[16, 18, 21, 23, 20, 22, 21, 21]
27.524[16, 19, 20, 23, 22, 22, 23, 23]
27.547[15, 20, 20, 23, 21, 20, 21, 23]
27.561[16, 21, 22, 19, 20, 21, 19, 24]
27.584[17, 23, 22, 19, 20, 21, 20, 24]
27.607[17, 22, 21, 18, 20, 20, 22, 24]
27.621[17, 21, 20, 19, 18, 20, 20, 22]
27.644[18, 24, 21, 19, 18, 21, 20, 20]
27.667[18, 24, 20, 19, 20, 22, 21, 19]
27.681[19, 24, 20, 18, 19, 19, 18, 17]
27.704[18, 24, 21, 19, 19, 19, 16, 19]
27.726[18, 25, 22, 16, 20, 21, 20, 19]
27.757[19, 24, 21, 19, 20, 19, 20, 21]
27.764[21, 24, 21, 19, 19, 18, 22, 22]
27.787[21, 22, 22, 19, 19, 20, 23, 22]
27.801[23, 23, 22, 18, 19, 20, 23, 21]
27.824[24, 21, 22, 19, 18, 19, 21, 21]
27.846[24, 20, 22, 17, 16, 19, 20, 19]
27.861[22, 20, 23, 18, 16, 18, 18, 19]
27.884[22, 21, 23, 18, 17, 19, 19, 21]
27.907[21, 20, 23, 19, 17, 19, 20, 20]
27.921[22, 20, 21, 18, 19, 18, 20, 19]
27.945[22, 18, 22, 20, 20, 19, 19, 21]
27.967[22, 20, 21, 20, 19, 18, 19, 22]
27.981[23, 20, 19, 19, 18, 16, 17, 20]
28.004[22, 21, 20, 18, 20, 16, 15, 22]
28.027[19, 24, 21, 18, 18, 16, 19, 22]
28.049[18, 24, 21, 19, 17, 17, 19, 22]
28.065[18, 24, 19, 18, 17, 19, 19, 20]
28.086[16, 24, 20, 19, 20, 17, 23, 21]
28.109[17, 22, 18, 21, 18, 18, 26, 21]
28.125[18, 21, 19, 20, 19, 18, 23, 21]
28.146[18, 20, 20, 23, 19, 18, 23, 19]
28.169[16, 19, 22, 23, 22, 18, 24, 20]
28.184[18, 17, 21, 23, 19, 20, 20, 19]
28.206[17, 20, 22, 22, 20, 20, 18, 19]
28.229[17, 18, 23, 23, 19, 22, 18, 20]
28.244[19, 18, 23, 18, 20, 22, 21, 20]
28.267[20, 19, 21, 20, 18, 20, 21, 18]
28.289[20, 19, 21, 20, 19, 20, 22, 19]
28.304[19, 17, 21, 21, 22, 21, 22, 18]
28.326[21, 17, 19, 20, 22, 19, 21, 18]
28.349[21, 17, 19, 19, 22, 17, 19, 18]
28.364[19, 17, 19, 19, 24, 19, 19, 18]
28.394[19, 18, 19, 18, 24, 19, 18, 18]
28.408[20, 18, 20, 20, 23, 18, 16, 19]
28.425[19, 18, 20, 21, 24, 18, 19, 19]
28.447[19, 19, 19, 22, 25, 20, 18, 18]
28.468[20, 20, 19, 22, 24, 20, 20, 20]
28.485[19, 19, 21, 23, 23, 21, 21, 20]
28.508[19, 19, 22, 22, 22, 21, 23, 20]
28.528[18, 21, 22, 22, 21, 21, 22, 21]
28.545[18, 21, 22, 20, 17, 19, 22, 21]
28.566[17, 18, 23, 19, 18, 17, 22, 18]
28.589[17, 21, 21, 17, 18, 16, 21, 17]
28.605[15, 23, 19, 15, 18, 15, 19, 16]
28.626[16, 21, 19, 15, 19, 16, 19, 17]
28.649[15, 23, 20, 17, 20, 18, 20, 18]
28.665[18, 23, 21, 20, 21, 20, 17, 18]
28.686[19, 22, 22, 21, 21, 21, 18, 20]
28.708[20, 21, 21, 22, 20, 21, 17, 20]
28.725[21, 22, 20, 23, 21, 22, 17, 18]
28.746[22, 21, 19, 22, 21, 22, 16, 19]
28.768[19, 22, 17, 19, 20, 22, 19, 19]
28.785[18, 20, 18, 19, 21, 21, 22, 20]
28.806[18, 21, 19, 19, 20, 20, 23, 22]
28.83[18, 20, 21, 16, 21, 19, 24, 24]
28.845[18, 21, 23, 17, 19, 18, 25, 23]
28.866[19, 20, 24, 18, 21, 18, 23, 22]
28.889[20, 23, 25, 18, 20, 19, 19, 18]
28.905[20, 21, 23, 18, 21, 19, 19, 16]
28.926[20, 21, 23, 20, 21, 19, 20, 15]
28.949[19, 18, 23, 22, 22, 18, 21, 16]
28.971[18, 21, 22, 22, 20, 18, 20, 19]
28.986[19, 19, 20, 22, 21, 16, 20, 21]
29.008[19, 22, 21, 23, 21, 16, 20, 21]
29.031[16, 23, 20, 22, 19, 17, 17, 21]
29.046[17, 25, 19, 19, 19, 16, 17, 21]
29.068[17, 26, 19, 20, 20, 19, 18, 22]
29.091[16, 26, 19, 21, 20, 19, 19, 19]
29.106[17, 25, 21, 19, 19, 18, 20, 20]
29.128[18, 24, 21, 20, 20, 18, 20, 20]
29.151[22, 23, 21, 21, 20, 19, 19, 19]
29.166[23, 20, 23, 20, 21, 16, 19, 16]
29.188[23, 19, 24, 19, 20, 18, 17, 16]
29.211[25, 20, 24, 19, 21, 19, 21, 16]
29.227[25, 18, 24, 19, 20, 18, 20, 17]
29.248[21, 19, 24, 17, 20, 18, 23, 17]
29.271[20, 20, 22, 18, 19, 17, 23, 18]
29.293[21, 22, 20, 18, 18, 18, 23, 19]
29.308[19, 22, 19, 17, 18, 17, 20, 20]
29.331[18, 24, 20, 18, 19, 18, 21, 18]
29.346[21, 24, 21, 19, 21, 19, 17, 18]
29.368[20, 24, 21, 18, 23, 22, 19, 18]
29.391[20, 22, 21, 19, 24, 20, 19, 18]
29.406[19, 23, 21, 19, 23, 21, 18, 17]
29.428[19, 22, 21, 18, 23, 21, 18, 17]
29.452[19, 21, 21, 19, 22, 18, 18, 18]
29.466[19, 21, 20, 19, 27, 20, 17, 17]
29.488[18, 21, 20, 18, 33, 28, 18, 18]
29.511[17, 21, 21, 20, 56, 31, 19, 20]
29.533[18, 22, 22, 21, 59, 31, 18, 21]
29.548[17, 22, 22, 20, 60, 32, 19, 22]
29.571[18, 23, 23, 19, 57, 30, 19, 22]
29.586[18, 22, 23, 21, 56, 26, 18, 21]
29.608[19, 23, 21, 20, 36, 22, 18, 20]
29.631[18, 22, 21, 19, 31, 21, 18, 17]
29.646[18, 20, 21, 19, 30, 21, 17, 16]
29.668[18, 20, 20, 20, 30, 21, 16, 16]
29.691[19, 22, 21, 18, 27, 17, 17, 18]
29.706[21, 22, 22, 19, 25, 18, 17, 18]
29.728[21, 21, 22, 19, 25, 18, 18, 18]
29.751[20, 24, 22, 18, 29, 19, 19, 18]
29.766[19, 23, 23, 19, 27, 20, 20, 18]
29.789[19, 22, 22, 20, 26, 19, 20, 16]
29.811[18, 21, 21, 20, 26, 19, 22, 16]
29.826[17, 21, 22, 21, 26, 21, 22, 17]
29.848[18, 19, 20, 21, 24, 18, 23, 18]
29.871[19, 19, 21, 21, 25, 22, 21, 17]
29.887[17, 20, 23, 20, 26, 22, 21, 17]
29.908[16, 20, 23, 19, 25, 21, 20, 15]
29.939[17, 21, 22, 19, 24, 20, 18, 17]
29.953[19, 21, 24, 17, 23, 20, 16, 16]
29.968[19, 22, 24, 16, 29, 19, 18, 17]
29.991[20, 21, 24, 19, 38, 22, 19, 19]
30.022[20, 21, 24, 21, 39, 24, 19, 19]
30.028[20, 20, 23, 21, 44, 23, 19, 19]
30.051[19, 19, 23, 22, 47, 25, 19, 20]
30.073[20, 24, 25, 47, 91, 28, 22, 21]
30.088[32, 47, 80, 331, 365, 104, 50, 91]
30.111[36, 53, 90, 412, 418, 106, 53, 113]
30.133[39, 56, 95, 451, 480, 110, 66, 176]
30.149[40, 57, 100, 494, 522, 117, 69, 183]
30.171[41, 57, 101, 498, 524, 120, 71, 197]
30.194[35, 51, 72, 388, 408, 71, 60, 183]
30.208[40, 82, 69, 343, 391, 75, 64, 178]
30.231[39, 85, 69, 308, 321, 71, 57, 120]
30.254[43, 90, 74, 241, 267, 68, 65, 112]
30.268[43, 91, 85, 261, 285, 78, 68, 87]
30.291[42, 87, 97, 294, 284, 87, 66, 72]
30.313[38, 61, 102, 276, 290, 108, 67, 54]
30.328[41, 60, 103, 269, 325, 117, 65, 51]
30.351[35, 53, 97, 281, 326, 114, 57, 48]
30.382[52, 77, 122, 420, 444, 134, 76, 58]
30.389[58, 86, 132, 509, 562, 159, 89, 80]
30.411[56, 84, 128, 516, 547, 149, 89, 98]
30.433[55, 83, 130, 607, 586, 153, 90, 97]
30.449[58, 86, 135, 658, 648, 157, 92, 99]
30.471[64, 99, 157, 650, 701, 193, 102, 104]
30.493[66, 103, 156, 619, 631, 176, 97, 95]
30.508[78, 116, 180, 649, 760, 227, 123, 91]
30.531[81, 124, 198, 696, 813, 237, 125, 147]
30.553[90, 138, 221, 769, 845, 265, 142, 243]
30.568[97, 139, 224, 830, 851, 248, 153, 257]
30.591[116, 158, 248, 932, 943, 279, 188, 268]
30.614[113, 155, 244, 952, 896, 279, 181, 297]
30.628[122, 164, 251, 982, 875, 302, 199, 302]
30.651[135, 183, 256, 944, 933, 404, 256, 260]
30.673[125, 173, 229, 840, 845, 415, 252, 253]
30.688[127, 177, 213, 777, 819, 423, 259, 268]
30.711[131, 182, 205, 742, 794, 413, 259, 237]
30.734[125, 170, 180, 600, 789, 395, 247, 208]
30.749[113, 153, 161, 599, 709, 297, 193, 178]
30.771[113, 151, 176, 668, 746, 274, 186, 167]
30.793[89, 122, 176, 699, 730, 253, 148, 120]
30.808[83, 118, 179, 720, 762, 242, 141, 109]
30.831[84, 127, 193, 728, 735, 240, 143, 98]
30.853[72, 110, 180, 664, 722, 207, 119, 82]
30.877[68, 106, 176, 653, 761, 223, 112, 75]
30.891[66, 98, 147, 514, 683, 196, 96, 68]
30.913[57, 82, 139, 472, 633, 174, 85, 60]
30.937[48, 64, 119, 460, 610, 164, 74, 50]
30.951[45, 58, 131, 527, 544, 163, 68, 47]
30.973[43, 55, 123, 472, 463, 128, 62, 48]
30.996[47, 61, 128, 473, 512, 135, 71, 56]
31.011[64, 77, 138, 455, 514, 152, 87, 68]
31.033[71, 76, 138, 446, 545, 155, 95, 90]
31.057[74, 84, 143, 373, 548, 172, 99, 93]
31.071[74, 84, 139, 362, 513, 162, 97, 93]
31.094[71, 81, 138, 360, 498, 155, 92, 89]
31.117[59, 72, 132, 407, 473, 165, 84, 82]
31.131[50, 75, 136, 398, 426, 166, 78, 56]
31.153[47, 67, 117, 393, 437, 158, 77, 54]
31.177[46, 64, 121, 423, 457, 170, 78, 53]
31.191[47, 67, 124, 437, 432, 170, 76, 54]
31.213[51, 72, 128, 445, 500, 168, 84, 61]
31.237[52, 73, 129, 485, 507, 163, 87, 68]
31.251[53, 76, 149, 517, 495, 148, 88, 67]
31.274[62, 82, 142, 541, 550, 153, 99, 72]
31.297[60, 82, 142, 532, 531, 149, 99, 71]
31.311[57, 76, 129, 482, 514, 125, 87, 64]
31.333[53, 73, 135, 527, 525, 128, 82, 58]
31.356[54, 73, 121, 505, 557, 124, 80, 58]
31.371[39, 64, 130, 470, 463, 98, 58, 44]
31.394[37, 61, 136, 567, 550, 95, 56, 43]
31.417[34, 60, 139, 573, 487, 114, 53, 41]
31.431[32, 55, 124, 497, 465, 110, 47, 37]
31.454[30, 53, 119, 496, 404, 110, 45, 33]
31.477[30, 51, 124, 505, 410, 110, 44, 32]
31.491[30, 50, 113, 388, 283, 105, 42, 31]
31.514[29, 49, 112, 415, 319, 88, 39, 29]
31.537[31, 51, 113, 415, 306, 87, 45, 30]
31.559[28, 48, 107, 402, 340, 85, 42, 28]
31.573[31, 47, 83, 351, 366, 98, 47, 31]
31.597[33, 47, 87, 377, 420, 116, 52, 32]
31.611[36, 46, 88, 389, 450, 106, 58, 36]
31.633[37, 46, 97, 443, 472, 109, 59, 38]
31.657[39, 52, 101, 442, 454, 104, 61, 42]
31.671[38, 54, 106, 458, 460, 101, 59, 41]
31.693[35, 51, 99, 422, 404, 88, 52, 40]
31.716[32, 50, 94, 406, 388, 94, 43, 36]
31.731[31, 48, 87, 365, 383, 104, 40, 35]
31.753[33, 44, 90, 372, 417, 109, 44, 37]
31.777[33, 45, 87, 362, 406, 116, 47, 41]
31.791[35, 50, 85, 361, 414, 113, 51, 43]
31.813[35, 47, 86, 314, 399, 117, 51, 42]
31.837[36, 49, 86, 303, 381, 105, 50, 41]
31.859[34, 48, 88, 361, 344, 103, 48, 38]
31.873[33, 46, 83, 363, 316, 85, 44, 34]
31.897[35, 52, 120, 385, 346, 99, 44, 34]
31.92[36, 57, 129, 405, 309, 87, 44, 35]
31.933[35, 58, 128, 439, 332, 88, 47, 37]
31.956[41, 60, 129, 394, 327, 86, 47, 41]
31.979[41, 61, 134, 401, 338, 93, 47, 42]
31.993[39, 54, 101, 371, 317, 77, 47, 41]
32.017[36, 48, 89, 361, 358, 88, 47, 41]
32.039[42, 48, 84, 275, 325, 89, 52, 45]
32.054[37, 42, 70, 256, 314, 91, 49, 39]
32.077[35, 40, 65, 263, 302, 82, 49, 38]
32.099[45, 64, 106, 344, 309, 132, 68, 52]
32.114[46, 66, 104, 341, 283, 129, 71, 88]
32.136[40, 65, 106, 349, 270, 143, 66, 124]
32.159[41, 64, 104, 341, 274, 142, 65, 135]
32.173[44, 66, 106, 339, 305, 154, 68, 139]
32.198[37, 44, 70, 272, 282, 120, 54, 139]
32.219[39, 48, 78, 266, 260, 125, 49, 120]
32.234[39, 47, 77, 267, 299, 112, 48, 83]
32.257[47, 61, 87, 292, 346, 125, 62, 71]
32.279[44, 61, 86, 272, 333, 114, 60, 63]
32.294[44, 62, 104, 326, 405, 115, 57, 51]
32.317[42, 60, 102, 352, 424, 109, 60, 53]
32.339[46, 65, 104, 364, 406, 114, 69, 55]
32.353[36, 51, 96, 395, 399, 100, 56, 45]
32.377[41, 55, 102, 437, 422, 117, 68, 50]
32.399[41, 54, 86, 418, 482, 119, 70, 48]
32.414[44, 56, 93, 427, 486, 118, 73, 47]
32.437[39, 55, 101, 431, 502, 113, 64, 39]
32.466[42, 58, 105, 390, 490, 126, 68, 40]
32.474[39, 53, 95, 362, 483, 116, 58, 34]
32.496[36, 51, 94, 339, 393, 117, 54, 35]
32.519[34, 45, 82, 307, 412, 125, 52, 34]
32.535[34, 44, 72, 293, 429, 121, 50, 34]
32.557[32, 41, 74, 389, 430, 107, 46, 33]
32.579[33, 49, 90, 387, 416, 113, 46, 33]
32.593[35, 49, 90, 416, 398, 121, 49, 51]
32.617[32, 50, 91, 417, 357, 115, 47, 73]
32.639[31, 48, 88, 415, 336, 121, 51, 74]
32.653[34, 48, 89, 350, 421, 143, 54, 74]
32.676[36, 50, 90, 360, 448, 144, 62, 80]
32.699[36, 51, 91, 351, 510, 142, 63, 71]
32.713[35, 51, 97, 386, 540, 145, 64, 48]
32.736[37, 52, 102, 400, 541, 140, 63, 50]
32.759[42, 63, 121, 432, 494, 149, 74, 56]
32.781[41, 59, 111, 404, 459, 143, 71, 52]
32.797[43, 61, 112, 374, 371, 142, 71, 54]
32.819[45, 64, 115, 343, 352, 151, 70, 56]
32.842[47, 69, 115, 320, 328, 166, 73, 58]
32.856[41, 59, 94, 288, 272, 147, 61, 53]
32.879[47, 72, 107, 380, 351, 147, 72, 60]
32.902[48, 76, 110, 390, 364, 146, 73, 60]
32.917[48, 76, 111, 393, 346, 169, 76, 60]
32.939[47, 74, 111, 418, 407, 173, 81, 57]
32.961[45, 73, 115, 400, 421, 168, 80, 56]
32.976[37, 59, 103, 330, 380, 167, 66, 42]
32.999[38, 57, 112, 341, 379, 180, 62, 37]
33.022[35, 54, 104, 342, 415, 166, 63, 38]
33.037[36, 58, 116, 318, 350, 150, 52, 43]
33.059[41, 64, 125, 347, 439, 166, 53, 48]
33.082[45, 66, 136, 341, 460, 175, 62, 56]
33.097[48, 99, 133, 383, 482, 161, 70, 56]
33.119[49, 102, 145, 400, 473, 142, 71, 58]
33.142[51, 101, 134, 463, 521, 156, 75, 58]
33.157[49, 107, 123, 457, 455, 137, 73, 56]
33.179[44, 109, 112, 468, 436, 124, 65, 51]
33.201[47, 101, 143, 520, 490, 137, 69, 55]
33.217[48, 101, 141, 502, 467, 138, 68, 53]
33.239[46, 100, 142, 479, 444, 128, 65, 48]
33.262[45, 97, 142, 490, 465, 143, 68, 46]
33.276[48, 94, 146, 485, 467, 160, 70, 46]
33.299[46, 74, 116, 422, 505, 176, 69, 47]
33.322[45, 71, 105, 424, 509, 178, 70, 47]
33.336[43, 69, 99, 395, 480, 169, 69, 47]
33.359[43, 71, 111, 357, 474, 162, 65, 45]
33.381[43, 82, 144, 396, 497, 152, 66, 47]
33.403[38, 85, 158, 439, 440, 112, 51, 41]
33.42[43, 92, 164, 460, 501, 110, 51, 42]
33.441[49, 95, 171, 496, 569, 141, 63, 49]
33.463[55, 92, 174, 568, 613, 161, 83, 62]
33.48[56, 87, 147, 623, 597, 167, 93, 65]
33.501[56, 83, 153, 581, 572, 179, 101, 70]
33.523[56, 79, 152, 594, 549, 190, 110, 77]
33.54[60, 90, 166, 572, 521, 188, 115, 82]
33.561[60, 95, 158, 535, 505, 173, 108, 80]
33.584[65, 109, 156, 452, 573, 199, 113, 87]
33.6[69, 113, 158, 514, 626, 196, 113, 89]
33.621[72, 116, 176, 492, 654, 184, 104, 83]
33.643[70, 122, 188, 554, 682, 168, 98, 78]
33.66[81, 133, 238, 562, 705, 237, 122, 91]
33.681[81, 123, 248, 584, 675, 230, 118, 87]
33.703[78, 122, 237, 586, 637, 229, 113, 80]
33.72[73, 118, 225, 595, 590, 230, 117, 81]
33.741[69, 101, 206, 549, 561, 233, 116, 77]
33.763[49, 75, 153, 549, 520, 160, 82, 53]
33.78[39, 66, 137, 526, 508, 150, 71, 41]
33.801[43, 59, 125, 478, 468, 151, 75, 48]
33.823[54, 72, 126, 465, 553, 186, 87, 60]
33.84[59, 81, 131, 466, 532, 195, 91, 65]
33.861[63, 86, 132, 469, 501, 208, 97, 72]
33.883[71, 99, 145, 495, 494, 208, 110, 81]
33.9[69, 99, 147, 487, 497, 209, 109, 79]
33.921[65, 99, 164, 544, 530, 199, 107, 77]
33.943[64, 99, 158, 523, 610, 199, 112, 79]
33.96[65, 100, 151, 514, 660, 189, 111, 77]
33.981[72, 109, 167, 517, 759, 224, 120, 85]
34.003[73, 112, 181, 577, 803, 241, 123, 89]
34.018[69, 102, 161, 525, 730, 225, 112, 83]
34.041[69, 102, 164, 562, 682, 221, 109, 80]
34.065[70, 101, 167, 556, 678, 236, 111, 79]
34.078[59, 83, 150, 539, 604, 223, 98, 67]
34.101[61, 85, 148, 556, 557, 212, 99, 67]
34.123[63, 92, 163, 553, 538, 220, 103, 70]
34.138[58, 84, 153, 512, 523, 212, 94, 64]
34.161[60, 90, 155, 497, 503, 274, 110, 70]
34.183[58, 88, 158, 468, 483, 246, 104, 66]
34.199[51, 77, 139, 344, 475, 253, 94, 58]
34.221[52, 74, 128, 382, 541, 249, 93, 58]
34.243[55, 81, 139, 387, 603, 260, 102, 66]
34.258[51, 72, 135, 407, 572, 185, 82, 59]
34.281[65, 95, 133, 406, 559, 185, 97, 75]
34.303[73, 106, 137, 479, 629, 189, 111, 83]
34.318[73, 106, 142, 529, 590, 187, 113, 82]
34.342[71, 103, 150, 568, 509, 170, 107, 79]
34.363[69, 100, 150, 547, 496, 153, 104, 80]
34.378[53, 74, 132, 562, 515, 163, 92, 66]
34.401[43, 57, 129, 499, 448, 127, 76, 54]
34.423[35, 54, 128, 524, 487, 143, 76, 51]
34.438[38, 57, 110, 471, 547, 153, 80, 65]
34.461[39, 61, 105, 463, 579, 163, 85, 63]
34.483[41, 63, 111, 478, 543, 146, 78, 62]
34.498[42, 62, 109, 466, 511, 142, 78, 63]
34.521[41, 58, 94, 353, 476, 120, 69, 61]
34.544[42, 58, 103, 403, 416, 117, 73, 53]
34.558[40, 55, 100, 396, 367, 99, 67, 51]
34.581[39, 54, 92, 371, 355, 98, 70, 53]
34.605[39, 55, 91, 369, 403, 101, 72, 60]
34.618[47, 63, 118, 408, 430, 99, 90, 68]
34.641[45, 63, 123, 395, 483, 98, 83, 60]
34.664[49, 64, 128, 431, 515, 121, 92, 65]
34.686[49, 65, 128, 409, 503, 117, 90, 63]
34.702[47, 65, 131, 419, 460, 125, 86, 59]
34.723[45, 62, 112, 366, 441, 132, 80, 52]
34.746[44, 61, 104, 396, 450, 173, 82, 57]
34.761[43, 64, 107, 391, 469, 183, 84, 55]
34.783[44, 64, 106, 409, 489, 201, 85, 59]
34.806[49, 67, 115, 453, 518, 207, 87, 60]
34.821[51, 69, 129, 499, 517, 205, 87, 64]
34.843[50, 66, 125, 492, 436, 162, 86, 60]
34.865[47, 61, 123, 476, 407, 134, 72, 56]
34.888[52, 67, 134, 474, 452, 122, 80, 60]
34.903[54, 74, 133, 492, 464, 119, 85, 62]
34.926[55, 76, 118, 458, 443, 142, 88, 63]
34.942[55, 81, 145, 446, 443, 150, 86, 66]
34.965[62, 94, 157, 476, 484, 167, 98, 77]
34.986[57, 90, 149, 477, 460, 164, 91, 68]
35.001[53, 83, 153, 462, 447, 163, 85, 65]
35.023[51, 80, 150, 490, 481, 164, 78, 64]
35.046[53, 78, 127, 544, 604, 168, 79, 63]
35.061[47, 68, 116, 534, 562, 159, 71, 54]
35.083[52, 78, 126, 562, 575, 195, 88, 65]
35.106[52, 79, 116, 516, 570, 195, 92, 64]
35.121[47, 78, 121, 506, 545, 183, 90, 61]
35.143[50, 78, 118, 429, 416, 181, 92, 62]
35.166[53, 78, 127, 456, 404, 181, 89, 62]
35.181[56, 81, 134, 476, 386, 157, 86, 62]
35.203[59, 83, 151, 497, 408, 159, 85, 63]
35.226[60, 83, 150, 517, 413, 158, 85, 70]
35.241[64, 90, 175, 536, 421, 155, 92, 80]
35.263[68, 99, 178, 574, 435, 153, 101, 96]
35.286[73, 104, 208, 604, 453, 165, 105, 130]
35.301[77, 115, 215, 641, 468, 183, 108, 210]
35.323[77, 113, 221, 633, 542, 193, 108, 237]
35.346[74, 114, 238, 729, 644, 198, 104, 250]
35.361[73, 113, 232, 709, 644, 201, 102, 272]
35.383[68, 102, 201, 690, 663, 188, 91, 262]
35.406[67, 95, 184, 784, 629, 203, 91, 206]
35.421[68, 98, 190, 812, 625, 203, 93, 171]
35.445[65, 99, 178, 728, 540, 198, 86, 149]
35.467[60, 90, 178, 719, 546, 212, 82, 87]
35.481[66, 102, 194, 709, 504, 207, 90, 83]
35.503[64, 99, 199, 688, 566, 167, 90, 83]
35.526[63, 98, 192, 621, 504, 161, 87, 84]
35.541[62, 88, 158, 593, 474, 160, 86, 79]
35.563[61, 85, 153, 558, 554, 149, 84, 79]
35.586[53, 72, 146, 579, 526, 141, 75, 68]
35.608[47, 66, 144, 509, 490, 144, 66, 57]
35.623[46, 62, 133, 525, 495, 139, 66, 57]
35.646[51, 67, 137, 537, 504, 155, 82, 67]
35.668[70, 87, 142, 614, 425, 146, 104, 86]
35.683[68, 80, 120, 561, 420, 142, 104, 83]
35.706[78, 97, 141, 634, 476, 154, 131, 109]
35.728[81, 102, 139, 626, 453, 148, 134, 111]
35.743[80, 102, 148, 654, 446, 132, 129, 109]
35.766[68, 94, 158, 619, 477, 152, 117, 98]
35.788[66, 97, 158, 625, 664, 167, 116, 99]
35.803[53, 86, 137, 488, 622, 153, 85, 70]
35.826[50, 118, 147, 469, 641, 152, 78, 116]
35.849[50, 122, 139, 461, 677, 156, 83, 155]
35.863[61, 127, 133, 505, 672, 145, 99, 166]
35.886[66, 132, 137, 569, 512, 137, 120, 174]
35.909[67, 127, 125, 546, 486, 128, 118, 174]
35.923[82, 116, 140, 644, 510, 135, 149, 158]
35.946[83, 113, 138, 611, 442, 126, 147, 140]
35.969[79, 119, 144, 665, 374, 111, 144, 143]
35.983[76, 112, 140, 586, 340, 102, 128, 134]
36.006[92, 134, 168, 635, 406, 139, 154, 149]
36.029[81, 119, 151, 561, 367, 143, 127, 150]
36.043[120, 172, 234, 677, 456, 256, 187, 170]
36.066[118, 165, 231, 563, 491, 263, 184, 157]
36.089[123, 172, 237, 576, 493, 273, 190, 160]
36.103[113, 161, 235, 548, 545, 266, 177, 148]
36.126[120, 169, 242, 569, 601, 301, 193, 143]
36.156[95, 136, 203, 511, 598, 255, 160, 111]
36.163[92, 132, 199, 501, 591, 260, 157, 110]
36.194[97, 134, 200, 536, 660, 311, 170, 119]
36.209[94, 128, 181, 514, 567, 304, 164, 115]
36.223[117, 166, 239, 654, 587, 323, 193, 137]
36.246[110, 153, 216, 661, 565, 311, 184, 130]
36.269[117, 158, 225, 716, 598, 320, 196, 136]
36.283[117, 167, 256, 732, 584, 279, 187, 132]
36.306[132, 193, 298, 816, 660, 308, 217, 152]
36.329[104, 157, 254, 694, 600, 249, 177, 122]
36.343[100, 153, 256, 720, 621, 233, 167, 113]
36.366[103, 164, 274, 751, 605, 231, 174, 121]
36.389[95, 149, 241, 709, 556, 210, 166, 113]
36.403[71, 111, 186, 602, 481, 163, 121, 83]
36.426[67, 100, 171, 573, 451, 156, 115, 81]
36.449[77, 110, 167, 569, 405, 147, 134, 98]
36.463[60, 81, 110, 439, 353, 103, 98, 73]
36.486[57, 75, 132, 543, 337, 119, 93, 70]
36.509[59, 81, 140, 556, 309, 120, 99, 75]
36.524[59, 82, 149, 643, 307, 125, 99, 75]
36.546[42, 60, 147, 605, 258, 120, 64, 52]
36.569[40, 59, 147, 609, 259, 126, 66, 53]
36.599[52, 82, 147, 543, 378, 122, 77, 66]
36.605[57, 83, 149, 574, 459, 141, 93, 76]
36.629[68, 92, 153, 540, 507, 164, 127, 94]
36.651[66, 90, 139, 476, 521, 175, 130, 95]
36.665[69, 89, 142, 514, 546, 177, 133, 99]
36.689[62, 69, 112, 479, 463, 166, 128, 92]
36.711[61, 69, 104, 516, 475, 171, 123, 85]
36.726[49, 54, 84, 448, 430, 141, 86, 62]
36.749[53, 76, 138, 491, 495, 152, 85, 64]
36.771[52, 83, 150, 558, 515, 149, 84, 64]
36.786[59, 93, 171, 584, 536, 160, 87, 66]
36.809[59, 99, 185, 595, 503, 146, 83, 67]
36.831[60, 100, 190, 602, 499, 153, 86, 70]
36.846[67, 101, 188, 668, 544, 156, 100, 77]
36.869[67, 97, 180, 603, 513, 149, 96, 75]
36.891[69, 97, 171, 587, 531, 148, 109, 81]
36.906[69, 91, 158, 537, 499, 142, 105, 78]
36.929[71, 93, 165, 550, 513, 145, 106, 79]
36.959[59, 75, 129, 473, 390, 116, 86, 64]
36.965[58, 75, 131, 458, 387, 124, 85, 63]
36.989[47, 64, 119, 438, 330, 119, 66, 51]
37.012[44, 66, 122, 465, 405, 165, 77, 55]
37.026[41, 62, 110, 469, 382, 161, 77, 53]
37.049[43, 65, 106, 417, 372, 159, 81, 56]
37.071[41, 60, 97, 393, 354, 155, 80, 53]
37.086[37, 53, 95, 409, 405, 150, 75, 50]
37.109[32, 42, 90, 339, 330, 109, 55, 40]
37.131[43, 54, 99, 320, 355, 111, 71, 57]
37.154[47, 57, 104, 387, 368, 117, 75, 60]
37.169[49, 62, 114, 422, 361, 115, 79, 64]
37.191[50, 64, 119, 452, 296, 113, 80, 66]
37.206[56, 73, 118, 455, 338, 103, 88, 73]
37.229[51, 70, 108, 488, 340, 94, 75, 61]
37.252[47, 66, 100, 437, 314, 84, 68, 56]
37.266[46, 61, 90, 398, 308, 79, 61, 52]
37.289[45, 60, 82, 373, 318, 80, 58, 48]
37.311[37, 50, 71, 357, 270, 85, 43, 36]
37.326[34, 48, 86, 326, 264, 85, 37, 35]
37.35[35, 49, 89, 314, 330, 93, 39, 36]
37.371[34, 50, 88, 325, 364, 100, 42, 39]
37.386[34, 51, 85, 317, 380, 103, 51, 49]
37.409[36, 56, 97, 388, 395, 95, 57, 53]
37.431[38, 60, 109, 440, 423, 108, 62, 56]
37.445[38, 62, 123, 488, 431, 102, 61, 56]
37.469[44, 65, 128, 526, 511, 118, 70, 59]
37.492[47, 69, 134, 568, 548, 119, 69, 55]
37.514[51, 67, 124, 531, 594, 123, 71, 56]
37.529[49, 65, 108, 476, 636, 114, 73, 53]
37.551[48, 61, 90, 423, 601, 118, 73, 53]
37.574[43, 57, 86, 394, 534, 104, 64, 47]
37.589[46, 58, 82, 394, 485, 102, 68, 52]
37.611[40, 56, 92, 388, 414, 95, 61, 46]
37.634[41, 54, 91, 415, 352, 95, 57, 44]
37.649[44, 59, 95, 429, 420, 104, 60, 46]
37.671[53, 72, 104, 466, 507, 101, 68, 53]
37.694[56, 76, 112, 415, 531, 113, 78, 61]
37.709[59, 85, 119, 435, 546, 122, 87, 69]
37.731[60, 83, 116, 405, 519, 126, 112, 74]
37.755[61, 82, 116, 408, 474, 130, 115, 73]
37.769[59, 85, 135, 444, 400, 163, 118, 73]
37.791[56, 83, 134, 490, 390, 160, 112, 61]
37.814[58, 85, 130, 475, 391, 155, 110, 60]
37.829[59, 93, 146, 534, 418, 161, 91, 60]
37.851[59, 95, 147, 541, 411, 153, 88, 64]
37.874[57, 88, 131, 491, 420, 143, 87, 64]
37.897[54, 87, 146, 480, 444, 154, 86, 63]
37.912[50, 80, 152, 477, 490, 157, 81, 58]
37.934[49, 76, 154, 457, 516, 150, 77, 55]
37.949[47, 72, 155, 506, 562, 169, 80, 52]
37.971[45, 73, 149, 508, 555, 159, 79, 55]
37.994[46, 68, 132, 478, 583, 153, 82, 56]
38.017[49, 74, 130, 473, 534, 170, 90, 64]
38.031[52, 75, 114, 420, 483, 169, 93, 66]
38.054[54, 75, 110, 361, 461, 154, 91, 66]
38.068[51, 71, 116, 395, 450, 141, 82, 58]
38.092[52, 72, 114, 393, 407, 150, 81, 60]
38.114[48, 61, 100, 410, 456, 129, 72, 52]
38.128[43, 55, 99, 413, 464, 133, 69, 52]
38.151[37, 52, 108, 429, 535, 141, 62, 50]
38.174[37, 51, 100, 415, 543, 144, 64, 51]
38.188[40, 56, 107, 425, 570, 147, 68, 56]
38.211[42, 56, 105, 411, 531, 148, 70, 59]
38.234[43, 59, 113, 493, 534, 143, 68, 53]
38.249[47, 67, 115, 498, 516, 157, 78, 57]
38.271[49, 69, 123, 462, 515, 163, 78, 58]
38.294[44, 64, 122, 462, 474, 147, 68, 50]
38.309[41, 64, 125, 477, 484, 144, 63, 42]
38.332[38, 58, 113, 468, 462, 143, 59, 42]
38.354[36, 48, 97, 429, 373, 109, 44, 35]
38.376[36, 47, 95, 442, 426, 112, 51, 36]
38.392[35, 47, 95, 442, 463, 114, 51, 36]
38.414[36, 48, 102, 453, 455, 115, 55, 41]
38.436[36, 51, 120, 417, 498, 115, 57, 43]
38.452[37, 57, 133, 442, 497, 116, 61, 44]
38.473[33, 52, 125, 460, 457, 121, 56, 43]
38.497[35, 56, 129, 459, 429, 117, 57, 44]
38.512[35, 55, 121, 442, 463, 121, 53, 42]
38.533[36, 53, 106, 424, 428, 116, 51, 39]
38.556[35, 53, 97, 398, 468, 122, 48, 39]
38.572[40, 60, 98, 353, 524, 120, 52, 41]
38.594[38, 57, 86, 361, 507, 115, 50, 40]
38.616[37, 57, 91, 341, 482, 106, 50, 41]
38.632[39, 58, 90, 302, 494, 111, 53, 47]
38.653[41, 59, 93, 300, 466, 117, 61, 50]
38.676[39, 56, 101, 382, 391, 109, 59, 49]
38.692[42, 58, 113, 394, 377, 117, 62, 50]
38.713[46, 62, 125, 403, 386, 120, 66, 53]
38.736[44, 61, 125, 426, 379, 126, 65, 49]
38.752[40, 54, 120, 411, 370, 121, 55, 42]
38.774[41, 53, 115, 344, 386, 121, 56, 42]
38.796[39, 50, 100, 303, 393, 114, 50, 40]
38.812[35, 44, 84, 301, 377, 119, 44, 33]
38.833[32, 44, 93, 297, 355, 112, 43, 33]
38.856[36, 47, 94, 392, 413, 113, 50, 38]
38.872[36, 46, 101, 396, 383, 108, 49, 40]
38.893[34, 47, 102, 398, 381, 109, 49, 41]
38.923[32, 49, 103, 383, 389, 103, 49, 42]
38.932[40, 58, 100, 422, 416, 117, 64, 54]
38.953[41, 59, 99, 344, 370, 110, 60, 50]
38.976[48, 70, 102, 369, 408, 117, 71, 57]
38.992[48, 70, 106, 359, 409, 113, 71, 57]
39.013[49, 71, 140, 429, 384, 116, 71, 56]
39.036[44, 64, 136, 392, 372, 101, 57, 44]
39.052[42, 63, 139, 417, 411, 111, 67, 48]
39.074[34, 53, 132, 404, 385, 103, 58, 42]
39.096[37, 59, 144, 429, 464, 106, 60, 41]
39.112[39, 61, 118, 405, 492, 109, 64, 42]
39.133[40, 62, 119, 390, 491, 105, 65, 44]
39.163[39, 64, 115, 370, 471, 93, 57, 40]
39.172[44, 70, 117, 399, 499, 92, 71, 51]
39.193[45, 67, 112, 427, 421, 86, 71, 52]
39.216[51, 70, 119, 483, 417, 95, 87, 64]
39.232[50, 69, 115, 490, 402, 96, 89, 68]
39.253[50, 68, 122, 482, 378, 108, 88, 69]
39.275[49, 65, 130, 472, 357, 113, 78, 64]
39.292[56, 77, 131, 461, 432, 126, 86, 69]
39.313[57, 85, 153, 393, 496, 135, 81, 67]
39.336[58, 88, 158, 386, 505, 142, 81, 68]
39.352[58, 86, 152, 383, 500, 132, 81, 67]
39.373[55, 84, 143, 387, 495, 128, 80, 63]
39.403[53, 78, 153, 435, 509, 147, 89, 72]
39.418[52, 74, 139, 429, 452, 145, 87, 68]
39.433[54, 79, 153, 536, 515, 149, 93, 70]
39.456[55, 86, 157, 539, 513, 153, 98, 78]
39.478[54, 88, 174, 531, 542, 154, 95, 77]
39.493[53, 91, 182, 590, 523, 143, 88, 67]
39.516[48, 82, 164, 580, 506, 127, 78, 63]
39.538[46, 77, 149, 532, 438, 120, 69, 56]
39.553[45, 73, 165, 580, 458, 126, 65, 47]
39.576[46, 73, 161, 561, 393, 124, 67, 50]
39.598[42, 62, 130, 470, 361, 108, 65, 50]
39.614[48, 73, 156, 577, 472, 120, 81, 62]
39.644[55, 84, 167, 571, 488, 130, 93, 71]
39.658[57, 84, 159, 528, 473, 121, 94, 74]
39.673[55, 80, 145, 544, 558, 128, 93, 73]
39.696[57, 81, 151, 561, 571, 167, 95, 74]
39.718[60, 86, 166, 603, 557, 177, 92, 69]
39.733[53, 73, 157, 574, 545, 173, 81, 60]
39.764[49, 68, 150, 569, 542, 170, 77, 54]
39.778[50, 69, 154, 558, 467, 190, 78, 54]
39.809[47, 69, 158, 527, 414, 155, 67, 46]
39.816[36, 54, 128, 412, 322, 139, 54, 38]
39.838[34, 50, 119, 393, 315, 133, 50, 33]
39.853[37, 51, 117, 476, 316, 133, 65, 106]
39.877[55, 79, 140, 514, 327, 108, 80, 123]
39.898[62, 85, 135, 508, 398, 124, 96, 131]
39.913[61, 83, 125, 472, 405, 117, 95, 131]
39.936[63, 85, 130, 478, 408, 117, 98, 135]
39.958[61, 86, 131, 384, 397, 115, 89, 92]
39.973[49, 69, 125, 342, 369, 94, 75, 68]
39.996[39, 60, 136, 311, 302, 60, 54, 51]
40.018[38, 57, 131, 265, 271, 56, 54, 49]
40.033[35, 54, 126, 247, 253, 47, 46, 38]
40.056[34, 52, 122, 241, 265, 46, 43, 36]
40.079[29, 47, 111, 209, 319, 54, 35, 34]
40.094[28, 47, 112, 206, 319, 59, 37, 35]
40.116[36, 58, 129, 227, 399, 86, 50, 44]
40.138[41, 64, 137, 276, 406, 91, 53, 48]
40.153[43, 69, 145, 286, 397, 92, 55, 50]
40.176[41, 67, 131, 273, 344, 88, 54, 54]
40.198[40, 64, 111, 254, 318, 83, 52, 63]
40.213[31, 54, 91, 216, 161, 52, 39, 57]
40.235[25, 47, 80, 158, 164, 38, 41, 55]
40.258[24, 39, 59, 121, 149, 31, 39, 50]
40.273[25, 34, 58, 101, 140, 26, 38, 45]
40.296[24, 33, 55, 91, 132, 26, 36, 31]
40.32[24, 32, 50, 89, 127, 30, 34, 29]
40.341[22, 33, 44, 60, 67, 44, 30, 26]
40.356[24, 29, 39, 54, 62, 46, 47, 105]
40.378[27, 35, 29, 37, 50, 47, 49, 112]
40.401[28, 35, 26, 28, 39, 49, 52, 118]
40.416[28, 33, 26, 25, 35, 46, 55, 119]
40.438[29, 30, 24, 23, 33, 34, 53, 122]
40.46[24, 30, 22, 21, 32, 31, 37, 77]
40.476[21, 19, 22, 21, 29, 30, 36, 68]
40.498[23, 19, 17, 22, 24, 28, 51, 135]
40.521[27, 19, 14, 22, 26, 28, 57, 171]
40.535[30, 19, 15, 22, 23, 24, 64, 203]
40.558[31, 21, 16, 22, 22, 23, 65, 205]
40.581[30, 21, 16, 20, 21, 22, 66, 208]
40.597[34, 21, 19, 17, 21, 30, 53, 168]
40.618[34, 20, 20, 16, 18, 29, 58, 178]
40.649[31, 24, 20, 17, 19, 28, 95, 145]
40.656[30, 24, 19, 17, 18, 27, 113, 141]
40.678[31, 26, 22, 17, 19, 26, 129, 153]
40.701[28, 27, 19, 19, 19, 14, 158, 188]
40.716[27, 80, 21, 19, 19, 14, 159, 148]
40.738[34, 112, 22, 20, 22, 22, 151, 193]
40.761[32, 112, 24, 20, 22, 24, 137, 198]
40.776[33, 112, 23, 21, 22, 25, 122, 188]
40.806[30, 112, 25, 20, 22, 26, 81, 154]
40.821[29, 83, 24, 21, 21, 27, 69, 150]
40.836[23, 26, 24, 19, 18, 21, 29, 73]
40.874[24, 23, 26, 20, 19, 21, 29, 50]
40.881[22, 21, 26, 19, 18, 20, 30, 45]
40.896[23, 20, 25, 19, 19, 18, 27, 39]
40.918[22, 21, 27, 19, 20, 16, 27, 37]
40.949[19, 26, 24, 19, 20, 17, 26, 33]
40.956[20, 27, 20, 19, 22, 15, 24, 30]
40.978[18, 27, 20, 19, 25, 20, 22, 20]
41.001[19, 26, 20, 19, 25, 22, 21, 18]
41.016[18, 25, 21, 19, 24, 23, 22, 20]
41.038[20, 20, 21, 20, 26, 24, 21, 20]
41.069[18, 20, 22, 20, 26, 24, 21, 22]
41.076[19, 21, 21, 20, 23, 22, 18, 20]
41.106[17, 21, 20, 19, 23, 20, 18, 21]
41.121[16, 23, 18, 19, 24, 19, 20, 22]
41.136[18, 23, 21, 19, 21, 19, 21, 24]
41.158[19, 21, 22, 19, 20, 20, 21, 22]
41.181[21, 21, 21, 19, 19, 19, 23, 24]
41.195[22, 23, 23, 20, 16, 20, 25, 24]
41.218[23, 20, 23, 18, 19, 20, 22, 22]
41.241[21, 21, 21, 19, 18, 20, 21, 20]
41.256[22, 22, 21, 17, 19, 19, 23, 23]
41.278[20, 22, 21, 18, 20, 18, 22, 24]
41.302[19, 22, 21, 19, 22, 19, 21, 25]
41.324[18, 23, 22, 19, 19, 18, 22, 26]
41.339[18, 23, 22, 19, 21, 18, 22, 25]
41.362[19, 23, 21, 20, 19, 17, 19, 23]
41.384[19, 26, 22, 20, 22, 18, 19, 22]
41.398[19, 23, 22, 20, 23, 17, 17, 22]
41.421[19, 22, 21, 21, 28, 17, 17, 19]
41.444[19, 25, 23, 20, 42, 28, 18, 19]
41.458[20, 24, 22, 21, 53, 48, 18, 17]
41.481[19, 21, 20, 20, 54, 51, 20, 18]
41.504[19, 23, 18, 21, 56, 52, 20, 15]
41.518[21, 24, 17, 20, 54, 52, 20, 15]
41.55[20, 22, 18, 22, 44, 48, 21, 15]
41.564[19, 22, 19, 20, 33, 31, 23, 17]
41.578[18, 21, 19, 20, 33, 26, 20, 17]
41.601[18, 26, 22, 19, 32, 26, 22, 17]
41.631[16, 25, 22, 21, 39, 27, 21, 18]
41.638[17, 24, 21, 20, 39, 27, 20, 18]
41.662[16, 25, 21, 21, 37, 24, 17, 17]
41.684[16, 26, 22, 21, 35, 23, 19, 16]
41.708[16, 20, 21, 19, 33, 22, 18, 18]
41.721[16, 21, 21, 20, 24, 19, 17, 19]
41.744[17, 23, 21, 20, 26, 19, 17, 19]
41.758[17, 21, 20, 20, 26, 20, 18, 18]
41.782[17, 19, 21, 22, 24, 20, 15, 18]
41.804[19, 22, 23, 23, 33, 22, 18, 19]
41.826[20, 20, 22, 23, 34, 23, 18, 18]
41.841[20, 21, 23, 23, 32, 22, 20, 19]
41.864[20, 22, 22, 22, 32, 21, 20, 21]
41.878[20, 24, 21, 20, 32, 22, 21, 22]
41.909[19, 23, 19, 21, 26, 20, 20, 21]
41.924[20, 26, 20, 20, 25, 19, 20, 21]
41.938[19, 24, 19, 19, 25, 19, 19, 21]
41.962[20, 25, 19, 21, 29, 19, 18, 19]
41.984[21, 23, 20, 21, 30, 18, 18, 18]
41.998[20, 23, 21, 20, 32, 20, 15, 17]
42.022[21, 22, 21, 22, 32, 19, 17, 17]
42.044[21, 23, 21, 23, 33, 19, 18, 18]
42.058[21, 21, 21, 21, 29, 20, 18, 18]
42.081[20, 21, 21, 20, 28, 20, 20, 18]
42.104[20, 22, 21, 19, 24, 18, 20, 25]
42.118[18, 22, 23, 20, 25, 21, 24, 26]
42.142[18, 20, 22, 19, 22, 20, 23, 25]
42.164[17, 20, 22, 19, 22, 20, 23, 25]
42.178[17, 20, 22, 21, 22, 20, 22, 25]
42.202[18, 29, 22, 21, 26, 20, 23, 17]
42.224[19, 34, 21, 20, 31, 21, 19, 15]
42.246[19, 36, 22, 19, 32, 21, 18, 15]
42.262[19, 37, 24, 19, 42, 27, 19, 17]
42.284[20, 38, 23, 19, 42, 30, 21, 19]
42.306[18, 30, 23, 19, 42, 31, 21, 23]
42.321[16, 23, 20, 18, 40, 31, 21, 22]
42.345[17, 23, 22, 19, 39, 31, 22, 22]
42.367[18, 23, 20, 20, 29, 25, 21, 20]
42.382[17, 23, 20, 19, 28, 24, 18, 18]
42.404[18, 23, 20, 19, 24, 21, 20, 14]
42.426[19, 23, 22, 18, 27, 22, 19, 14]
42.442[18, 22, 21, 18, 30, 22, 18, 14]
42.464[18, 22, 20, 17, 31, 23, 19, 15]
42.486[18, 19, 20, 17, 31, 22, 22, 15]
42.501[17, 20, 21, 16, 31, 23, 20, 17]
42.539[17, 19, 21, 17, 24, 21, 21, 19]
42.546[19, 20, 20, 19, 26, 23, 22, 20]
42.561[19, 20, 23, 19, 30, 23, 22, 21]
42.584[21, 20, 23, 19, 31, 23, 20, 22]
42.614[22, 20, 22, 20, 31, 23, 22, 23]
42.622[22, 20, 22, 19, 32, 22, 22, 22]
42.659[20, 19, 25, 16, 29, 20, 22, 21]
42.667[20, 18, 24, 15, 26, 20, 21, 19]
42.681[18, 19, 24, 18, 28, 22, 22, 18]
42.704[17, 18, 24, 16, 29, 20, 20, 16]
42.734[16, 18, 24, 18, 28, 22, 20, 15]
42.74[16, 18, 22, 20, 30, 23, 20, 15]
42.764[16, 18, 21, 21, 27, 22, 20, 16]
42.786[17, 20, 20, 20, 28, 21, 18, 17]
42.816[19, 21, 20, 20, 25, 22, 19, 21]
42.824[19, 21, 20, 19, 27, 21, 19, 24]
42.846[19, 22, 21, 18, 25, 20, 21, 24]
42.861[18, 22, 20, 18, 25, 21, 21, 24]
42.891[23, 20, 22, 19, 24, 19, 20, 23]
42.906[21, 22, 21, 19, 29, 21, 19, 20]
42.929[23, 22, 22, 21, 32, 22, 18, 18]
42.944[23, 24, 21, 21, 33, 23, 14, 18]
42.966[23, 25, 23, 20, 35, 22, 13, 17]
42.981[18, 24, 22, 19, 32, 23, 13, 17]
43.011[18, 23, 21, 21, 28, 21, 13, 16]
43.026[18, 22, 20, 19, 24, 21, 16, 18]
43.049[19, 19, 18, 19, 26, 23, 24, 26]
43.064[22, 17, 16, 20, 25, 26, 27, 29]
43.087[25, 17, 19, 19, 30, 29, 29, 31]
43.101[25, 18, 19, 17, 31, 29, 28, 31]
43.124[25, 19, 19, 19, 32, 28, 27, 30]
43.146[24, 19, 19, 19, 30, 25, 21, 22]
43.169[23, 21, 19, 19, 30, 23, 17, 18]
43.184[22, 22, 16, 19, 24, 19, 17, 19]
43.206[23, 21, 18, 19, 23, 18, 24, 22]
43.229[21, 19, 20, 17, 24, 19, 25, 26]
43.251[21, 19, 21, 18, 24, 20, 28, 29]
43.266[20, 18, 21, 18, 23, 20, 28, 29]
43.289[16, 19, 21, 18, 29, 24, 27, 28]
43.304[18, 20, 22, 18, 30, 24, 24, 27]
43.326[21, 21, 21, 19, 29, 25, 23, 24]
43.348[21, 20, 21, 18, 29, 25, 20, 21]
43.372[21, 21, 22, 17, 28, 24, 20, 21]
43.386[21, 20, 21, 20, 21, 21, 22, 21]
43.409[19, 19, 20, 21, 21, 21, 22, 21]
43.425[18, 18, 20, 21, 23, 21, 22, 22]
43.446[19, 21, 19, 22, 22, 21, 22, 21]
43.468[19, 19, 20, 22, 22, 22, 23, 23]
43.492[20, 21, 21, 20, 23, 20, 23, 24]
43.506[20, 20, 18, 19, 24, 20, 23, 24]
43.528[19, 20, 19, 21, 21, 18, 25, 27]
43.545[19, 19, 20, 20, 19, 20, 25, 29]
43.567[21, 22, 19, 21, 19, 20, 23, 30]
43.588[22, 20, 19, 20, 26, 24, 24, 28]
43.605[22, 21, 20, 22, 25, 23, 24, 28]
43.626[23, 20, 19, 19, 26, 23, 23, 26]
43.648[24, 22, 19, 20, 28, 23, 24, 24]
43.664[22, 19, 19, 20, 30, 24, 23, 21]
43.686[20, 19, 20, 21, 33, 30, 21, 21]
43.708[21, 19, 20, 18, 34, 30, 19, 22]
43.725[19, 19, 20, 19, 41, 32, 19, 22]
43.746[17, 17, 19, 18, 46, 34, 21, 22]
43.768[17, 19, 17, 18, 46, 33, 23, 22]
43.785[16, 20, 19, 17, 41, 25, 23, 21]
43.806[14, 20, 20, 20, 41, 26, 26, 22]
43.828[14, 21, 22, 22, 35, 22, 25, 20]
43.844[16, 22, 23, 22, 28, 20, 22, 18]
43.866[17, 20, 23, 22, 30, 22, 21, 16]
43.888[19, 21, 21, 22, 29, 22, 20, 17]
43.905[20, 21, 20, 20, 32, 22, 18, 18]
43.926[20, 19, 18, 18, 30, 23, 18, 18]
43.948[20, 18, 19, 18, 29, 21, 18, 19]
43.971[21, 19, 19, 16, 28, 24, 18, 20]
43.986[20, 18, 20, 16, 29, 23, 20, 20]
44.008[20, 19, 20, 18, 32, 23, 18, 19]
44.025[21, 21, 21, 18, 34, 25, 18, 19]
44.046[20, 20, 23, 18, 33, 26, 19, 23]
44.068[19, 21, 22, 20, 33, 25, 20, 24]
44.084[18, 23, 22, 20, 33, 26, 22, 27]
44.106[18, 23, 23, 19, 29, 26, 22, 26]
44.128[17, 22, 22, 19, 28, 23, 23, 26]
44.15[19, 23, 21, 20, 31, 24, 23, 23]
44.173[17, 23, 21, 19, 26, 20, 22, 23]
44.188[17, 22, 21, 20, 25, 25, 19, 21]
44.211[16, 21, 19, 20, 23, 23, 19, 21]
44.226[15, 20, 19, 19, 22, 23, 20, 20]
44.248[15, 19, 19, 18, 22, 22, 21, 20]
44.27[18, 18, 21, 18, 28, 23, 20, 23]
44.285[18, 18, 20, 19, 30, 18, 21, 21]
44.308[18, 18, 21, 19, 30, 19, 21, 21]
44.33[19, 18, 22, 20, 31, 19, 19, 21]
44.346[18, 19, 23, 21, 32, 23, 19, 21]
44.368[17, 21, 22, 20, 26, 21, 20, 19]
44.399[19, 22, 23, 19, 25, 23, 23, 21]
44.406[20, 22, 23, 19, 24, 25, 24, 22]
44.428[20, 22, 23, 19, 25, 26, 24, 22]
44.45[19, 22, 22, 18, 21, 23, 23, 22]
44.465[19, 20, 22, 22, 24, 23, 22, 20]
44.488[16, 20, 21, 24, 25, 21, 18, 19]
44.51[17, 20, 21, 23, 25, 23, 17, 20]
44.525[20, 20, 21, 23, 25, 21, 18, 21]
44.548[19, 22, 22, 25, 28, 22, 17, 20]
44.57[19, 22, 20, 23, 27, 23, 18, 21]
44.586[19, 24, 20, 21, 27, 24, 16, 21]
44.608[19, 24, 19, 23, 30, 21, 15, 18]
44.63[15, 25, 18, 24, 30, 25, 18, 18]
44.646[17, 23, 19, 23, 28, 24, 19, 18]
44.668[18, 25, 19, 24, 28, 25, 20, 21]
44.69[18, 22, 19, 25, 31, 25, 23, 22]
44.706[19, 22, 19, 23, 28, 24, 26, 23]
44.728[20, 21, 21, 22, 30, 23, 23, 22]
44.751[19, 20, 20, 21, 30, 22, 25, 26]
44.766[18, 19, 23, 20, 32, 22, 26, 24]
44.796[18, 21, 23, 20, 30, 22, 24, 23]
44.811[19, 20, 25, 21, 31, 22, 22, 22]
44.826[21, 20, 22, 22, 32, 18, 22, 21]
44.848[22, 20, 22, 23, 33, 17, 20, 24]
44.871[23, 20, 19, 23, 36, 21, 20, 29]
44.886[27, 19, 19, 22, 35, 22, 21, 29]
44.908[26, 20, 17, 22, 35, 21, 20, 29]
44.93[26, 20, 19, 22, 31, 22, 21, 31]
44.946[24, 21, 20, 22, 30, 22, 20, 26]
44.968[25, 20, 20, 24, 26, 18, 20, 23]
44.99[19, 20, 22, 23, 27, 15, 20, 23]
45.006[18, 21, 23, 22, 31, 22, 21, 24]
45.028[19, 21, 23, 23, 29, 21, 22, 21]
45.051[27, 20, 23, 23, 31, 21, 22, 21]
45.073[28, 21, 23, 21, 28, 23, 21, 18]
45.088[28, 21, 22, 24, 27, 23, 20, 16]
45.111[29, 21, 20, 23, 26, 19, 19, 16]
45.133[30, 21, 20, 20, 27, 20, 18, 22]
45.148[27, 22, 22, 24, 30, 23, 19, 24]
45.17[25, 23, 23, 25, 30, 24, 21, 24]
45.193[27, 21, 24, 23, 30, 24, 31, 27]
45.208[28, 21, 24, 24, 28, 24, 33, 33]
45.231[26, 21, 23, 25, 30, 28, 34, 30]
45.253[22, 21, 24, 24, 25, 25, 34, 28]
45.268[22, 20, 25, 22, 29, 22, 33, 30]
45.291[22, 21, 24, 21, 32, 28, 24, 27]
45.313[21, 20, 23, 22, 32, 28, 23, 23]
45.329[20, 20, 22, 23, 30, 24, 20, 24]
45.35[23, 20, 20, 20, 33, 26, 19, 25]
45.373[22, 21, 17, 20, 34, 27, 17, 21]
45.388[20, 22, 16, 22, 37, 22, 17, 24]
45.41[17, 22, 19, 23, 37, 22, 15, 19]
45.433[19, 24, 19, 21, 37, 21, 18, 20]
45.448[17, 22, 18, 23, 35, 23, 19, 20]
45.47[17, 24, 22, 24, 30, 21, 20, 22]
45.493[21, 24, 22, 23, 28, 19, 20, 19]
45.508[22, 25, 23, 22, 28, 23, 23, 19]
45.53[25, 26, 23, 21, 28, 23, 22, 19]
45.553[25, 27, 24, 21, 29, 22, 26, 20]
45.568[27, 25, 20, 19, 33, 25, 27, 21]
45.59[25, 25, 21, 21, 29, 26, 28, 23]
45.613[25, 27, 22, 21, 29, 29, 27, 26]
45.628[22, 27, 22, 27, 28, 29, 26, 26]
45.65[23, 27, 25, 25, 27, 30, 23, 27]
45.682[22, 30, 25, 24, 27, 31, 20, 28]
45.688[21, 33, 25, 25, 30, 30, 20, 25]
45.71[22, 31, 23, 24, 31, 28, 20, 27]
45.733[22, 32, 25, 22, 35, 32, 20, 26]
45.748[20, 33, 21, 26, 36, 30, 19, 25]
45.779[19, 30, 22, 31, 33, 32, 19, 22]
45.793[22, 26, 20, 31, 36, 34, 23, 26]
45.808[21, 30, 21, 33, 36, 32, 21, 24]
45.831[23, 27, 20, 31, 33, 28, 23, 24]
45.853[24, 26, 20, 30, 34, 28, 24, 25]
45.868[24, 26, 19, 27, 36, 23, 26, 26]
45.89[20, 28, 22, 25, 34, 22, 23, 26]
45.913[21, 25, 21, 24, 36, 22, 26, 27]
45.928[22, 30, 19, 28, 35, 25, 24, 27]
45.959[23, 29, 19, 26, 38, 25, 22, 26]
45.981[25, 29, 18, 28, 36, 30, 19, 26]
45.988[26, 29, 16, 26, 34, 29, 20, 23]
46.01[25, 29, 17, 25, 29, 30, 22, 20]
46.033[25, 25, 17, 20, 30, 29, 22, 20]
46.056[23, 27, 22, 22, 25, 29, 23, 22]
46.07[21, 30, 25, 18, 29, 25, 24, 20]
46.093[21, 27, 26, 20, 33, 25, 24, 21]
46.116[24, 25, 27, 25, 33, 23, 22, 26]
46.13[22, 26, 27, 25, 34, 21, 21, 28]
46.153[24, 29, 26, 25, 35, 21, 26, 27]
46.184[26, 26, 22, 26, 33, 20, 29, 26]
46.191[25, 26, 23, 27, 31, 19, 28, 30]
46.213[21, 27, 20, 23, 29, 20, 26, 28]
46.236[22, 29, 20, 26, 28, 24, 28, 26]
46.259[21, 25, 22, 25, 30, 24, 24, 26]
46.273[20, 24, 24, 24, 37, 30, 20, 31]
46.304[22, 24, 23, 25, 35, 31, 23, 28]
46.31[21, 24, 23, 26, 36, 30, 23, 27]
46.333[24, 25, 23, 23, 35, 29, 23, 26]
46.356[24, 27, 21, 22, 35, 29, 23, 28]
46.371[24, 29, 19, 21, 27, 23, 24, 25]
46.393[24, 30, 21, 21, 37, 25, 24, 25]
46.417[24, 31, 21, 21, 36, 27, 25, 25]
46.431[21, 29, 23, 22, 37, 26, 28, 26]
46.461[25, 26, 22, 23, 36, 26, 28, 26]
46.476[24, 31, 23, 24, 35, 27, 30, 27]
46.499[24, 31, 21, 22, 27, 25, 34, 26]
46.513[26, 29, 21, 20, 31, 23, 34, 25]
46.537[25, 35, 20, 19, 32, 24, 31, 25]
46.55[23, 36, 19, 20, 32, 26, 31, 28]
46.573[23, 32, 19, 20, 32, 25, 29, 25]
46.596[23, 31, 21, 21, 32, 25, 24, 25]
46.61[23, 31, 23, 23, 33, 28, 24, 26]
46.633[25, 26, 22, 23, 33, 29, 23, 26]
46.657[25, 26, 22, 24, 33, 29, 21, 20]
46.671[26, 25, 24, 22, 38, 31, 22, 20]
46.693[26, 26, 23, 25, 37, 31, 22, 25]
46.716[25, 26, 23, 25, 33, 27, 22, 22]
46.739[26, 27, 23, 25, 32, 24, 24, 22]
46.754[25, 25, 23, 27, 32, 24, 25, 25]
46.776[25, 23, 25, 27, 28, 20, 24, 27]
46.79[23, 23, 25, 26, 29, 21, 24, 25]
46.814[25, 22, 26, 24, 32, 22, 26, 26]
46.836[23, 20, 25, 25, 31, 24, 24, 25]
46.85[25, 23, 26, 22, 29, 23, 25, 24]
46.874[24, 23, 22, 22, 28, 23, 27, 22]
46.896[27, 21, 22, 21, 30, 25, 25, 18]
46.91[24, 23, 20, 23, 29, 24, 23, 17]
46.934[24, 24, 21, 22, 30, 21, 26, 18]
46.956[22, 22, 21, 22, 32, 24, 24, 18]
46.979[22, 24, 22, 22, 30, 25, 25, 17]
46.994[23, 25, 23, 23, 29, 22, 25, 21]
47.016[22, 25, 23, 21, 28, 22, 30, 23]
47.038[21, 23, 22, 20, 29, 24, 28, 23]
47.054[20, 27, 22, 21, 26, 22, 28, 23]
47.076[20, 26, 22, 21, 25, 20, 25, 24]
47.099[16, 26, 21, 21, 29, 21, 27, 21]
47.114[16, 29, 23, 20, 33, 20, 19, 20]
47.136[17, 29, 22, 20, 29, 22, 21, 20]
47.159[18, 27, 23, 20, 30, 21, 22, 22]
47.174[19, 26, 24, 20, 32, 22, 22, 24]
47.196[18, 26, 26, 21, 26, 22, 19, 23]
47.219[20, 20, 24, 21, 21, 23, 20, 24]
47.234[23, 21, 24, 20, 26, 23, 20, 24]
47.257[22, 20, 23, 20, 25, 25, 20, 23]
47.279[22, 21, 21, 20, 26, 24, 22, 23]
47.294[24, 20, 18, 17, 29, 24, 23, 26]
47.316[23, 23, 19, 16, 29, 26, 24, 26]
47.338[22, 24, 19, 18, 26, 24, 25, 27]
47.354[22, 24, 19, 18, 26, 22, 24, 25]
47.376[21, 23, 19, 18, 25, 23, 22, 22]
47.399[21, 24, 21, 19, 29, 25, 21, 18]
47.414[21, 21, 20, 21, 29, 23, 21, 17]
47.437[22, 19, 20, 20, 29, 22, 25, 14]
47.459[22, 19, 20, 20, 30, 22, 26, 15]
47.473[22, 18, 21, 21, 30, 21, 29, 22]
47.497[20, 21, 20, 21, 24, 18, 28, 23]
47.519[22, 20, 19, 20, 23, 16, 27, 23]
47.533[19, 21, 20, 21, 24, 19, 24, 24]
47.557[18, 21, 22, 22, 27, 21, 22, 24]
47.579[17, 23, 22, 20, 28, 20, 23, 18]
47.593[20, 21, 23, 21, 27, 23, 23, 21]
47.616[18, 21, 23, 21, 27, 22, 25, 23]
47.639[19, 21, 23, 21, 27, 21, 23, 23]
47.653[19, 21, 21, 20, 22, 19, 23, 22]
47.677[20, 21, 21, 21, 26, 19, 20, 22]
47.699[19, 21, 20, 20, 26, 17, 23, 24]
47.713[19, 21, 21, 20, 26, 18, 23, 22]
47.736[19, 20, 19, 21, 25, 21, 25, 22]
47.759[18, 19, 21, 21, 26, 21, 24, 23]
47.773[18, 21, 22, 19, 20, 21, 26, 25]
47.797[16, 22, 22, 21, 20, 22, 26, 21]
47.819[19, 23, 22, 20, 29, 22, 24, 24]
47.833[18, 22, 24, 19, 30, 20, 23, 22]
47.856[18, 23, 23, 19, 29, 20, 23, 22]
47.878[18, 21, 23, 20, 31, 20, 20, 19]
47.901[20, 21, 23, 19, 32, 19, 17, 18]
47.916[18, 20, 21, 20, 23, 19, 17, 16]
47.938[20, 21, 22, 21, 23, 18, 21, 22]
47.961[20, 23, 21, 21, 24, 19, 21, 24]
47.976[19, 22, 18, 21, 26, 20, 21, 24]
47.999[17, 22, 20, 22, 25, 20, 21, 24]
48.021[19, 23, 23, 21, 28, 22, 20, 23]
48.036[17, 23, 21, 19, 29, 22, 16, 18]
48.059[19, 21, 21, 19, 29, 21, 18, 19]
48.081[21, 22, 23, 20, 26, 19, 18, 21]
48.096[22, 25, 21, 19, 24, 21, 22, 23]
48.119[21, 24, 20, 19, 24, 19, 22, 23]
48.141[21, 24, 21, 20, 22, 22, 23, 22]
48.157[20, 26, 23, 19, 23, 21, 21, 20]
48.179[20, 24, 24, 19, 24, 21, 22, 18]
48.201[19, 22, 24, 20, 26, 20, 19, 18]
48.216[19, 20, 26, 20, 27, 20, 20, 19]
48.239[20, 21, 25, 19, 27, 17, 21, 20]
48.261[22, 22, 24, 22, 28, 21, 22, 21]
48.276[21, 23, 23, 24, 26, 20, 20, 22]
48.299[21, 22, 22, 23, 24, 20, 21, 21]
48.322[23, 23, 20, 24, 21, 22, 20, 19]
48.337[23, 23, 20, 23, 22, 24, 22, 20]
48.359[20, 23, 18, 22, 21, 22, 25, 20]
48.381[20, 22, 18, 21, 24, 21, 26, 19]
48.404[20, 22, 19, 20, 25, 23, 25, 18]
48.419[20, 22, 20, 20, 25, 23, 25, 19]
48.441[19, 23, 20, 20, 25, 22, 22, 17]
48.457[21, 20, 22, 18, 22, 21, 21, 16]
48.48[23, 21, 20, 17, 20, 21, 19, 19]
48.5[23, 19, 21, 16, 27, 20, 20, 19]
48.517[20, 20, 21, 18, 28, 19, 23, 19]
48.539[20, 19, 22, 19, 30, 20, 24, 20]
48.56[18, 19, 21, 20, 31, 20, 24, 21]
48.577[18, 20, 23, 21, 31, 20, 24, 19]
48.598[19, 20, 21, 22, 25, 18, 24, 20]
48.621[20, 18, 20, 21, 22, 20, 21, 23]
48.651[20, 18, 18, 20, 21, 20, 20, 23]
48.658[20, 19, 18, 21, 18, 20, 20, 23]
48.68[20, 20, 16, 18, 17, 22, 24, 26]
48.697[20, 19, 16, 19, 20, 23, 24, 25]
48.718[19, 19, 16, 19, 21, 22, 23, 22]
48.74[19, 21, 18, 19, 22, 21, 22, 20]
48.757[18, 21, 17, 18, 23, 23, 24, 22]
48.778[17, 22, 19, 20, 25, 23, 20, 20]
48.801[17, 24, 20, 19, 25, 22, 21, 21]
48.817[18, 26, 20, 18, 25, 21, 20, 23]
48.838[18, 25, 18, 19, 23, 20, 22, 24]
48.861[19, 25, 18, 20, 28, 21, 20, 22]
48.883[19, 23, 19, 21, 27, 17, 20, 21]
48.898[21, 21, 19, 22, 28, 19, 18, 19]
48.921[21, 22, 20, 23, 28, 20, 18, 17]
48.943[21, 22, 21, 23, 28, 22, 19, 17]
48.958[20, 21, 21, 23, 22, 19, 20, 17]
48.98[21, 22, 20, 21, 24, 21, 23, 18]
49.003[19, 22, 20, 21, 23, 21, 24, 22]
49.018[20, 21, 20, 21, 24, 20, 25, 23]
49.04[20, 20, 19, 20, 23, 18, 24, 21]
49.063[19, 22, 19, 20, 29, 19, 26, 22]
49.078[19, 21, 20, 19, 26, 19, 23, 21]
49.1[22, 21, 21, 19, 27, 19, 24, 20]
49.123[21, 20, 19, 18, 29, 20, 25, 20]
49.138[21, 23, 20, 18, 28, 20, 26, 20]
49.168[21, 24, 21, 18, 22, 20, 23, 18]
49.183[20, 24, 21, 18, 24, 19, 23, 19]
49.198[19, 24, 20, 19, 23, 19, 20, 18]
49.22[20, 26, 22, 18, 19, 19, 18, 19]
49.243[18, 24, 22, 19, 23, 20, 17, 21]
49.258[20, 22, 23, 19, 24, 20, 18, 23]
49.281[19, 23, 22, 20, 23, 20, 19, 22]
49.319[18, 22, 24, 18, 25, 19, 19, 22]
49.321[17, 21, 22, 22, 29, 19, 21, 22]
49.348[17, 20, 22, 20, 28, 20, 20, 22]
49.363[16, 20, 20, 20, 28, 21, 20, 22]
49.378[17, 19, 21, 21, 27, 21, 18, 22]
49.4[17, 21, 19, 23, 26, 22, 18, 22]
49.431[19, 19, 21, 20, 23, 20, 17, 20]
49.438[19, 20, 23, 21, 22, 19, 17, 19]
49.461[18, 20, 23, 21, 26, 18, 16, 21]
49.483[19, 21, 23, 20, 26, 18, 17, 20]
49.498[18, 20, 23, 19, 27, 17, 18, 20]
49.528[19, 19, 21, 19, 27, 18, 18, 21]
49.551[21, 20, 19, 19, 27, 19, 19, 22]
49.558[22, 18, 18, 19, 27, 18, 18, 21]
49.588[22, 20, 18, 19, 32, 20, 19, 22]
49.603[23, 20, 18, 18, 33, 21, 20, 23]
49.618[22, 20, 18, 18, 31, 22, 21, 22]
49.64[21, 19, 19, 18, 32, 23, 20, 21]
49.671[21, 20, 19, 19, 29, 21, 19, 19]
49.678[20, 18, 18, 18, 23, 21, 17, 16]
49.7[20, 18, 18, 21, 22, 21, 20, 16]
49.723[20, 18, 20, 22, 30, 21, 16, 16]
49.746[19, 22, 20, 21, 30, 21, 17, 16]
49.76[18, 22, 19, 22, 30, 21, 19, 18]
49.791[19, 22, 20, 23, 30, 20, 19, 20]
49.805[20, 21, 20, 21, 29, 19, 16, 20]
49.828[20, 23, 18, 21, 23, 20, 17, 20]
49.843[21, 20, 20, 21, 24, 20, 18, 23]
49.874[21, 18, 20, 18, 26, 19, 17, 22]
49.88[21, 20, 20, 18, 31, 20, 21, 23]
49.911[18, 21, 20, 19, 31, 23, 23, 23]
49.925[17, 23, 21, 19, 30, 22, 23, 23]
49.948[17, 23, 19, 19, 29, 21, 21, 20]
49.963[17, 24, 21, 21, 27, 22, 22, 19]
49.986[18, 25, 20, 21, 21, 22, 18, 16]
50.001[19, 25, 18, 20, 21, 20, 18, 18]
50.031[18, 26, 22, 21, 21, 18, 20, 18]
50.045[18, 25, 22, 21, 23, 18, 21, 20]
50.071[18, 26, 24, 20, 23, 17, 22, 23]
50.083[19, 23, 25, 20, 25, 17, 22, 23]
50.106[17, 23, 26, 20, 25, 18, 22, 22]
50.121[17, 21, 24, 18, 26, 18, 19, 20]
50.159[17, 20, 25, 19, 22, 19, 18, 20]
50.165[17, 22, 22, 19, 22, 22, 18, 16]
50.196[16, 22, 21, 18, 21, 23, 17, 16]
50.203[18, 22, 22, 19, 22, 22, 18, 19]
50.226[19, 21, 20, 21, 25, 23, 19, 19]
50.242[19, 21, 22, 20, 26, 22, 21, 19]
50.263[21, 21, 21, 19, 26, 21, 19, 23]
50.286[20, 24, 22, 19, 25, 19, 20, 24]
50.309[19, 22, 20, 17, 24, 20, 19, 22]
50.323[19, 23, 20, 15, 19, 19, 20, 22]
50.346[19, 23, 17, 19, 20, 21, 21, 23]
50.36[18, 22, 20, 21, 21, 19, 21, 21]
50.384[19, 20, 20, 20, 21, 20, 23, 23]
50.406[19, 20, 22, 20, 20, 19, 24, 24]
50.43[22, 20, 22, 20, 20, 19, 23, 27]
50.443[23, 19, 23, 19, 19, 18, 21, 26]
50.466[22, 21, 21, 18, 24, 18, 23, 25]
50.48[23, 20, 22, 19, 25, 20, 19, 24]
50.503[23, 20, 21, 20, 25, 21, 22, 22]
50.525[19, 23, 22, 21, 26, 22, 22, 19]
50.542[21, 24, 23, 20, 25, 23, 21, 20]
50.563[21, 23, 23, 20, 21, 25, 19, 20]
50.587[20, 23, 20, 19, 20, 22, 19, 19]
50.6[21, 23, 21, 19, 20, 22, 17, 18]
50.623[21, 19, 20, 19, 19, 23, 17, 18]
50.645[20, 20, 18, 19, 20, 24, 20, 20]
50.662[20, 18, 18, 18, 19, 22, 22, 21]
50.683[20, 18, 20, 20, 18, 23, 22, 23]
50.705[20, 19, 20, 21, 19, 23, 21, 24]
50.721[19, 21, 19, 22, 20, 20, 21, 24]
50.744[17, 21, 22, 22, 19, 19, 17, 21]
50.766[18, 21, 22, 21, 21, 20, 17, 21]
50.789[18, 21, 21, 22, 19, 20, 19, 21]
50.803[17, 22, 21, 20, 19, 20, 20, 21]
50.833[17, 24, 21, 21, 19, 19, 24, 20]
50.849[17, 22, 18, 23, 20, 18, 24, 20]
50.863[17, 23, 19, 22, 18, 17, 23, 19]
50.885