[15, 17, 16, 20, 19, 17, 19, 18]
0.816[17, 19, 16, 23, 21, 17, 19, 20]
0.841[18, 18, 16, 22, 19, 19, 21, 19]
0.863[17, 17, 17, 22, 17, 20, 19, 21]
0.877[16, 16, 18, 21, 18, 20, 19, 21]
0.9[17, 18, 19, 19, 19, 23, 22, 21]
0.923[17, 17, 22, 20, 25, 25, 26, 24]
0.945[18, 22, 26, 21, 26, 27, 26, 28]
0.962[21, 24, 29, 21, 28, 27, 27, 28]
0.983[21, 25, 29, 21, 28, 26, 26, 28]
0.997[21, 23, 29, 23, 28, 24, 24, 27]
1.02[20, 23, 27, 20, 23, 22, 22, 24]
1.043[18, 20, 23, 18, 22, 18, 21, 19]
1.057[15, 19, 18, 17, 20, 17, 20, 19]
1.087[17, 18, 17, 17, 20, 19, 19, 23]
1.103[19, 19, 17, 15, 19, 21, 23, 22]
1.117[20, 20, 18, 18, 20, 20, 21, 21]
1.14[20, 19, 20, 19, 21, 21, 20, 23]
1.164[22, 18, 20, 20, 21, 22, 23, 22]
1.178[22, 20, 20, 21, 21, 20, 25, 20]
1.2[21, 19, 19, 22, 21, 20, 23, 21]
1.23[21, 19, 20, 20, 19, 20, 23, 21]
1.237[20, 19, 18, 20, 18, 18, 24, 19]
1.26[20, 20, 19, 20, 18, 16, 22, 21]
1.283[19, 20, 19, 20, 20, 17, 21, 22]
1.297[18, 20, 20, 19, 19, 18, 22, 20]
1.32[18, 21, 19, 20, 20, 20, 21, 23]
1.343[18, 20, 20, 18, 19, 20, 20, 23]
1.357[16, 19, 20, 18, 19, 21, 22, 19]
1.38[18, 18, 20, 19, 18, 22, 23, 21]
1.403[19, 20, 21, 21, 18, 20, 23, 24]
1.417[18, 19, 20, 19, 19, 18, 21, 22]
1.44[18, 20, 22, 21, 19, 17, 23, 22]
1.463[19, 21, 23, 21, 20, 16, 21, 23]
1.477[18, 22, 25, 21, 19, 15, 21, 23]
1.5[17, 20, 22, 19, 20, 15, 21, 21]
1.523[17, 20, 23, 20, 20, 18, 21, 21]
1.537[17, 19, 21, 19, 19, 19, 20, 22]
1.561[18, 18, 20, 18, 18, 18, 21, 23]
1.583[18, 18, 19, 18, 19, 20, 20, 20]
1.606[19, 21, 18, 20, 19, 21, 22, 20]
1.621[18, 21, 19, 22, 19, 20, 23, 20]
1.643[19, 21, 20, 22, 23, 19, 22, 18]
1.666[19, 21, 19, 21, 23, 20, 22, 17]
1.681[19, 22, 20, 21, 23, 19, 22, 19]
1.704[19, 22, 22, 21, 24, 19, 20, 19]
1.726[19, 21, 21, 18, 24, 18, 18, 19]
1.747[18, 22, 20, 17, 21, 18, 17, 21]
1.763[17, 22, 21, 18, 22, 17, 17, 20]
1.784[16, 21, 20, 18, 21, 17, 17, 22]
1.807[18, 19, 20, 19, 20, 17, 17, 22]
1.823[17, 23, 19, 20, 21, 20, 17, 22]
1.844[18, 22, 19, 21, 21, 21, 19, 20]
1.867[20, 22, 17, 21, 21, 21, 20, 22]
1.883[21, 23, 19, 21, 22, 23, 20, 20]
1.904[19, 23, 19, 20, 20, 24, 19, 21]
1.928[19, 20, 19, 20, 22, 25, 21, 21]
1.943[18, 20, 20, 19, 20, 24, 20, 21]
1.964[15, 20, 21, 19, 20, 24, 18, 18]
1.986[17, 19, 18, 20, 20, 22, 21, 18]
2.003[17, 19, 20, 22, 21, 22, 20, 18]
2.024[18, 19, 22, 22, 19, 18, 21, 18]
2.046[20, 20, 22, 23, 19, 19, 20, 17]
2.063[22, 20, 21, 23, 18, 19, 20, 20]
2.084[22, 21, 22, 22, 18, 19, 17, 21]
2.106[23, 21, 23, 21, 19, 17, 18, 22]
2.123[24, 20, 22, 21, 18, 17, 16, 21]
2.144[23, 20, 22, 20, 20, 19, 16, 19]
2.174[23, 21, 22, 20, 21, 19, 19, 19]
2.189[22, 20, 25, 20, 19, 19, 19, 18]
2.205[21, 21, 22, 17, 19, 20, 18, 18]
2.226[20, 23, 22, 19, 19, 21, 19, 20]
2.249[20, 23, 23, 20, 19, 18, 21, 21]
2.264[19, 21, 21, 21, 19, 18, 20, 21]
2.286[18, 22, 19, 22, 20, 19, 20, 21]
2.309[21, 21, 20, 24, 20, 18, 22, 21]
2.331[21, 21, 21, 23, 21, 18, 20, 20]
2.346[21, 20, 19, 23, 20, 21, 19, 20]
2.369[21, 21, 20, 22, 21, 20, 21, 19]
2.384[21, 21, 20, 21, 20, 19, 21, 21]
2.406[20, 22, 19, 20, 23, 21, 20, 20]
2.429[20, 20, 20, 20, 22, 21, 20, 20]
2.444[20, 22, 21, 19, 25, 20, 21, 19]
2.474[21, 22, 21, 18, 24, 20, 21, 19]
2.489[20, 23, 21, 19, 24, 20, 19, 17]
2.504[20, 22, 21, 17, 22, 19, 19, 17]
2.526[20, 23, 24, 19, 25, 18, 20, 17]
2.549[20, 21, 22, 20, 21, 18, 17, 19]
2.564[19, 21, 22, 22, 22, 19, 15, 18]
2.587[21, 22, 23, 21, 23, 19, 16, 17]
2.609[19, 20, 23, 20, 23, 20, 16, 16]
2.624[22, 21, 19, 20, 21, 20, 17, 20]
2.646[22, 23, 21, 20, 20, 22, 17, 21]
2.669[22, 23, 19, 20, 20, 22, 21, 22]
2.684[21, 21, 18, 21, 19, 21, 21, 22]
2.707[23, 23, 18, 22, 17, 19, 22, 22]
2.729[20, 22, 16, 21, 19, 19, 21, 20]
2.744[19, 21, 15, 20, 20, 17, 24, 21]
2.766[22, 24, 16, 20, 20, 17, 20, 20]
2.789[23, 24, 19, 20, 22, 18, 20, 21]
2.804[21, 23, 19, 19, 23, 18, 21, 21]
2.826[22, 23, 20, 19, 20, 19, 21, 22]
2.849[22, 22, 21, 19, 20, 20, 19, 19]
2.864[19, 23, 23, 19, 19, 19, 24, 19]
2.888[18, 22, 22, 21, 16, 18, 24, 19]
2.909[21, 22, 21, 21, 14, 20, 25, 19]
2.924[20, 22, 23, 21, 16, 19, 25, 18]
2.947[20, 22, 22, 22, 16, 19, 25, 19]
2.969[23, 20, 21, 20, 17, 20, 22, 19]
2.984[23, 21, 21, 18, 18, 19, 22, 21]
3.006[22, 22, 22, 19, 20, 19, 21, 20]
3.029[22, 23, 20, 20, 19, 18, 21, 21]
3.044[22, 24, 21, 22, 20, 19, 20, 19]
3.066[19, 24, 20, 22, 20, 19, 20, 20]
3.089[18, 22, 19, 22, 19, 19, 17, 18]
3.111[20, 21, 20, 21, 16, 20, 15, 19]
3.126[18, 21, 20, 22, 17, 20, 18, 20]
3.149[17, 21, 20, 20, 17, 21, 17, 21]
3.171[18, 20, 19, 21, 17, 19, 19, 20]
3.187[19, 20, 19, 21, 18, 20, 19, 20]
3.209[17, 21, 20, 22, 19, 21, 21, 18]
3.231[20, 19, 20, 22, 20, 20, 23, 21]
3.254[21, 21, 20, 21, 19, 21, 22, 20]
3.269[21, 21, 19, 20, 18, 20, 21, 19]
3.291[20, 21, 19, 20, 20, 20, 21, 21]
3.306[19, 22, 18, 20, 20, 19, 22, 22]
3.329[17, 22, 18, 18, 19, 19, 18, 20]
3.351[19, 21, 19, 19, 19, 18, 19, 22]
3.366[19, 22, 21, 19, 21, 22, 19, 22]
3.389[21, 22, 21, 19, 19, 20, 19, 19]
3.411[22, 20, 22, 19, 18, 22, 22, 19]
3.426[22, 21, 23, 19, 18, 21, 20, 18]
3.457[20, 20, 23, 19, 18, 23, 20, 16]
3.472[20, 19, 21, 19, 16, 21, 21, 18]
3.486[19, 22, 20, 19, 15, 21, 23, 18]
3.509[18, 21, 21, 18, 17, 20, 20, 18]
3.531[18, 21, 20, 20, 18, 20, 21, 20]
3.546[19, 21, 19, 22, 18, 17, 22, 22]
3.569[17, 20, 20, 22, 19, 18, 21, 21]
3.591[17, 19, 22, 22, 22, 19, 20, 23]
3.606[18, 19, 22, 22, 22, 17, 20, 24]
3.629[17, 21, 22, 21, 20, 18, 21, 23]
3.651[18, 20, 21, 21, 24, 18, 20, 20]
3.668[18, 20, 21, 22, 24, 18, 23, 21]
3.689[18, 19, 19, 22, 21, 18, 21, 16]
3.711[15, 20, 17, 22, 23, 20, 24, 23]
3.726[15, 18, 18, 20, 25, 18, 23, 26]
3.749[15, 17, 18, 18, 22, 20, 24, 26]
3.771[16, 17, 18, 17, 22, 20, 21, 25]
3.786[17, 18, 21, 19, 22, 19, 25, 27]
3.809[19, 17, 22, 19, 19, 19, 22, 22]
3.831[19, 20, 22, 20, 19, 21, 22, 17]
3.847[19, 23, 22, 20, 19, 18, 23, 19]
3.869[19, 24, 23, 20, 19, 18, 23, 20]
3.891[21, 24, 20, 19, 19, 20, 21, 22]
3.906[20, 24, 21, 19, 18, 20, 21, 22]
3.929[22, 21, 20, 17, 18, 19, 22, 22]
3.951[21, 20, 20, 17, 17, 20, 21, 21]
3.967[22, 19, 19, 17, 17, 20, 21, 21]
3.989[19, 18, 19, 16, 21, 19, 22, 18]
4.011[19, 18, 18, 18, 21, 18, 22, 19]
4.026[18, 20, 20, 19, 21, 19, 21, 20]
4.049[19, 19, 19, 18, 22, 18, 20, 18]
4.071[18, 19, 21, 19, 23, 17, 19, 19]
4.095[20, 22, 22, 21, 21, 18, 16, 20]
4.109[20, 22, 22, 22, 24, 18, 20, 19]
4.131[21, 22, 23, 23, 23, 17, 21, 18]
4.155[20, 22, 24, 24, 23, 18, 22, 19]
4.169[23, 23, 23, 23, 21, 19, 24, 20]
4.191[22, 21, 22, 22, 21, 18, 24, 21]
4.215[22, 20, 23, 20, 18, 18, 21, 20]
4.229[20, 20, 21, 20, 18, 18, 20, 20]
4.252[21, 22, 19, 19, 17, 19, 20, 22]
4.275[18, 21, 21, 18, 18, 19, 19, 21]
4.288[18, 21, 20, 18, 18, 18, 20, 20]
4.311[18, 21, 21, 17, 20, 18, 20, 20]
4.335[18, 21, 21, 17, 19, 18, 21, 21]
4.349[19, 20, 24, 20, 21, 17, 22, 23]
4.371[20, 22, 23, 20, 21, 19, 21, 22]
4.395[22, 21, 23, 20, 22, 18, 20, 22]
4.41[23, 24, 21, 22, 20, 19, 23, 22]
4.431[23, 24, 20, 20, 21, 18, 22, 23]
4.455[22, 24, 17, 17, 19, 19, 23, 20]
4.469[20, 23, 18, 18, 20, 17, 23, 21]
4.491[19, 25, 17, 20, 20, 18, 23, 22]
4.515[19, 23, 18, 20, 19, 16, 22, 22]
4.529[19, 22, 17, 22, 20, 17, 22, 21]
4.551[18, 22, 18, 22, 20, 17, 20, 22]
4.574[19, 21, 17, 23, 19, 18, 21, 22]
4.589[20, 22, 18, 22, 18, 18, 22, 19]
4.611[21, 20, 18, 23, 18, 19, 22, 21]
4.635[22, 20, 21, 23, 17, 19, 21, 21]
4.649[23, 19, 22, 22, 17, 18, 22, 21]
4.671[23, 21, 21, 22, 17, 18, 21, 21]
4.694[21, 20, 22, 22, 17, 18, 21, 22]
4.709[20, 22, 22, 20, 16, 17, 21, 21]
4.731[18, 21, 21, 20, 22, 18, 22, 20]
4.754[17, 21, 20, 20, 23, 18, 21, 19]
4.769[15, 19, 20, 19, 22, 19, 21, 17]
4.791[17, 19, 20, 17, 24, 19, 23, 17]
4.814[18, 19, 20, 17, 25, 18, 22, 17]
4.829[19, 21, 19, 18, 20, 17, 23, 16]
4.851[20, 22, 20, 19, 22, 19, 23, 17]
4.874[21, 22, 21, 20, 24, 18, 25, 19]
4.889[20, 22, 21, 22, 22, 19, 20, 20]
4.912[20, 21, 21, 22, 23, 20, 19, 18]
4.934[20, 20, 21, 21, 23, 22, 20, 19]
4.949[19, 21, 21, 20, 20, 20, 20, 19]
4.971[19, 22, 21, 19, 18, 20, 19, 20]
4.995[18, 22, 21, 19, 19, 20, 24, 19]
5.017[18, 23, 22, 18, 20, 19, 24, 21]
5.032[15, 23, 22, 18, 20, 18, 21, 23]
5.055[18, 24, 22, 18, 21, 20, 22, 22]
5.077[18, 22, 22, 18, 22, 21, 22, 21]
5.091[18, 21, 23, 22, 23, 21, 17, 20]
5.115[18, 20, 21, 22, 21, 24, 19, 18]
5.137[18, 20, 20, 23, 21, 23, 19, 19]
5.151[18, 19, 20, 24, 22, 22, 20, 18]
5.175[20, 21, 18, 25, 23, 22, 18, 19]
5.197[19, 21, 19, 20, 23, 22, 21, 18]
5.211[19, 21, 22, 21, 23, 19, 21, 19]
5.234[19, 20, 22, 21, 24, 18, 21, 19]
5.257[18, 19, 24, 18, 24, 18, 21, 20]
5.271[18, 18, 25, 19, 23, 17, 22, 20]
5.295[17, 19, 24, 18, 22, 17, 17, 22]
5.317[18, 19, 23, 20, 21, 17, 17, 21]
5.331[19, 19, 23, 19, 19, 17, 18, 18]
5.355[18, 19, 22, 18, 19, 21, 16, 19]
5.384[19, 20, 22, 19, 20, 20, 17, 20]
5.391[22, 20, 22, 19, 20, 19, 20, 17]
5.415[20, 19, 21, 17, 21, 19, 20, 17]
5.437[20, 20, 20, 17, 21, 19, 20, 18]
5.459[19, 19, 18, 18, 23, 16, 21, 19]
5.475[19, 21, 20, 19, 23, 18, 20, 19]
5.497[17, 22, 22, 18, 21, 18, 20, 19]
5.511[17, 22, 22, 18, 21, 19, 22, 21]
5.535[19, 24, 21, 20, 20, 19, 23, 21]
5.557[20, 23, 22, 19, 20, 20, 24, 20]
5.571[18, 23, 21, 17, 18, 20, 25, 20]
5.595[19, 21, 20, 19, 19, 19, 23, 20]
5.617[19, 22, 19, 19, 20, 20, 20, 17]
5.631[18, 20, 20, 18, 19, 20, 20, 18]
5.655[19, 21, 19, 18, 19, 20, 18, 18]
5.677[18, 20, 20, 19, 19, 19, 18, 18]
5.691[18, 21, 20, 18, 22, 21, 18, 18]
5.714[18, 20, 20, 20, 20, 20, 18, 21]
5.737[18, 20, 20, 21, 21, 20, 18, 20]
5.751[18, 19, 21, 19, 19, 23, 21, 19]
5.774[18, 18, 19, 18, 19, 22, 19, 23]
5.797[18, 19, 17, 19, 15, 21, 19, 22]
5.811[17, 20, 17, 18, 17, 20, 22, 22]
5.835[20, 20, 17, 17, 18, 21, 21, 21]
5.857[20, 21, 16, 21, 21, 19, 19, 22]
5.871[21, 22, 17, 22, 20, 19, 20, 20]
5.894[21, 23, 17, 21, 20, 19, 25, 21]
5.917[20, 22, 19, 22, 21, 22, 22, 19]
5.931[19, 21, 19, 22, 20, 21, 24, 19]
5.955[19, 20, 23, 20, 21, 21, 23, 20]
5.977[19, 21, 22, 20, 21, 22, 24, 23]
5.999[19, 17, 22, 21, 22, 21, 22, 22]
6.015[20, 22, 21, 19, 21, 20, 21, 22]
6.037[19, 24, 23, 19, 21, 21, 23, 21]
6.059[20, 24, 19, 18, 19, 20, 24, 20]
6.074[20, 24, 20, 16, 22, 21, 23, 19]
6.097[21, 25, 22, 19, 20, 21, 23, 19]
6.119[24, 22, 22, 19, 22, 20, 24, 24]
6.134[23, 23, 22, 20, 22, 18, 22, 24]
6.157[21, 22, 23, 22, 21, 19, 21, 25]
6.18[21, 22, 21, 22, 20, 18, 23, 24]
6.195[20, 20, 22, 20, 21, 20, 21, 24]
6.217[17, 20, 22, 19, 19, 20, 22, 20]
6.239[20, 18, 20, 19, 22, 21, 21, 21]
6.254[20, 19, 20, 18, 23, 20, 22, 20]
6.277[21, 20, 20, 19, 22, 20, 18, 18]
6.307[21, 21, 20, 19, 23, 19, 20, 18]
6.314[21, 21, 20, 20, 22, 19, 18, 18]
6.337[20, 22, 21, 20, 19, 19, 19, 17]
6.359[20, 22, 22, 19, 20, 19, 17, 17]
6.375[23, 21, 23, 19, 20, 18, 19, 17]
6.397[22, 20, 21, 19, 20, 19, 17, 16]
6.419[21, 20, 21, 19, 21, 18, 18, 17]
6.434[20, 21, 21, 19, 22, 18, 20, 19]
6.457[22, 22, 21, 19, 19, 18, 20, 20]
6.479[19, 22, 20, 19, 20, 17, 18, 20]
6.494[19, 22, 20, 20, 19, 18, 20, 21]
6.517[22, 22, 20, 21, 19, 18, 19, 21]
6.539[21, 21, 19, 19, 18, 17, 18, 21]
6.554[20, 22, 19, 21, 19, 17, 20, 22]
6.577[20, 20, 21, 25, 18, 18, 21, 22]
6.599[22, 20, 20, 23, 18, 19, 20, 21]
6.621[19, 21, 21, 22, 21, 19, 20, 22]
6.637[21, 19, 21, 23, 20, 18, 23, 20]
6.659[19, 19, 20, 24, 21, 18, 20, 19]
6.682[20, 19, 20, 22, 21, 19, 22, 19]
6.698[18, 19, 20, 22, 21, 18, 23, 19]
6.719[20, 20, 20, 24, 19, 18, 23, 17]
6.741[18, 21, 20, 24, 19, 19, 20, 18]
6.758[18, 21, 22, 24, 18, 19, 23, 18]
6.779[18, 19, 21, 24, 20, 20, 25, 20]
6.802[19, 20, 20, 24, 19, 20, 24, 20]
6.818[19, 18, 19, 21, 19, 20, 24, 23]
6.839[18, 20, 19, 20, 19, 21, 24, 23]
6.861[19, 20, 18, 21, 20, 22, 20, 22]
6.878[20, 21, 20, 19, 21, 20, 18, 21]
6.899[20, 21, 21, 21, 20, 20, 18, 19]
6.928[19, 21, 20, 24, 20, 21, 19, 17]
6.938[19, 19, 22, 25, 20, 21, 19, 19]
6.959[19, 18, 22, 24, 22, 19, 20, 18]
6.982[16, 19, 22, 26, 20, 19, 20, 19]
6.998[17, 20, 22, 25, 22, 18, 19, 20]
7.019[16, 20, 23, 23, 20, 15, 18, 19]
7.043[18, 21, 21, 22, 20, 19, 17, 19]
7.058[18, 23, 22, 21, 20, 20, 18, 19]
7.079[17, 23, 20, 20, 20, 19, 18, 18]
7.101[17, 20, 20, 19, 23, 19, 19, 17]
7.123[18, 22, 21, 17, 25, 19, 21, 20]
7.138[17, 22, 22, 19, 24, 15, 20, 19]
7.161[19, 20, 20, 18, 23, 16, 19, 18]
7.177[20, 21, 21, 18, 23, 17, 18, 20]
7.198[20, 22, 21, 19, 20, 18, 16, 20]
7.221[20, 20, 20, 19, 21, 19, 15, 19]
7.236[20, 21, 20, 18, 21, 20, 16, 20]
7.258[20, 20, 20, 18, 21, 21, 17, 22]
7.281[20, 21, 20, 17, 23, 19, 19, 21]
7.296[20, 21, 21, 17, 22, 19, 19, 20]
7.318[21, 22, 21, 18, 20, 18, 18, 20]
7.349[22, 21, 21, 18, 20, 16, 23, 17]
7.356[23, 22, 20, 18, 22, 20, 22, 16]
7.379[23, 21, 22, 21, 20, 21, 21, 17]
7.403[23, 21, 20, 20, 21, 22, 22, 16]
7.416[21, 21, 19, 20, 24, 23, 22, 16]
7.439[22, 22, 21, 21, 24, 22, 18, 17]
7.461[21, 21, 22, 21, 22, 19, 20, 19]
7.478[20, 21, 21, 20, 23, 18, 22, 19]
7.499[19, 23, 22, 20, 23, 17, 21, 19]
7.521[21, 21, 24, 22, 21, 16, 22, 19]
7.537[19, 22, 22, 20, 20, 17, 22, 19]
7.559[19, 24, 21, 22, 22, 17, 21, 17]
7.581[20, 24, 19, 21, 22, 18, 19, 14]
7.604[19, 21, 21, 22, 20, 18, 20, 17]
7.619[19, 23, 21, 20, 20, 17, 20, 18]
7.641[20, 22, 19, 22, 22, 18, 20, 17]
7.656[19, 21, 22, 20, 18, 17, 20, 17]
7.679[22, 19, 23, 19, 19, 16, 20, 19]
7.701[22, 21, 22, 23, 21, 17, 18, 17]
7.716[22, 21, 21, 25, 22, 18, 19, 18]
7.739[20, 20, 22, 25, 21, 19, 18, 18]
7.763[20, 20, 20, 23, 22, 18, 19, 18]
7.776[16, 21, 21, 23, 22, 19, 22, 17]
7.799[19, 22, 18, 21, 20, 18, 21, 17]
7.821[18, 20, 21, 20, 19, 18, 18, 17]
7.844[20, 20, 22, 20, 19, 18, 20, 18]
7.859[20, 20, 23, 20, 17, 20, 20, 18]
7.881[20, 21, 21, 20, 18, 19, 16, 18]
7.904[18, 19, 23, 17, 18, 19, 17, 18]
7.919[18, 20, 21, 17, 19, 19, 19, 17]
7.941[17, 19, 21, 15, 19, 18, 19, 16]
7.964[19, 19, 19, 16, 22, 17, 20, 17]
7.979[19, 19, 23, 17, 19, 18, 19, 17]
8.001[18, 19, 22, 18, 18, 18, 19, 16]
8.024[19, 20, 24, 17, 19, 17, 18, 18]
8.039[18, 22, 24, 18, 20, 18, 19, 19]
8.061[19, 22, 24, 18, 18, 17, 17, 19]
8.084[20, 21, 22, 17, 21, 16, 19, 18]
8.099[21, 22, 23, 20, 22, 16, 19, 20]
8.121[21, 20, 21, 21, 20, 16, 19, 20]
8.143[22, 19, 20, 19, 19, 17, 19, 19]
8.158[20, 21, 20, 18, 18, 18, 21, 18]
8.181[18, 19, 20, 21, 18, 20, 21, 20]
8.203[17, 20, 19, 18, 18, 19, 21, 17]
8.218[16, 22, 18, 21, 20, 19, 21, 15]
8.241[15, 24, 19, 25, 20, 19, 19, 16]
8.263[15, 21, 22, 25, 20, 19, 18, 17]
8.279[17, 23, 21, 22, 17, 19, 18, 19]
8.309[18, 21, 21, 24, 16, 20, 19, 20]
8.324[17, 20, 20, 21, 16, 20, 19, 20]
8.338[18, 18, 19, 19, 16, 20, 19, 20]
8.361[18, 19, 18, 20, 17, 20, 20, 19]
8.384[18, 19, 20, 20, 18, 19, 18, 17]
8.399[18, 20, 20, 18, 20, 18, 18, 18]
8.421[19, 19, 21, 20, 20, 19, 18, 20]
8.443[17, 18, 23, 19, 24, 21, 18, 21]
8.466[18, 19, 22, 18, 24, 19, 17, 22]
8.481[17, 20, 20, 17, 25, 19, 18, 22]
8.503[21, 19, 21, 19, 24, 20, 18, 21]
8.519[22, 19, 21, 18, 25, 20, 18, 19]
8.541[22, 21, 19, 18, 22, 18, 18, 18]
8.563[21, 20, 20, 20, 20, 19, 19, 19]
8.586[22, 19, 20, 21, 20, 19, 20, 19]
8.61[19, 21, 20, 21, 21, 18, 21, 21]
8.623[17, 20, 20, 19, 20, 18, 20, 21]
8.639[19, 19, 20, 21, 21, 17, 19, 23]
8.67[19, 21, 19, 20, 23, 18, 20, 22]
8.684[20, 21, 19, 20, 22, 18, 19, 21]
8.706[18, 20, 20, 21, 21, 18, 19, 19]
8.729[19, 21, 20, 21, 21, 19, 19, 19]
8.744[18, 21, 19, 18, 20, 21, 20, 20]
8.759[18, 20, 20, 18, 21, 20, 21, 20]
8.782[18, 20, 20, 20, 20, 20, 20, 21]
8.804[17, 20, 22, 17, 19, 20, 17, 22]
8.826[16, 19, 22, 18, 20, 21, 17, 21]
8.841[18, 19, 22, 22, 21, 19, 22, 18]
8.864[19, 18, 20, 21, 20, 19, 21, 18]
8.886[18, 18, 21, 21, 20, 22, 22, 18]
8.901[19, 19, 20, 21, 22, 22, 24, 18]
8.923[21, 20, 20, 20, 21, 20, 25, 19]
8.946[19, 20, 20, 21, 21, 21, 21, 18]
8.961[20, 23, 20, 23, 19, 20, 21, 20]
8.983[21, 25, 21, 23, 21, 19, 21, 20]
9.006[21, 26, 20, 23, 19, 18, 22, 20]
9.021[19, 26, 21, 23, 23, 19, 21, 18]
9.043[20, 25, 20, 20, 22, 18, 22, 19]
9.067[18, 23, 20, 18, 23, 19, 23, 19]
9.082[18, 22, 21, 18, 22, 17, 23, 19]
9.103[20, 21, 20, 19, 23, 20, 21, 18]
9.127[22, 21, 19, 24, 22, 20, 21, 19]
9.149[22, 21, 22, 25, 20, 19, 19, 21]
9.163[23, 20, 23, 26, 20, 20, 22, 20]
9.187[22, 19, 21, 26, 20, 20, 21, 20]
9.201[20, 19, 22, 25, 19, 19, 21, 20]
9.223[20, 19, 21, 22, 16, 21, 22, 20]
9.247[20, 19, 18, 21, 19, 21, 22, 18]
9.261[19, 18, 16, 20, 20, 20, 22, 19]
9.284[20, 19, 18, 18, 20, 20, 23, 17]
9.307[20, 20, 20, 18, 19, 21, 24, 19]
9.321[19, 22, 19, 19, 21, 18, 23, 17]
9.343[18, 22, 19, 20, 20, 18, 23, 17]
9.367[18, 23, 21, 22, 21, 19, 22, 18]
9.381[17, 22, 22, 22, 21, 18, 20, 19]
9.404[19, 22, 22, 22, 22, 18, 21, 18]
9.427[19, 22, 22, 22, 22, 18, 21, 19]
9.441[18, 21, 22, 19, 20, 18, 23, 19]
9.463[20, 21, 22, 19, 19, 18, 20, 18]
9.487[20, 21, 19, 18, 21, 19, 22, 18]
9.501[18, 22, 21, 17, 22, 18, 20, 16]
9.523[19, 20, 20, 17, 21, 17, 20, 20]
9.548[19, 22, 22, 20, 23, 19, 19, 19]
9.561[20, 21, 22, 20, 30, 22, 19, 20]
9.584[20, 22, 25, 33, 69, 35, 24, 21]
9.607[28, 32, 51, 73, 232, 57, 30, 25]
9.621[47, 79, 156, 442, 437, 156, 68, 44]
9.643[69, 115, 230, 573, 599, 231, 102, 62]
9.666[109, 174, 318, 714, 826, 307, 143, 94]
9.681[147, 225, 385, 778, 924, 358, 177, 122]
9.703[192, 290, 488, 913, 1063, 438, 224, 161]
9.726[195, 292, 492, 922, 1084, 446, 231, 162]
9.749[194, 287, 479, 875, 1050, 419, 220, 159]
9.763[185, 266, 433, 869, 980, 391, 209, 151]
9.787[164, 233, 386, 843, 932, 350, 185, 135]
9.809[146, 198, 311, 726, 817, 322, 168, 116]
9.823[148, 199, 296, 638, 744, 298, 158, 118]
9.847[154, 204, 293, 677, 717, 304, 164, 122]
9.869[147, 200, 300, 614, 615, 281, 153, 117]
9.884[140, 190, 289, 625, 562, 278, 150, 112]
9.907[114, 150, 243, 635, 487, 221, 122, 90]
9.929[105, 136, 220, 613, 462, 194, 111, 81]
9.943[94, 125, 207, 687, 449, 185, 107, 76]
9.974[92, 122, 200, 635, 432, 180, 103, 74]
9.989[98, 129, 209, 614, 501, 204, 109, 77]
10.003[86, 114, 183, 598, 478, 155, 84, 65]
10.027[84, 111, 186, 625, 517, 162, 84, 61]
10.049[78, 107, 180, 510, 519, 157, 79, 56]
10.063[72, 100, 175, 533, 536, 154, 76, 52]
10.087[68, 98, 177, 557, 501, 134, 71, 52]
10.109[71, 105, 191, 540, 536, 156, 82, 57]
10.123[64, 97, 175, 476, 475, 145, 76, 53]
10.147[62, 89, 162, 488, 446, 132, 70, 52]
10.169[63, 90, 157, 455, 410, 132, 71, 54]
10.183[59, 80, 134, 430, 358, 115, 62, 47]
10.207[48, 66, 110, 434, 285, 80, 44, 39]
10.229[47, 66, 108, 457, 272, 76, 44, 40]
10.252[49, 68, 112, 389, 280, 85, 47, 41]
10.267[45, 60, 106, 405, 277, 79, 43, 36]
10.291[43, 61, 110, 387, 299, 77, 45, 38]
10.303[40, 54, 93, 384, 292, 75, 44, 35]
10.327[44, 60, 105, 354, 296, 83, 49, 37]
10.349[43, 55, 95, 423, 289, 70, 47, 36]
10.363[44, 58, 90, 404, 304, 70, 48, 39]
10.387[44, 57, 84, 388, 278, 68, 46, 37]
10.409[47, 63, 97, 418, 300, 76, 49, 40]
10.423[43, 57, 82, 415, 297, 69, 42, 38]
10.447[41, 55, 83, 374, 290, 73, 43, 35]
10.469[38, 54, 94, 398, 261, 72, 41, 32]
10.484[36, 49, 92, 420, 279, 71, 41, 31]
10.507[32, 45, 81, 384, 279, 68, 41, 28]
10.537[31, 46, 85, 373, 286, 71, 45, 28]
10.543[35, 49, 90, 342, 270, 72, 47, 29]
10.567[37, 50, 89, 341, 283, 75, 47, 30]
10.589[43, 63, 95, 322, 265, 79, 50, 32]
10.604[42, 60, 94, 327, 225, 74, 48, 32]
10.627[45, 61, 95, 369, 208, 70, 45, 32]
10.649[42, 58, 86, 365, 201, 66, 42, 33]
10.663[40, 54, 74, 332, 167, 60, 41, 34]
10.687[43, 54, 74, 320, 157, 66, 42, 37]
10.71[44, 55, 72, 298, 196, 68, 42, 38]
10.732[49, 61, 73, 250, 224, 80, 46, 42]
10.747[56, 67, 82, 252, 222, 84, 52, 46]
10.77[60, 76, 103, 265, 227, 88, 55, 47]
10.792[55, 67, 96, 286, 277, 84, 51, 43]
10.807[56, 69, 103, 288, 256, 84, 53, 41]
10.829[50, 63, 100, 281, 234, 75, 50, 38]
10.852[43, 56, 92, 296, 244, 68, 41, 30]
10.867[38, 44, 71, 295, 237, 61, 36, 27]
10.889[37, 44, 73, 279, 191, 55, 36, 25]
10.912[36, 43, 69, 272, 188, 54, 33, 26]
10.927[40, 46, 70, 282, 177, 57, 35, 26]
10.949[37, 48, 68, 244, 175, 56, 35, 29]
10.972[37, 48, 64, 264, 208, 64, 35, 31]
10.987[38, 48, 60, 266, 286, 76, 37, 33]
11.01[38, 46, 54, 272, 291, 76, 36, 33]
11.032[36, 45, 55, 273, 301, 73, 38, 35]
11.047[36, 44, 55, 287, 290, 73, 41, 33]
11.07[34, 41, 57, 254, 290, 67, 41, 31]
11.092[33, 41, 56, 235, 206, 52, 39, 29]
11.107[34, 44, 55, 250, 211, 50, 40, 30]
11.129[31, 40, 48, 251, 195, 47, 35, 27]
11.152[32, 39, 51, 257, 195, 44, 31, 28]
11.167[34, 41, 57, 269, 187, 52, 32, 30]
11.189[34, 43, 69, 290, 192, 60, 36, 33]
11.212[36, 46, 78, 274, 189, 67, 40, 33]
11.226[38, 47, 77, 281, 187, 71, 42, 35]
11.25[37, 45, 74, 260, 200, 74, 44, 34]
11.279[37, 44, 73, 249, 182, 71, 42, 30]
11.286[38, 43, 61, 232, 195, 71, 42, 32]
11.309[35, 39, 52, 220, 188, 69, 38, 32]
11.332[34, 40, 54, 206, 188, 64, 36, 30]
11.346[36, 44, 60, 226, 191, 67, 35, 29]
11.369[38, 47, 68, 259, 203, 71, 40, 34]
11.392[38, 45, 68, 252, 176, 63, 36, 30]
11.422[36, 42, 68, 270, 187, 58, 34, 29]
11.429[37, 42, 68, 265, 185, 60, 37, 31]
11.452[36, 40, 67, 256, 181, 61, 38, 32]
11.466[32, 37, 54, 229, 166, 53, 33, 30]
11.489[30, 35, 52, 230, 163, 52, 34, 29]
11.512[32, 40, 52, 235, 150, 51, 35, 28]
11.526[32, 41, 52, 245, 160, 53, 36, 28]
11.549[31, 39, 46, 240, 153, 46, 34, 26]
11.572[31, 42, 49, 256, 149, 49, 36, 24]
11.593[33, 43, 53, 272, 154, 49, 34, 25]
11.61[31, 40, 50, 250, 146, 50, 34, 25]
11.631[30, 37, 48, 222, 214, 52, 32, 25]
11.653[31, 37, 60, 228, 227, 58, 35, 28]
11.67[30, 34, 62, 194, 262, 60, 32, 30]
11.691[30, 34, 61, 195, 265, 58, 35, 32]
11.714[32, 35, 61, 189, 270, 62, 37, 35]
11.73[33, 37, 65, 229, 216, 58, 36, 35]
11.752[35, 41, 54, 232, 208, 52, 36, 34]
11.775[34, 39, 53, 253, 172, 47, 36, 32]
11.79[33, 39, 54, 229, 176, 49, 36, 31]
11.811[31, 40, 58, 261, 178, 51, 34, 27]
11.833[31, 40, 61, 245, 175, 52, 34, 26]
11.85[27, 35, 60, 223, 164, 52, 31, 25]
11.871[29, 36, 55, 213, 168, 52, 31, 25]
11.893[29, 36, 55, 216, 181, 54, 28, 25]
11.916[29, 35, 54, 189, 172, 49, 29, 24]
11.931[29, 35, 50, 178, 169, 46, 30, 27]
11.953[29, 38, 54, 182, 171, 46, 30, 28]
11.97[27, 40, 58, 211, 180, 46, 31, 29]
11.991[26, 38, 56, 211, 160, 44, 31, 28]
12.014[28, 43, 62, 211, 165, 49, 30, 30]
12.03[26, 42, 61, 235, 172, 49, 32, 27]
12.058[29, 42, 61, 246, 168, 46, 33, 26]
12.073[29, 39, 57, 215, 140, 49, 34, 23]
12.09[32, 42, 59, 221, 160, 52, 37, 24]
12.126[31, 37, 53, 241, 172, 47, 36, 25]
12.134[32, 37, 54, 207, 160, 50, 36, 27]
12.157[31, 37, 56, 202, 161, 54, 35, 27]
12.171[35, 43, 67, 253, 172, 58, 37, 32]
12.193[35, 43, 73, 254, 152, 57, 38, 35]
12.21[34, 40, 69, 261, 132, 55, 37, 32]
12.233[34, 40, 67, 305, 135, 52, 36, 32]
12.255[33, 39, 65, 339, 138, 49, 35, 32]
12.276[31, 38, 61, 332, 133, 46, 32, 31]
12.291[32, 37, 59, 359, 131, 50, 32, 29]
12.314[33, 40, 67, 348, 134, 54, 35, 30]
12.33[36, 44, 69, 315, 139, 63, 38, 30]
12.351[36, 44, 70, 327, 132, 62, 38, 33]
12.381[36, 44, 69, 308, 137, 64, 41, 31]
12.39[40, 51, 76, 284, 165, 66, 42, 30]
12.411[39, 49, 69, 272, 166, 63, 40, 31]
12.434[36, 45, 75, 303, 159, 54, 37, 29]
12.45[36, 44, 73, 245, 171, 55, 37, 26]
12.471[39, 50, 85, 248, 200, 59, 41, 31]
12.494[33, 43, 77, 238, 190, 55, 39, 31]
12.51[34, 45, 82, 282, 198, 61, 43, 33]
12.531[35, 47, 80, 249, 227, 63, 43, 36]
12.553[36, 51, 84, 265, 239, 66, 44, 36]
12.57[38, 54, 82, 244, 217, 69, 45, 36]
12.591[39, 56, 83, 267, 211, 71, 43, 35]
12.613[40, 57, 79, 242, 200, 68, 42, 33]
12.636[38, 53, 75, 248, 179, 66, 42, 32]
12.651[38, 50, 70, 240, 164, 61, 40, 31]
12.673[29, 38, 51, 246, 177, 47, 30, 25]
12.696[30, 33, 44, 215, 183, 45, 32, 27]
12.711[27, 29, 42, 199, 184, 43, 28, 24]
12.733[31, 35, 51, 215, 180, 50, 33, 24]
12.756[32, 38, 53, 219, 172, 53, 35, 24]
12.771[33, 39, 64, 243, 197, 61, 38, 25]
12.794[32, 41, 64, 248, 185, 59, 37, 28]
12.816[32, 42, 65, 256, 185, 58, 39, 29]
12.831[30, 37, 58, 248, 191, 51, 34, 30]
12.854[32, 38, 60, 267, 190, 52, 36, 32]
12.876[35, 42, 60, 274, 153, 48, 37, 33]
12.891[36, 42, 60, 284, 153, 48, 37, 30]
12.914[36, 42, 60, 277, 183, 50, 36, 31]
12.936[39, 46, 65, 276, 173, 54, 42, 31]
12.951[37, 43, 61, 255, 167, 52, 38, 29]
12.974[35, 40, 57, 271, 155, 49, 35, 27]
12.996[34, 38, 55, 283, 175, 49, 36, 27]
13.011[35, 38, 53, 288, 145, 48, 36, 26]
13.033[36, 44, 56, 292, 151, 53, 36, 30]
13.056[38, 46, 57, 284, 155, 54, 37, 29]
13.071[39, 50, 53, 285, 164, 55, 41, 33]
13.093[37, 51, 57, 280, 142, 54, 40, 32]
13.116[40, 53, 62, 281, 140, 58, 40, 32]
13.131[37, 47, 57, 267, 174, 56, 38, 29]
13.153[36, 47, 57, 289, 190, 60, 41, 31]
13.176[33, 42, 59, 275, 184, 55, 37, 28]
13.191[35, 42, 57, 285, 185, 58, 38, 30]
13.213[31, 41, 52, 323, 193, 55, 40, 30]
13.236[32, 41, 56, 340, 188, 52, 38, 30]
13.251[33, 41, 59, 342, 168, 46, 37, 28]
13.273[35, 44, 64, 329, 199, 55, 40, 30]
13.304[38, 48, 73, 315, 220, 64, 41, 32]
13.311[38, 47, 74, 289, 215, 65, 39, 32]
13.333[36, 45, 69, 272, 186, 63, 38, 31]
13.356[38, 47, 78, 339, 217, 69, 40, 32]
13.371[42, 57, 86, 338, 198, 75, 44, 32]
13.393[41, 57, 89, 354, 182, 66, 42, 30]
13.416[41, 60, 90, 342, 176, 67, 46, 32]
13.431[42, 60, 92, 402, 206, 66, 46, 31]
13.453[46, 67, 96, 406, 216, 72, 49, 34]
13.476[54, 76, 109, 466, 260, 85, 56, 45]
13.491[63, 86, 123, 497, 318, 102, 61, 52]
13.514[63, 87, 125, 513, 334, 102, 61, 54]
13.536[67, 94, 143, 526, 329, 109, 65, 58]
13.559[63, 87, 135, 488, 339, 104, 61, 55]
13.573[54, 74, 122, 472, 302, 86, 52, 49]
13.596[43, 59, 100, 431, 244, 69, 45, 42]
13.619[46, 58, 100, 460, 228, 69, 44, 40]
13.633[50, 61, 99, 497, 273, 77, 47, 46]
13.656[52, 65, 106, 502, 243, 79, 51, 46]
13.678[52, 66, 108, 505, 273, 88, 56, 44]
13.693[54, 66, 114, 535, 289, 90, 56, 43]
13.716[53, 68, 118, 525, 292, 91, 56, 45]
13.738[58, 78, 128, 512, 328, 99, 61, 44]
13.753[63, 82, 135, 517, 331, 101, 61, 48]
13.776[64, 83, 135, 492, 342, 105, 65, 51]
13.799[64, 85, 142, 481, 359, 105, 66, 52]
13.813[64, 85, 141, 451, 359, 102, 64, 50]
13.836[54, 70, 125, 413, 299, 88, 57, 46]
13.858[53, 71, 128, 471, 305, 93, 58, 46]
13.873[57, 79, 131, 461, 279, 99, 59, 49]
13.896[62, 85, 143, 529, 275, 102, 62, 54]
13.918[64, 90, 150, 553, 319, 110, 67, 58]
13.933[74, 106, 177, 631, 365, 122, 70, 63]
13.956[74, 106, 181, 659, 359, 123, 70, 62]
13.978[72, 105, 185, 726, 372, 118, 74, 59]
13.993[74, 109, 184, 695, 390, 126, 80, 61]
14.016[74, 108, 183, 699, 359, 121, 78, 59]
14.038[71, 99, 164, 642, 358, 120, 80, 58]
14.055[69, 94, 151, 575, 378, 117, 78, 56]
14.076[68, 91, 143, 544, 380, 115, 69, 58]
14.099[64, 80, 137, 572, 353, 107, 62, 54]
14.113[69, 94, 162, 591, 385, 125, 72, 59]
14.136[80, 109, 179, 598, 395, 142, 85, 66]
14.159[80, 111, 182, 580, 386, 140, 87, 67]
14.173[85, 118, 204, 585, 461, 157, 92, 68]
14.196[90, 129, 223, 585, 483, 165, 96, 70]
14.218[85, 121, 209, 566, 502, 159, 91, 65]
14.234[73, 105, 187, 604, 475, 139, 75, 55]
14.264[71, 104, 186, 640, 496, 147, 76, 55]
14.278[70, 101, 171, 599, 493, 141, 74, 54]
14.293[77, 106, 176, 636, 491, 156, 84, 63]
14.316[80, 109, 180, 639, 471, 158, 85, 64]
14.339[87, 116, 193, 625, 490, 164, 89, 70]
14.354[90, 118, 196, 607, 470, 162, 90, 70]
14.376[103, 138, 225, 619, 417, 168, 104, 84]
14.399[95, 125, 198, 516, 414, 150, 92, 77]
14.413[96, 125, 195, 598, 412, 151, 93, 78]
14.436[96, 125, 199, 601, 418, 156, 93, 77]
14.458[95, 126, 198, 582, 439, 155, 92, 76]
14.482[74, 98, 157, 565, 427, 136, 70, 56]
14.496[76, 104, 175, 594, 440, 142, 74, 60]
14.519[73, 102, 175, 481, 438, 137, 72, 60]
14.542[66, 93, 157, 397, 418, 127, 69, 55]
14.556[64, 91, 156, 451, 408, 126, 68, 55]
14.578[61, 87, 151, 482, 419, 122, 66, 53]
14.601[59, 80, 127, 428, 381, 113, 62, 53]
14.616[64, 86, 133, 470, 398, 119, 69, 56]
14.639[61, 81, 120, 441, 381, 106, 64, 55]
14.662[78, 107, 165, 512, 388, 125, 74, 64]
14.676[84, 115, 183, 542, 416, 137, 82, 70]
14.699[82, 115, 186, 574, 415, 137, 84, 68]
14.722[84, 121, 192, 616, 403, 139, 84, 68]
14.736[86, 123, 198, 643, 418, 148, 87, 68]
14.759[73, 104, 168, 580, 387, 127, 77, 60]
14.782[70, 102, 160, 517, 331, 118, 72, 56]
14.796[70, 101, 154, 494, 319, 112, 71, 54]
14.819[70, 96, 158, 402, 306, 105, 68, 50]
14.842[77, 107, 175, 395, 291, 116, 76, 58]
14.856[83, 116, 185, 385, 309, 131, 82, 62]
14.879[82, 112, 177, 384, 298, 128, 80, 63]
14.901[83, 112, 182, 435, 293, 132, 78, 66]
14.916[81, 108, 174, 494, 348, 132, 77, 68]
14.939[72, 94, 152, 518, 327, 116, 67, 60]
14.969[63, 82, 132, 507, 340, 109, 62, 56]
14.976[63, 84, 136, 535, 371, 113, 64, 56]
14.999[61, 87, 136, 518, 375, 111, 67, 53]
15.022[52, 77, 117, 463, 316, 100, 59, 45]
15.036[58, 89, 134, 427, 334, 106, 67, 50]
15.059[56, 86, 129, 407, 314, 100, 63, 48]
15.089[56, 83, 124, 361, 283, 102, 63, 48]
15.096[54, 77, 111, 415, 296, 96, 56, 46]
15.119[55, 76, 112, 417, 289, 99, 57, 48]
15.142[55, 71, 106, 408, 303, 100, 53, 47]
15.156[57, 75, 113, 418, 296, 97, 54, 50]
15.179[55, 76, 111, 448, 292, 88, 53, 47]
15.202[56, 80, 126, 445, 292, 94, 55, 48]
15.216[55, 77, 121, 450, 284, 89, 53, 46]
15.239[48, 67, 113, 478, 240, 75, 44, 39]
15.262[45, 62, 107, 482, 229, 78, 44, 36]
15.276[43, 56, 106, 471, 263, 77, 40, 35]
15.299[45, 60, 116, 445, 302, 82, 43, 34]
15.322[47, 65, 123, 492, 318, 84, 46, 36]
15.336[47, 66, 120, 487, 342, 88, 51, 39]
15.359[52, 73, 133, 535, 393, 97, 55, 42]
15.382[54, 77, 135, 541, 364, 97, 56, 42]
15.396[50, 70, 112, 496, 354, 86, 53, 42]
15.419[68, 94, 151, 472, 394, 101, 65, 52]
15.449[72, 100, 162, 461, 391, 108, 64, 53]
15.464[71, 97, 157, 387, 371, 101, 65, 53]
15.479[70, 95, 156, 364, 406, 102, 64, 52]
15.502[70, 95, 159, 437, 371, 102, 64, 52]
15.524[52, 69, 116, 414, 331, 86, 48, 41]
15.539[48, 62, 104, 416, 342, 79, 48, 41]
15.562[46, 58, 102, 487, 315, 75, 40, 38]
15.584[45, 60, 109, 564, 371, 83, 43, 41]
15.607[46, 61, 111, 546, 389, 89, 45, 42]
15.622[51, 73, 140, 601, 390, 104, 51, 48]
15.644[50, 74, 136, 599, 394, 102, 51, 47]
15.659[53, 81, 152, 605, 393, 103, 53, 48]
15.681[56, 84, 147, 575, 304, 98, 56, 49]
15.704[58, 84, 151, 557, 295, 100, 58, 48]
15.719[55, 79, 130, 479, 288, 85, 56, 46]
15.742[55, 75, 130, 468, 250, 81, 56, 47]
15.764[50, 66, 102, 383, 267, 79, 54, 43]
15.779[47, 65, 102, 334, 266, 75, 49, 41]
15.801[57, 80, 119, 363, 285, 93, 62, 49]
15.824[63, 88, 133, 454, 284, 106, 65, 51]
15.839[65, 90, 140, 460, 288, 111, 67, 52]
15.862[69, 94, 148, 502, 300, 118, 75, 56]
15.884[76, 102, 162, 489, 316, 126, 80, 61]
15.899[84, 109, 164, 451, 330, 127, 80, 66]
15.922[99, 136, 205, 429, 389, 143, 93, 77]
15.945[102, 140, 208, 490, 429, 144, 94, 78]
15.958[104, 144, 209, 474, 425, 141, 92, 78]
15.981[109, 152, 226, 502, 442, 151, 100, 83]
16.005[99, 142, 216, 519, 429, 141, 95, 79]
16.018[78, 108, 167, 470, 359, 113, 77, 65]
16.042[91, 121, 183, 406, 383, 131, 88, 72]
16.064[93, 123, 191, 444, 367, 134, 91, 74]
16.08[92, 117, 176, 465, 330, 124, 83, 70]
16.101[92, 116, 176, 533, 335, 119, 83, 66]
16.124[95, 124, 183, 545, 362, 131, 90, 71]
16.147[81, 107, 160, 542, 298, 123, 81, 64]
16.161[74, 98, 145, 499, 361, 121, 75, 60]
16.184[76, 103, 151, 472, 390, 139, 80, 64]
16.198[75, 106, 154, 419, 391, 145, 79, 65]
16.222[79, 113, 177, 488, 414, 150, 80, 68]
16.244[77, 111, 179, 520, 404, 139, 76, 65]
16.259[82, 117, 190, 536, 369, 142, 79, 67]
16.282[72, 108, 185, 579, 413, 128, 73, 60]
16.304[75, 112, 201, 605, 411, 128, 75, 63]
16.318[78, 112, 203, 590, 392, 128, 77, 63]
16.342[97, 137, 240, 579, 397, 151, 94, 76]
16.364[102, 145, 254, 630, 469, 156, 97, 79]
16.386[103, 145, 250, 621, 426, 155, 99, 79]
16.402[124, 167, 273, 650, 518, 193, 118, 93]
16.424[132, 179, 294, 648, 520, 216, 131, 101]
16.446[125, 169, 275, 651, 559, 215, 127, 96]
16.461[124, 165, 264, 631, 516, 224, 132, 98]
16.484[124, 167, 266, 636, 504, 225, 131, 99]
16.506[117, 159, 256, 630, 447, 204, 120, 92]
16.522[102, 135, 209, 591, 431, 174, 102, 79]
16.544[101, 132, 205, 675, 433, 165, 96, 78]
16.566[98, 130, 204, 675, 427, 152, 87, 75]
16.582[101, 136, 216, 654, 448, 154, 88, 76]
16.603[99, 138, 215, 656, 431, 159, 95, 79]
16.626[100, 138, 225, 699, 466, 160, 95, 79]
16.642[97, 137, 227, 621, 446, 162, 95, 77]
16.663[95, 134, 223, 663, 436, 160, 93, 77]
16.686[99, 133, 219, 645, 420, 160, 96, 79]
16.702[89, 120, 204, 695, 404, 138, 82, 70]
16.724[99, 132, 204, 662, 436, 150, 92, 80]
16.746[96, 128, 191, 680, 441, 142, 90, 79]
16.762[103, 138, 205, 646, 433, 152, 99, 82]
16.783[101, 138, 199, 669, 486, 164, 102, 82]
16.806[99, 132, 187, 583, 478, 169, 103, 81]
16.822[92, 122, 180, 598, 437, 159, 95, 73]
16.843[101, 131, 190, 630, 406, 169, 100, 79]
16.866[103, 130, 180, 613, 429, 162, 98, 82]
16.882[105, 132, 198, 630, 440, 153, 92, 80]
16.903[107, 135, 193, 631, 458, 161, 97, 82]
16.926[121, 161, 240, 640, 506, 196, 115, 92]
16.942[117, 157, 238, 583, 547, 191, 111, 88]
16.971[119, 161, 241, 619, 545, 205, 118, 90]
16.986[114, 157, 226, 572, 515, 199, 119, 87]
17.002[125, 176, 264, 649, 550, 211, 125, 96]
17.023[165, 220, 303, 639, 584, 244, 151, 125]
17.046[164, 221, 310, 680, 554, 243, 151, 124]
17.062[158, 214, 309, 700, 531, 231, 143, 118]
17.083[158, 214, 314, 748, 532, 236, 142, 119]
17.113[151, 202, 290, 646, 536, 230, 139, 115]
17.128[92, 128, 212, 679, 442, 164, 93, 74]
17.143[96, 133, 202, 665, 438, 162, 95, 78]
17.166[148, 197, 302, 673, 530, 262, 156, 116]
17.19[146, 194, 294, 617, 506, 259, 155, 115]
17.203[151, 204, 309, 631, 482, 267, 158, 116]
17.226[153, 207, 320, 618, 491, 271, 159, 117]
17.242[152, 204, 319, 569, 510, 275, 159, 115]
17.263[112, 154, 234, 509, 418, 201, 108, 83]
17.286[115, 161, 252, 560, 443, 209, 109, 85]
17.303[105, 145, 241, 599, 453, 190, 100, 80]
17.323[108, 150, 232, 610, 432, 188, 101, 83]
17.346[133, 183, 263, 704, 478, 211, 121, 103]
17.368[126, 177, 255, 718, 523, 201, 115, 100]
17.385[128, 178, 247, 685, 552, 198, 119, 101]
17.406[129, 177, 246, 670, 548, 200, 119, 101]
17.428[122, 166, 235, 632, 540, 192, 113, 94]
17.443[99, 136, 206, 595, 517, 184, 99, 74]
17.466[94, 130, 209, 583, 496, 169, 95, 70]
17.488[86, 116, 192, 624, 486, 157, 88, 64]
17.503[85, 112, 175, 635, 489, 164, 94, 65]
17.526[82, 107, 170, 658, 491, 160, 93, 64]
17.548[74, 93, 156, 614, 473, 137, 83, 57]
17.563[93, 115, 172, 594, 487, 173, 100, 73]
17.586[98, 131, 202, 597, 492, 196, 109, 80]
17.609[97, 134, 205, 596, 481, 185, 100, 81]
17.623[108, 147, 214, 573, 496, 196, 107, 89]
17.646[116, 162, 234, 578, 539, 207, 120, 95]
17.67[110, 157, 219, 603, 532, 192, 114, 92]
17.683[125, 169, 247, 627, 527, 192, 124, 99]
17.706[149, 203, 281, 589, 543, 213, 142, 115]
17.728[152, 208, 291, 610, 553, 220, 147, 117]
17.743[169, 228, 333, 677, 553, 251, 162, 131]
17.766[164, 223, 328, 656, 519, 244, 156, 126]
17.789[153, 207, 294, 600, 469, 228, 144, 118]
17.803[164, 224, 340, 628, 502, 251, 156, 124]
17.826[157, 215, 329, 588, 472, 242, 151, 120]
17.848[136, 184, 280, 511, 435, 203, 128, 102]
17.863[141, 193, 300, 568, 506, 217, 134, 106]
17.887[141, 193, 302, 628, 537, 221, 136, 107]
17.908[100, 130, 206, 593, 449, 164, 99, 77]
17.923[127, 167, 246, 635, 490, 191, 115, 96]
17.946[127, 170, 243, 624, 466, 194, 119, 98]
17.968[123, 159, 220, 544, 436, 176, 113, 95]
17.983[124, 164, 227, 506, 427, 182, 117, 97]
18.006[134, 176, 243, 489, 478, 207, 127, 103]
18.028[103, 136, 191, 412, 440, 175, 105, 81]
18.043[97, 125, 179, 385, 448, 157, 94, 75]
18.066[93, 122, 174, 382, 407, 156, 91, 72]
18.088[91, 119, 172, 302, 389, 152, 88, 72]
18.103[66, 92, 137, 311, 360, 112, 68, 56]
18.126[69, 94, 140, 327, 373, 118, 70, 58]
18.148[86, 112, 159, 314, 365, 141, 84, 71]
18.163[95, 127, 173, 271, 374, 162, 99, 77]
18.186[121, 157, 231, 386, 445, 213, 116, 94]
18.208[123, 160, 234, 437, 424, 217, 120, 95]
18.225[139, 185, 275, 508, 460, 244, 137, 108]
18.246[132, 181, 274, 561, 448, 237, 131, 102]
18.268[158, 202, 300, 592, 525, 273, 153, 122]
18.29[137, 173, 243, 514, 478, 230, 136, 106]
18.306[140, 177, 249, 488, 483, 236, 140, 110]
18.328[131, 164, 232, 453, 443, 216, 128, 102]
18.351[129, 158, 222, 409, 440, 210, 125, 101]
18.365[84, 114, 170, 392, 327, 140, 84, 67]
18.388[138, 183, 268, 445, 416, 227, 134, 112]
18.411[135, 180, 269, 459, 425, 221, 127, 109]
18.426[135, 176, 255, 461, 461, 217, 128, 110]
18.448[157, 210, 312, 562, 512, 247, 147, 126]
18.471[161, 218, 327, 583, 523, 255, 152, 130]
18.486[121, 171, 265, 571, 438, 188, 113, 96]
18.51[119, 169, 258, 570, 430, 183, 113, 96]
18.531[112, 161, 246, 539, 385, 176, 106, 90]
18.546[85, 121, 184, 461, 367, 138, 83, 68]
18.584[109, 144, 211, 489, 416, 169, 103, 84]
18.591[112, 148, 226, 495, 427, 191, 110, 87]
18.606[112, 146, 223, 473, 420, 189, 110, 86]
18.628[121, 159, 261, 552, 457, 208, 117, 91]
18.651[117, 153, 251, 559, 446, 206, 115, 89]
18.666[99, 136, 227, 546, 469, 193, 100, 76]
18.688[93, 128, 210, 558, 471, 171, 92, 70]
18.711[98, 138, 226, 597, 542, 184, 99, 76]
18.726[101, 141, 203, 546, 520, 188, 107, 84]
18.748[105, 149, 211, 516, 501, 191, 108, 87]
18.771[105, 145, 203, 504, 441, 175, 106, 88]
18.786[105, 144, 209, 537, 443, 179, 104, 85]
18.808[111, 149, 220, 555, 376, 185, 110, 89]
18.831[104, 138, 219, 578, 398, 167, 98, 80]
18.846[101, 133, 209, 569, 395, 160, 96, 77]
18.868[109, 141, 222, 579, 408, 171, 102, 83]
18.891[108, 142, 217, 556, 419, 174, 103, 84]
18.907[100, 134, 201, 544, 416, 165, 95, 78]
18.936[94, 127, 184, 522, 403, 161, 93, 74]
18.951[101, 140, 207, 549, 428, 166, 99, 76]
18.966[87, 125, 190, 550, 426, 149, 86, 64]
18.988[91, 130, 191, 523, 403, 140, 88, 69]
19.011[96, 138, 215, 577, 451, 153, 93, 71]
19.026[98, 138, 215, 586, 447, 149, 92, 73]
19.048[96, 133, 203, 569, 459, 156, 91, 74]
19.071[93, 132, 208, 537, 472, 157, 90, 74]
19.086[87, 120, 196, 522, 481, 155, 84, 69]
19.108[89, 120, 184, 417, 460, 152, 86, 72]
19.132[86, 116, 175, 374, 435, 148, 85, 70]
19.146[77, 104, 165, 416, 413, 133, 78, 64]
19.176[74, 98, 151, 444, 370, 128, 78, 62]
19.191[73, 97, 154, 540, 356, 121, 77, 61]
19.214[60, 79, 130, 546, 319, 99, 64, 51]
19.236[62, 84, 143, 538, 360, 107, 66, 55]
19.259[60, 83, 138, 503, 360, 109, 67, 54]
19.274[60, 84, 135, 473, 362, 106, 66, 53]
19.288[56, 79, 129, 439, 390, 111, 64, 49]
19.311[51, 71, 113, 416, 369, 107, 60, 49]
19.334[46, 62, 102, 455, 353, 98, 54, 40]
19.348[56, 72, 112, 500, 339, 108, 67, 49]
19.371[56, 73, 119, 514, 364, 117, 67, 51]
19.394[71, 95, 132, 439, 329, 126, 76, 63]
19.408[81, 110, 155, 475, 351, 133, 82, 68]
19.431[87, 118, 161, 436, 337, 142, 86, 72]
19.454[97, 134, 205, 424, 339, 153, 90, 77]
19.468[113, 154, 225, 434, 345, 170, 104, 89]
19.499[111, 151, 231, 502, 377, 168, 101, 84]
19.514[113, 150, 228, 460, 376, 179, 105, 84]
19.528[111, 148, 227, 497, 390, 176, 106, 82]
19.551[104, 142, 201, 469, 407, 167, 101, 80]
19.574[91, 125, 183, 466, 392, 148, 87, 68]
19.588[86, 118, 165, 439, 387, 139, 84, 67]
19.611[75, 108, 150, 441, 371, 119, 74, 61]
19.634[77, 108, 152, 417, 366, 118, 71, 62]
19.648[67, 89, 130, 394, 327, 102, 61, 50]
19.671[66, 90, 144, 418, 375, 119, 65, 52]
19.694[64, 86, 143, 397, 345, 115, 63, 49]
19.708[60, 81, 139, 440, 345, 109, 59, 46]
19.731[68, 98, 170, 482, 366, 130, 66, 54]
19.754[79, 106, 181, 507, 417, 146, 72, 62]
19.768[87, 121, 190, 481, 366, 145, 78, 68]
19.799[99, 134, 214, 499, 379, 159, 87, 75]
19.814[109, 148, 227, 460, 376, 168, 97, 84]
19.829[103, 137, 204, 407, 334, 152, 91, 79]
19.851[106, 146, 213, 396, 366, 162, 105, 86]
19.881[99, 134, 193, 371, 362, 154, 97, 80]
19.888[115, 158, 224, 391, 370, 175, 112, 90]
19.911[109, 150, 218, 396, 391, 171, 107, 84]
19.934[107, 147, 211, 397, 402, 168, 106, 83]
19.948[99, 134, 199, 443, 356, 154, 92, 72]
19.971[97, 130, 193, 429, 344, 147, 89, 72]
20.001[85, 108, 148, 396, 384, 132, 78, 67]
20.008[91, 118, 189, 436, 371, 147, 81, 71]
20.031[97, 125, 197, 438, 368, 154, 86, 75]
20.054[95, 126, 194, 373, 320, 145, 83, 74]
20.076[103, 136, 215, 408, 337, 159, 90, 78]
20.091[93, 126, 205, 366, 254, 145, 84, 69]
20.114[121, 164, 226, 338, 317, 172, 111, 90]
20.128[119, 163, 223, 308, 310, 168, 109, 88]
20.151[118, 161, 221, 285, 318, 170, 109, 87]
20.174[118, 156, 209, 229, 299, 162, 108, 86]
20.197[111, 147, 199, 215, 296, 152, 101, 82]
20.211[68, 84, 118, 151, 189, 94, 60, 48]
20.234[75, 89, 127, 146, 203, 106, 65, 58]
20.256[73, 86, 120, 147, 182, 103, 63, 57]
20.272[57, 70, 93, 126, 165, 85, 51, 48]
20.294[58, 71, 95, 152, 152, 85, 47, 47]
20.316[56, 71, 95, 134, 155, 84, 50, 48]
20.331[37, 48, 65, 128, 107, 53, 35, 31]
20.354[31, 39, 58, 125, 129, 44, 30, 27]
20.377[32, 40, 56, 120, 134, 44, 30, 27]
20.399[24, 28, 37, 78, 128, 37, 26, 22]
20.414[21, 25, 32, 60, 131, 34, 27, 19]
20.436[19, 23, 30, 48, 140, 35, 26, 21]
20.451[19, 23, 26, 34, 114, 30, 24, 19]
20.474[18, 23, 28, 35, 101, 29, 27, 21]
20.497[20, 24, 24, 31, 98, 29, 25, 27]
20.519[21, 24, 25, 29, 78, 29, 19, 27]
20.534[22, 23, 21, 29, 49, 26, 20, 26]
20.556[23, 25, 21, 28, 46, 26, 21, 43]
20.579[29, 24, 20, 25, 31, 27, 24, 64]
20.594[30, 22, 19, 24, 23, 25, 27, 69]
20.616[30, 22, 21, 23, 24, 22, 26, 72]
20.631[31, 22, 20, 21, 23, 23, 29, 74]
20.663[31, 22, 20, 21, 23, 24, 32, 72]
20.676[25, 21, 20, 20, 22, 20, 27, 57]
20.691[23, 21, 20, 19, 22, 20, 25, 50]
20.714[28, 21, 19, 22, 22, 22, 29, 58]
20.737[27, 22, 20, 23, 21, 21, 27, 56]
20.751[25, 18, 24, 24, 22, 20, 23, 48]
20.781[26, 18, 22, 23, 20, 22, 25, 46]
20.797[25, 19, 23, 24, 21, 22, 25, 45]
20.811[20, 19, 22, 21, 21, 22, 21, 28]
20.834[21, 23, 25, 22, 21, 20, 23, 24]
20.856[22, 22, 21, 18, 22, 21, 21, 25]
20.871[21, 22, 22, 19, 24, 22, 19, 22]
20.894[21, 23, 22, 19, 25, 22, 23, 23]
20.916[21, 23, 22, 20, 24, 19, 21, 22]
20.931[22, 21, 20, 20, 24, 20, 22, 22]
20.954[21, 21, 22, 21, 22, 20, 23, 22]
20.977[21, 22, 21, 22, 21, 17, 26, 22]
20.991[20, 21, 21, 23, 19, 18, 23, 21]
21.014[21, 20, 23, 23, 19, 17, 23, 20]
21.036[20, 19, 22, 21, 21, 20, 21, 19]
21.06[19, 19, 21, 21, 20, 19, 21, 19]
21.074[19, 20, 21, 19, 20, 18, 19, 20]
21.096[19, 19, 22, 19, 20, 17, 18, 18]
21.119[17, 20, 19, 20, 21, 18, 20, 20]
21.134[16, 20, 20, 22, 20, 13, 19, 22]
21.156[17, 21, 20, 20, 21, 16, 17, 20]
21.179[17, 21, 21, 21, 20, 16, 19, 19]
21.194[17, 20, 20, 19, 21, 16, 23, 21]
21.216[17, 21, 20, 19, 19, 17, 22, 18]
21.239[17, 23, 20, 20, 17, 19, 25, 16]
21.254[18, 24, 20, 20, 18, 19, 25, 19]
21.276[18, 22, 19, 19, 20, 18, 24, 20]
21.299[20, 22, 18, 20, 21, 19, 24, 19]
21.315[21, 21, 16, 18, 21, 20, 23, 20]
21.337[21, 19, 17, 16, 22, 20, 20, 20]
21.359[19, 17, 17, 18, 23, 19, 20, 17]
21.374[20, 19, 16, 20, 21, 21, 20, 18]
21.397[18, 19, 18, 18, 20, 22, 19, 19]
21.419[17, 18, 20, 18, 20, 20, 20, 18]
21.434[19, 18, 19, 21, 19, 20, 19, 20]
21.456[18, 20, 19, 20, 20, 18, 21, 20]
21.486[18, 20, 21, 18, 20, 20, 20, 18]
21.494[18, 22, 20, 20, 19, 18, 18, 17]
21.516[19, 23, 20, 22, 19, 19, 19, 17]
21.539[17, 23, 20, 19, 18, 19, 21, 17]
21.554[19, 23, 21, 21, 16, 20, 20, 18]
21.576[20, 21, 20, 21, 18, 18, 20, 19]
21.598[20, 21, 21, 20, 18, 20, 22, 18]
21.629[19, 20, 21, 18, 20, 19, 21, 18]
21.637[20, 22, 21, 20, 21, 19, 20, 17]
21.658[20, 21, 21, 18, 21, 19, 21, 16]
21.674[19, 20, 21, 21, 20, 18, 20, 16]
21.697[18, 21, 20, 20, 20, 17, 18, 19]
21.718[19, 21, 20, 21, 20, 17, 20, 19]
21.735[19, 21, 18, 20, 21, 16, 17, 22]
21.764[18, 21, 21, 22, 20, 17, 20, 21]
21.779[17, 23, 20, 21, 19, 18, 21, 22]
21.795[17, 20, 20, 23, 20, 18, 21, 21]
21.817[15, 22, 20, 22, 21, 18, 19, 21]
21.838[15, 22, 23, 23, 20, 20, 19, 18]
21.855[16, 24, 21, 20, 22, 19, 18, 20]
21.877[17, 23, 23, 17, 23, 19, 20, 20]
21.906[18, 24, 23, 18, 25, 18, 20, 20]
21.922[19, 22, 22, 19, 23, 19, 20, 22]
21.935[19, 22, 22, 17, 23, 16, 22, 21]
21.958[19, 21, 23, 18, 23, 17, 22, 21]
21.974[18, 21, 22, 19, 24, 19, 21, 20]
21.995[17, 20, 20, 19, 21, 19, 20, 20]
22.018[16, 19, 20, 18, 21, 20, 23, 17]
22.035[16, 21, 20, 17, 22, 20, 23, 19]
22.056[16, 20, 18, 16, 20, 20, 21, 20]
22.078[17, 21, 21, 20, 21, 20, 21, 20]
22.101[19, 20, 22, 19, 21, 20, 23, 19]
22.116[19, 20, 22, 19, 22, 21, 21, 19]
22.138[19, 19, 20, 21, 22, 21, 20, 19]
22.161[20, 19, 22, 21, 25, 21, 21, 17]
22.176[20, 20, 20, 21, 23, 20, 21, 17]
22.198[18, 21, 20, 22, 22, 20, 20, 18]
22.221[19, 21, 20, 23, 21, 18, 21, 21]
22.245[19, 21, 20, 22, 21, 18, 20, 20]
22.258[18, 20, 22, 22, 19, 18, 21, 20]
22.281[17, 18, 21, 20, 21, 20, 21, 22]
22.296[19, 21, 19, 22, 23, 19, 20, 23]
22.318[17, 20, 19, 20, 23, 19, 19, 21]
22.341[17, 20, 21, 20, 21, 20, 20, 21]
22.356[18, 22, 18, 21, 19, 21, 17, 23]
22.378[17, 23, 20, 21, 20, 19, 18, 20]
22.402[15, 20, 21, 17, 19, 21, 17, 21]
22.416[15, 19, 22, 18, 21, 24, 18, 21]
22.438[15, 20, 22, 18, 22, 22, 17, 23]
22.46[16, 18, 22, 18, 22, 21, 17, 23]
22.476[17, 20, 22, 18, 19, 20, 16, 25]
22.498[19, 21, 21, 17, 20, 21, 16, 23]
22.522[19, 21, 23, 17, 19, 19, 19, 24]
22.536[20, 21, 23, 17, 20, 18, 20, 22]
22.558[19, 23, 22, 16, 20, 19, 22, 21]
22.581[19, 21, 23, 19, 22, 19, 23, 20]
22.596[16, 20, 22, 20, 21, 18, 25, 20]
22.618[15, 21, 22, 20, 20, 19, 22, 18]
22.649[19, 22, 20, 19, 19, 19, 21, 18]
22.656[19, 20, 22, 20, 19, 20, 22, 17]
22.68[19, 20, 22, 19, 21, 20, 20, 17]
22.709[19, 21, 22, 18, 19, 18, 18, 18]
22.716[21, 20, 22, 19, 19, 18, 19, 19]
22.74[18, 20, 22, 20, 21, 18, 19, 19]
22.761[18, 20, 21, 21, 20, 18, 17, 19]
22.775[17, 22, 20, 21, 19, 17, 17, 22]
22.799[20, 21, 19, 22, 22, 19, 16, 20]
22.821[18, 22, 20, 21, 23, 20, 18, 20]
22.835[18, 19, 19, 21, 22, 19, 17, 19]
22.858[18, 21, 19, 23, 23, 20, 18, 20]
22.881[19, 18, 21, 23, 22, 21, 18, 18]
22.896[18, 19, 21, 22, 20, 20, 19, 17]
22.918[18, 19, 19, 23, 20, 19, 19, 20]
22.942[18, 21, 20, 24, 19, 20, 20, 20]
22.956[18, 20, 21, 22, 17, 19, 19, 18]
22.978[17, 20, 19, 21, 17, 18, 20, 20]
23.001[19, 20, 19, 20, 18, 18, 20, 20]
23.023[21, 19, 19, 20, 21, 19, 19, 18]
23.038[22, 18, 17, 19, 22, 19, 19, 20]
23.062[21, 18, 16, 18, 22, 20, 19, 22]
23.083[21, 19, 18, 19, 22, 19, 20, 21]
23.098[22, 19, 19, 19, 25, 19, 19, 22]
23.12[20, 21, 19, 18, 21, 19, 21, 23]
23.143[20, 20, 18, 18, 22, 19, 21, 22]
23.16[22, 20, 20, 20, 21, 17, 22, 20]
23.182[23, 21, 18, 22, 21, 19, 21, 19]
23.204[20, 20, 19, 22, 18, 19, 20, 21]
23.22[22, 19, 21, 22, 21, 19, 22, 19]
23.24[20, 20, 23, 21, 21, 20, 23, 20]
23.263[19, 22, 21, 20, 21, 19, 22, 19]
23.278[19, 22, 24, 20, 20, 19, 22, 19]
23.309[19, 22, 24, 19, 21, 20, 22, 17]
23.323[18, 22, 23, 19, 20, 21, 22, 19]
23.338[16, 22, 22, 20, 18, 20, 21, 18]
23.361[18, 20, 22, 19, 20, 19, 22, 19]
23.383[18, 19, 22, 18, 20, 19, 22, 19]
23.398[18, 19, 23, 19, 20, 20, 20, 20]
23.42[20, 19, 21, 19, 19, 19, 19, 19]
23.443[21, 19, 21, 18, 20, 18, 21, 18]
23.459[22, 19, 21, 19, 20, 20, 20, 19]
23.481[22, 19, 20, 19, 20, 20, 20, 20]
23.503[22, 19, 19, 19, 20, 21, 20, 20]
23.518[20, 19, 20, 19, 21, 21, 21, 22]
23.541[20, 19, 21, 19, 21, 21, 18, 22]
23.563[18, 18, 20, 18, 20, 20, 18, 20]
23.578[17, 17, 19, 19, 19, 20, 18, 20]
23.6[20, 18, 19, 18, 20, 18, 20, 21]
23.623[21, 18, 20, 19, 21, 19, 18, 19]
23.638[24, 16, 20, 18, 21, 21, 20, 22]
23.661[23, 19, 21, 19, 22, 21, 20, 22]
23.683[23, 19, 22, 19, 22, 21, 22, 22]
23.698[21, 18, 21, 20, 21, 20, 22, 22]
23.721[20, 20, 21, 21, 21, 17, 22, 23]
23.743[19, 23, 20, 22, 19, 16, 21, 23]
23.758[20, 23, 23, 22, 19, 18, 22, 23]
23.781[21, 24, 23, 23, 19, 19, 21, 24]
23.803[20, 23, 23, 21, 20, 20, 21, 23]
23.818[21, 24, 22, 21, 19, 20, 21, 23]
23.841[19, 24, 21, 22, 19, 19, 22, 21]
23.863[18, 22, 19, 22, 20, 20, 21, 21]
23.878[20, 22, 18, 20, 21, 18, 21, 19]
23.9[19, 22, 19, 22, 19, 19, 19, 18]
23.923[18, 22, 22, 20, 20, 19, 19, 15]
23.946[20, 21, 23, 21, 22, 19, 19, 16]
23.961[21, 21, 21, 24, 22, 19, 20, 19]
23.983[18, 23, 22, 24, 21, 19, 19, 20]
24.006[18, 23, 21, 24, 23, 18, 21, 24]
24.02[18, 23, 19, 24, 23, 19, 22, 25]
24.043[17, 24, 19, 23, 20, 21, 21, 24]
24.066[17, 24, 21, 20, 19, 19, 20, 23]
24.081[18, 23, 20, 20, 22, 19, 21, 24]
24.103[20, 23, 20, 19, 23, 20, 21, 20]
24.127[19, 23, 19, 21, 21, 18, 20, 21]
24.142[18, 21, 18, 20, 22, 17, 20, 20]
24.163[18, 22, 18, 18, 23, 19, 22, 20]
24.187[18, 21, 19, 20, 22, 20, 24, 20]
24.201[17, 21, 21, 20, 22, 18, 23, 20]
24.223[19, 20, 23, 18, 22, 19, 22, 19]
24.246[20, 21, 24, 18, 22, 19, 22, 19]
24.26[20, 19, 24, 19, 23, 17, 21, 18]
24.283[19, 20, 23, 17, 24, 17, 17, 16]
24.306[22, 18, 22, 18, 22, 21, 18, 17]
24.321[21, 19, 21, 21, 23, 22, 18, 16]
24.343[21, 18, 20, 20, 22, 21, 18, 16]
24.366[22, 20, 21, 20, 22, 22, 18, 17]
24.38[22, 22, 22, 20, 20, 22, 20, 16]
24.403[20, 22, 23, 21, 19, 21, 22, 15]
24.427[20, 21, 23, 21, 18, 20, 22, 16]
24.456[19, 22, 23, 22, 19, 21, 23, 15]
24.463[17, 20, 21, 22, 20, 21, 23, 15]
24.486[17, 20, 21, 24, 19, 21, 21, 17]
24.509[16, 22, 20, 23, 18, 21, 19, 17]
24.523[17, 22, 19, 22, 18, 21, 20, 19]
24.546[20, 19, 20, 23, 18, 20, 18, 20]
24.561[20, 23, 19, 24, 16, 19, 17, 19]
24.583[20, 22, 18, 21, 17, 19, 18, 20]
24.606[22, 22, 17, 23, 20, 16, 18, 21]
24.621[23, 22, 18, 23, 20, 15, 17, 19]
24.643[21, 25, 17, 21, 20, 16, 17, 18]
24.666[21, 23, 18, 20, 21, 16, 20, 19]
24.68[21, 22, 19, 19, 21, 16, 20, 19]
24.711[19, 22, 19, 20, 23, 18, 19, 18]
24.734[21, 24, 19, 19, 23, 21, 20, 18]
24.74[21, 23, 20, 23, 23, 21, 21, 20]
24.763[21, 23, 20, 23, 24, 22, 19, 19]
24.786[20, 23, 20, 24, 25, 22, 20, 19]
24.809[21, 23, 20, 23, 21, 21, 23, 21]
24.831[18, 22, 19, 23, 22, 20, 22, 21]
24.846[18, 22, 19, 21, 22, 20, 21, 20]
24.861[18, 22, 20, 23, 21, 19, 21, 19]
24.883[18, 23, 21, 22, 20, 22, 21, 19]
24.906[17, 20, 22, 23, 20, 22, 19, 16]
24.936[17, 20, 23, 22, 19, 21, 21, 17]
24.943[16, 18, 24, 23, 18, 20, 20, 17]
24.967[15, 19, 23, 22, 18, 21, 20, 18]
24.989[16, 20, 22, 22, 18, 18, 20, 16]
25.003[17, 21, 21, 19, 18, 18, 20, 16]
25.026[19, 21, 22, 20, 18, 19, 19, 15]
25.049[20, 23, 21, 19, 18, 21, 23, 17]
25.063[22, 22, 22, 18, 20, 20, 22, 16]
25.086[22, 21, 21, 18, 23, 21, 22, 22]
25.109[23, 20, 22, 20, 24, 20, 23, 22]
25.123[22, 20, 22, 19, 26, 20, 22, 22]
25.147[21, 21, 22, 21, 27, 19, 19, 24]
25.177[19, 21, 20, 20, 25, 18, 18, 25]
25.183[20, 21, 22, 19, 23, 18, 18, 22]
25.207[17, 23, 21, 19, 25, 18, 18, 22]
25.228[19, 22, 23, 21, 22, 18, 19, 21]
25.243[20, 20, 22, 19, 25, 19, 19, 18]
25.266[20, 18, 23, 21, 25, 20, 21, 18]
25.289[19, 22, 23, 21, 24, 19, 21, 17]
25.303[20, 20, 24, 21, 21, 19, 20, 17]
25.326[20, 20, 23, 18, 21, 18, 20, 17]
25.349[18, 20, 23, 22, 17, 17, 20, 18]
25.363[20, 22, 23, 21, 20, 19, 20, 17]
25.387[21, 20, 23, 23, 21, 20, 18, 19]
25.409[19, 20, 21, 24, 21, 20, 22, 20]
25.423[18, 20, 22, 24, 21, 21, 22, 19]
25.447[21, 21, 21, 21, 22, 20, 22, 18]
25.469[19, 19, 21, 21, 18, 17, 20, 18]
25.483[17, 20, 20, 21, 17, 17, 22, 17]
25.506[19, 21, 22, 20, 17, 17, 21, 17]
25.529[18, 21, 21, 21, 19, 16, 20, 20]
25.543[16, 19, 23, 21, 19, 17, 20, 20]
25.566[17, 19, 22, 22, 19, 21, 21, 21]
25.589[19, 18, 23, 21, 21, 22, 19, 19]
25.603[18, 18, 22, 19, 21, 22, 16, 19]
25.626[17, 17, 21, 19, 22, 23, 17, 17]
25.649[21, 19, 20, 18, 21, 23, 17, 17]
25.663[21, 18, 23, 18, 22, 21, 18, 17]
25.686[19, 20, 22, 17, 22, 20, 18, 18]
25.709[22, 20, 21, 19, 21, 21, 20, 17]
25.723[23, 20, 20, 19, 18, 19, 20, 17]
25.746[21, 19, 21, 20, 20, 21, 19, 18]
25.769[21, 19, 19, 19, 20, 21, 19, 18]
25.783[22, 18, 18, 21, 18, 20, 20, 19]
25.806[20, 17, 20, 20, 21, 21, 18, 19]
25.836[20, 20, 22, 19, 21, 21, 18, 22]
25.851[19, 20, 22, 19, 23, 21, 19, 21]
25.866[20, 21, 22, 19, 24, 21, 19, 20]
25.888[20, 23, 21, 19, 25, 20, 17, 20]
25.911[21, 22, 23, 20, 24, 22, 18, 21]
25.926[20, 20, 21, 20, 24, 22, 17, 17]
25.949[21, 20, 21, 22, 21, 20, 21, 18]
25.971[19, 20, 21, 21, 21, 20, 22, 21]
25.994[18, 18, 23, 21, 20, 22, 23, 20]
26.009[16, 19, 20, 20, 21, 18, 23, 19]
26.039[18, 21, 20, 20, 20, 18, 23, 19]
26.046[19, 23, 21, 18, 21, 19, 20, 19]
26.069[19, 22, 20, 18, 20, 20, 21, 19]
26.091[19, 22, 19, 16, 21, 18, 20, 19]
26.106[20, 22, 21, 17, 20, 19, 22, 22]
26.129[20, 20, 20, 17, 21, 19, 22, 21]
26.151[21, 20, 20, 17, 21, 19, 21, 21]
26.166[22, 20, 20, 20, 21, 18, 20, 20]
26.189[21, 21, 21, 21, 19, 18, 20, 22]
26.211[19, 21, 20, 21, 21, 16, 18, 19]
26.226[17, 23, 20, 20, 22, 17, 20, 19]
26.249[17, 22, 20, 21, 21, 18, 20, 21]
26.271[15, 22, 21, 17, 22, 18, 22, 20]
26.287[16, 21, 19, 20, 24, 19, 20, 18]
26.309[17, 21, 19, 20, 22, 19, 21, 17]
26.339[18, 17, 20, 20, 23, 19, 20, 20]
26.345[17, 20, 19, 19, 24, 17, 22, 19]
26.369[19, 19, 20, 21, 23, 19, 22, 19]
26.391[19, 21, 18, 19, 23, 19, 23, 21]
26.406[20, 20, 18, 19, 24, 20, 24, 21]
26.429[19, 22, 18, 20, 21, 19, 23, 19]
26.451[18, 19, 19, 20, 22, 19, 21, 19]
26.466[18, 21, 19, 19, 22, 18, 20, 20]
26.489[18, 20, 20, 18, 21, 19, 21, 18]
26.511[19, 19, 22, 17, 19, 18, 21, 18]
26.534[19, 19, 20, 17, 20, 21, 22, 18]
26.549[19, 21, 22, 19, 21, 23, 24, 17]
26.572[19, 20, 22, 19, 20, 22, 24, 17]
26.593[19, 20, 21, 21, 19, 23, 22, 18]
26.609[17, 21, 20, 21, 19, 23, 24, 20]
26.63[20, 20, 20, 21, 19, 22, 23, 21]
26.653[19, 19, 18, 22, 18, 21, 22, 19]
26.669[18, 19, 18, 21, 18, 22, 22, 19]
26.691[20, 20, 20, 20, 16, 20, 22, 18]
26.713[21, 19, 19, 21, 18, 20, 19, 20]
26.729[20, 19, 20, 20, 18, 18, 23, 19]
26.751[21, 19, 20, 18, 19, 18, 23, 21]
26.773[21, 21, 24, 18, 18, 18, 22, 21]
26.789[19, 22, 22, 18, 19, 20, 22, 22]
26.81[18, 22, 22, 19, 17, 19, 22, 20]
26.833[18, 22, 23, 20, 19, 19, 20, 20]
26.85[18, 23, 24, 20, 17, 19, 18, 18]
26.87[18, 20, 20, 21, 18, 18, 18, 19]
26.894[17, 18, 21, 22, 20, 19, 19, 20]
26.909[19, 18, 20, 20, 21, 18, 18, 21]
26.93[16, 22, 20, 20, 18, 20, 15, 20]
26.953[17, 21, 20, 19, 21, 21, 18, 20]
26.969[16, 20, 21, 19, 21, 20, 17, 21]
26.99[20, 21, 21, 20, 18, 19, 17, 17]
27.013[18, 21, 22, 21, 19, 19, 18, 18]
27.03[20, 16, 23, 21, 22, 17, 18, 19]
27.051[21, 17, 21, 23, 20, 17, 17, 19]
27.073[21, 20, 21, 23, 21, 20, 18, 18]
27.095[20, 20, 21, 21, 23, 21, 18, 19]
27.112[20, 19, 20, 20, 23, 23, 20, 19]
27.133[19, 21, 20, 21, 22, 23, 23, 19]
27.15[20, 20, 21, 21, 21, 22, 22, 19]
27.178[20, 18, 22, 19, 19, 20, 22, 20]
27.193[19, 18, 20, 21, 21, 20, 22, 21]
27.209[19, 20, 21, 21, 22, 19, 20, 22]
27.231[20, 21, 20, 21, 22, 19, 18, 23]
27.253[18, 22, 20, 19, 24, 20, 18, 22]
27.27[19, 21, 20, 22, 23, 20, 19, 22]
27.292[19, 24, 21, 22, 21, 20, 20, 20]
27.32[20, 22, 19, 22, 19, 21, 20, 20]
27.33[20, 21, 19, 22, 18, 19, 19, 19]
27.35[19, 21, 22, 23, 19, 20, 19, 18]
27.374[20, 21, 22, 20, 21, 21, 20, 19]
27.397[19, 20, 23, 19, 21, 20, 18, 20]
27.41[18, 22, 24, 19, 22, 18, 19, 20]
27.433[20, 22, 25, 19, 22, 20, 20, 20]
27.448[20, 22, 22, 18, 23, 19, 20, 22]
27.47[19, 24, 21, 18, 22, 19, 18, 22]
27.493[21, 22, 20, 17, 21, 20, 20, 21]
27.515[23, 23, 21, 16, 22, 22, 19, 19]
27.531[24, 25, 18, 16, 20, 21, 18, 19]
27.553[24, 25, 22, 20, 19, 20, 18, 17]
27.568[23, 23, 21, 20, 20, 19, 19, 17]
27.591[22, 25, 21, 20, 20, 20, 20, 20]
27.613[21, 25, 22, 20, 19, 18, 19, 22]
27.628[21, 21, 24, 21, 21, 19, 20, 21]
27.668[21, 21, 22, 20, 19, 21, 22, 23]
27.673[21, 21, 22, 19, 20, 21, 21, 24]
27.689[21, 19, 23, 20, 20, 20, 21, 22]
27.71[20, 19, 21, 21, 20, 22, 21, 20]
27.734[17, 20, 20, 21, 22, 22, 20, 22]
27.756[18, 21, 19, 20, 23, 20, 20, 19]
27.772[18, 23, 21, 20, 21, 21, 20, 18]
27.793[17, 23, 20, 20, 21, 22, 19, 21]
27.815[18, 23, 21, 19, 20, 21, 19, 22]
27.831[19, 22, 22, 19, 18, 19, 18, 21]
27.853[20, 24, 23, 20, 16, 22, 18, 23]
27.875[20, 22, 21, 19, 16, 23, 17, 21]
27.891[20, 21, 22, 18, 17, 22, 18, 20]
27.913[20, 20, 20, 21, 20, 21, 17, 22]
27.936[20, 21, 21, 22, 20, 22, 18, 23]
27.95[20, 20, 20, 24, 22, 22, 17, 21]
27.973[21, 20, 23, 25, 21, 19, 21, 22]
27.995[22, 22, 22, 25, 21, 20, 22, 23]
28.01[22, 23, 22, 23, 20, 20, 22, 21]
28.033[21, 22, 22, 21, 24, 18, 22, 19]
28.055[21, 21, 25, 19, 22, 15, 22, 25]
28.071[20, 23, 23, 17, 24, 16, 18, 26]
28.093[21, 21, 23, 20, 22, 16, 16, 24]
28.115[20, 21, 23, 20, 22, 16, 18, 25]
28.131[20, 20, 23, 21, 18, 19, 19, 26]
28.153[19, 21, 22, 21, 22, 20, 22, 21]
28.175[19, 21, 21, 23, 20, 20, 23, 18]
28.19[18, 22, 22, 19, 20, 20, 22, 19]
28.213[18, 21, 21, 19, 21, 21, 21, 18]
28.236[18, 22, 21, 19, 20, 18, 20, 17]
28.251[19, 22, 20, 20, 17, 17, 18, 17]
28.273[18, 21, 21, 20, 18, 17, 17, 18]
28.296[17, 20, 21, 21, 19, 17, 20, 18]
28.311[19, 23, 25, 21, 18, 17, 22, 17]
28.333[19, 24, 24, 19, 18, 18, 20, 18]
28.355[18, 25, 23, 19, 20, 18, 19, 17]
28.37[19, 25, 25, 18, 22, 18, 21, 15]
28.393[18, 25, 25, 19, 22, 17, 19, 17]
28.416[16, 22, 22, 18, 23, 17, 18, 17]
28.431[17, 22, 22, 18, 23, 16, 20, 17]
28.453[18, 21, 22, 20, 22, 17, 20, 21]
28.484[20, 20, 22, 21, 20, 17, 22, 22]
28.491[21, 19, 21, 19, 20, 17, 22, 21]
28.513[22, 19, 22, 19, 19, 18, 22, 22]
28.535[22, 20, 23, 20, 19, 18, 21, 22]
28.55[23, 21, 24, 18, 20, 18, 21, 19]
28.573[20, 22, 22, 18, 19, 18, 18, 17]
28.595[20, 22, 23, 18, 19, 19, 18, 18]
28.61[20, 24, 22, 18, 21, 18, 17, 21]
28.634[18, 24, 20, 17, 20, 18, 17, 21]
28.655[19, 22, 20, 17, 17, 18, 19, 22]
28.67[20, 23, 22, 14, 17, 19, 18, 22]
28.693[21, 23, 22, 15, 18, 20, 18, 24]
28.715[20, 22, 23, 16, 16, 19, 20, 21]
28.738[22, 21, 23, 18, 19, 19, 21, 22]
28.753[20, 23, 22, 19, 20, 19, 20, 21]
28.775[20, 22, 21, 20, 22, 20, 21, 21]
28.798[20, 21, 20, 21, 22, 18, 24, 20]
28.813[21, 22, 21, 21, 22, 19, 22, 21]
28.835[19, 21, 22, 21, 23, 18, 21, 19]
28.858[21, 20, 22, 21, 23, 20, 22, 20]
28.873[21, 22, 21, 20, 22, 17, 22, 22]
28.895[21, 23, 23, 19, 23, 17, 19, 20]
28.918[20, 22, 22, 20, 23, 18, 19, 20]
28.933[20, 23, 21, 19, 22, 18, 20, 21]
28.955[20, 22, 21, 19, 22, 16, 19, 19]
28.978[19, 21, 21, 20, 22, 18, 19, 17]
28.993[18, 21, 21, 21, 21, 18, 18, 19]
29.015[18, 21, 19, 20, 20, 16, 19, 19]
29.038[19, 21, 19, 19, 18, 19, 19, 17]
29.053[18, 21, 20, 18, 17, 19, 21, 21]
29.075[20, 20, 20, 18, 17, 18, 22, 24]
29.107[22, 18, 18, 19, 18, 21, 23, 24]
29.113[20, 18, 18, 18, 17, 22, 23, 24]
29.135[20, 17, 19, 21, 18, 21, 22, 24]
29.158[21, 18, 19, 21, 18, 20, 21, 21]
29.173[24, 18, 20, 22, 20, 22, 21, 18]
29.196[21, 21, 19, 22, 19, 20, 21, 18]
29.218[23, 20, 20, 23, 21, 23, 20, 18]
29.233[22, 22, 19, 20, 20, 23, 21, 18]
29.256[20, 21, 18, 20, 21, 23, 18, 21]
29.279[19, 22, 18, 20, 20, 23, 20, 20]
29.293[20, 19, 19, 18, 22, 23, 19, 21]
29.315[21, 20, 19, 18, 21, 19, 20, 22]
29.339[22, 18, 20, 18, 21, 19, 20, 23]
29.353[22, 19, 20, 19, 21, 19, 21, 21]
29.384[20, 18, 18, 19, 23, 22, 18, 22]
29.399[19, 20, 20, 21, 20, 21, 20, 20]
29.413[19, 21, 20, 22, 20, 21, 21, 18]
29.436[18, 21, 19, 22, 21, 23, 22, 16]
29.476[19, 21, 19, 22, 20, 24, 23, 18]
29.477[20, 22, 23, 21, 19, 22, 23, 17]
29.496[20, 20, 25, 23, 20, 23, 20, 17]
29.519[20, 21, 26, 22, 22, 25, 20, 18]
29.533[20, 21, 25, 22, 23, 23, 17, 20]
29.556[20, 21, 27, 21, 21, 20, 19, 19]
29.579[20, 20, 24, 22, 22, 21, 18, 19]
29.593[20, 22, 21, 18, 22, 20, 21, 19]
29.615[22, 23, 20, 19, 21, 18, 23, 20]
29.639[26, 25, 22, 26, 26, 28, 25, 21]
29.661[29, 32, 30, 78, 46, 37, 25, 24]
29.676[34, 40, 37, 108, 64, 46, 52, 39]
29.699[73, 40, 44, 121, 88, 96, 247, 107]
29.721[104, 55, 52, 126, 100, 167, 320, 228]
29.735[144, 74, 65, 137, 130, 224, 531, 269]
29.758[225, 98, 77, 131, 161, 281, 680, 419]
29.781[274, 102, 79, 114, 190, 307, 734, 478]
29.795[283, 106, 80, 118, 319, 330, 792, 513]
29.818[287, 111, 88, 162, 373, 317, 811, 574]
29.841[286, 104, 88, 169, 392, 304, 713, 723]
29.864[247, 87, 78, 163, 387, 277, 615, 681]
29.878[193, 82, 75, 161, 378, 273, 576, 675]
29.902[176, 77, 72, 151, 275, 236, 448, 656]
29.916[168, 63, 60, 100, 195, 217, 371, 601]
29.938[148, 56, 47, 68, 135, 186, 340, 412]
29.961[120, 47, 42, 56, 115, 192, 271, 362]
29.975[118, 45, 41, 50, 97, 158, 210, 321]
29.998[109, 42, 39, 50, 89, 151, 181, 294]
30.022[90, 53, 72, 182, 179, 165, 170, 232]
30.035[100, 99, 171, 387, 398, 196, 170, 197]
30.059[116, 138, 240, 551, 517, 205, 157, 189]
30.081[137, 172, 297, 655, 590, 241, 162, 152]
30.095[156, 203, 346, 719, 644, 278, 176, 158]
30.119[176, 236, 398, 735, 680, 313, 183, 158]
30.149[183, 257, 417, 795, 693, 331, 188, 151]
30.156[223, 303, 464, 772, 674, 347, 221, 170]
30.178[244, 320, 467, 792, 675, 347, 240, 179]
30.201[243, 319, 459, 820, 690, 347, 240, 177]
30.224[246, 325, 473, 888, 730, 355, 244, 180]
30.239[256, 340, 497, 958, 700, 368, 256, 195]
30.261[221, 295, 437, 1028, 706, 346, 227, 178]
30.284[195, 270, 419, 1004, 750, 336, 205, 162]
30.299[192, 266, 424, 1041, 732, 321, 195, 158]
30.321[175, 239, 383, 1036, 701, 277, 172, 141]
30.335[162, 211, 327, 894, 662, 244, 147, 124]
30.358[157, 206, 318, 789, 663, 242, 141, 117]
30.381[173, 231, 344, 811, 670, 283, 166, 130]
30.395[172, 232, 329, 748, 684, 290, 174, 132]
30.419[181, 241, 333, 749, 694, 320, 187, 142]
30.441[162, 217, 311, 765, 686, 302, 177, 128]
30.456[161, 217, 316, 742, 650, 295, 175, 128]
30.479[134, 175, 268, 668, 540, 248, 147, 107]
30.501[130, 169, 265, 634, 509, 239, 137, 104]
30.515[111, 146, 227, 544, 469, 207, 120, 87]
30.539[107, 139, 217, 490, 453, 204, 115, 84]
30.569[110, 141, 208, 525, 509, 195, 115, 84]
30.584[117, 151, 230, 596, 562, 209, 129, 92]
30.598[102, 128, 200, 580, 538, 188, 116, 79]
30.645[97, 126, 205, 650, 537, 176, 110, 78]
30.647[93, 122, 201, 678, 556, 186, 109, 77]
30.659[80, 109, 190, 660, 484, 173, 98, 68]
30.681[66, 92, 158, 610, 407, 142, 73, 58]
30.704[68, 98, 162, 581, 407, 142, 74, 60]
30.719[67, 95, 143, 501, 338, 132, 73, 59]
30.741[68, 97, 139, 476, 303, 117, 73, 58]
30.772[62, 90, 128, 453, 299, 109, 69, 55]
30.779[56, 81, 109, 410, 320, 100, 62, 48]
30.801[59, 85, 114, 427, 302, 108, 68, 50]
30.824[60, 84, 115, 396, 345, 114, 64, 49]
30.846[66, 87, 124, 373, 347, 114, 68, 52]
30.861[68, 88, 125, 366, 332, 116, 69, 52]
30.883[67, 85, 122, 384, 347, 111, 68, 53]
30.899[64, 78, 111, 386, 366, 109, 62, 51]
30.921[63, 79, 110, 374, 343, 102, 65, 55]
30.944[58, 77, 108, 390, 319, 112, 64, 54]
30.959[57, 76, 109, 383, 324, 110, 65, 54]
30.981[71, 96, 142, 380, 304, 129, 77, 64]
31.004[68, 93, 136, 372, 310, 127, 75, 65]
31.019[69, 97, 154, 412, 444, 146, 80, 64]
31.049[74, 103, 161, 387, 478, 148, 83, 69]
31.072[75, 107, 165, 381, 483, 148, 82, 70]
31.078[70, 99, 150, 369, 482, 142, 78, 62]
31.101[71, 101, 160, 396, 482, 141, 77, 59]
31.124[69, 96, 150, 354, 349, 118, 67, 54]
31.138[61, 86, 135, 346, 315, 104, 60, 45]
31.161[67, 89, 143, 368, 324, 127, 70, 51]
31.184[71, 94, 158, 430, 383, 130, 72, 54]
31.198[73, 97, 162, 434, 375, 131, 73, 58]
31.221[73, 96, 158, 441, 374, 137, 78, 60]
31.243[74, 100, 165, 467, 374, 139, 79, 61]
31.258[71, 99, 169, 526, 406, 127, 76, 57]
31.281[70, 96, 151, 499, 340, 119, 73, 55]
31.304[72, 99, 168, 498, 342, 120, 74, 55]
31.318[74, 102, 173, 497, 338, 116, 76, 61]
31.341[75, 100, 172, 473, 345, 114, 72, 61]
31.364[74, 98, 166, 387, 286, 111, 68, 62]
31.378[68, 94, 171, 395, 298, 115, 66, 60]
31.401[63, 86, 146, 404, 289, 114, 64, 57]
31.424[57, 77, 131, 399, 296, 105, 56, 48]
31.438[49, 68, 121, 442, 288, 97, 51, 42]
31.461[46, 64, 112, 449, 281, 87, 48, 39]
31.484[39, 52, 91, 407, 307, 78, 44, 35]
31.498[40, 50, 82, 352, 317, 77, 44, 36]
31.521[44, 54, 78, 375, 317, 80, 47, 38]
31.543[46, 58, 83, 369, 345, 87, 50, 39]
31.566[47, 61, 86, 441, 374, 92, 52, 40]
31.581[50, 70, 108, 472, 346, 93, 50, 38]
31.603[51, 73, 108, 497, 342, 87, 47, 36]
31.626[50, 69, 106, 469, 344, 88, 44, 34]
31.642[48, 69, 106, 515, 317, 87, 47, 35]
31.663[54, 71, 105, 456, 312, 95, 53, 39]
31.693[50, 62, 93, 431, 328, 94, 54, 38]
31.702[49, 63, 94, 402, 370, 100, 57, 42]
31.723[51, 69, 104, 398, 373, 109, 65, 45]
31.745[52, 69, 109, 308, 376, 104, 61, 44]
31.762[50, 67, 109, 279, 351, 97, 58, 42]
31.783[58, 76, 124, 367, 357, 99, 64, 47]
31.806[63, 80, 130, 447, 316, 99, 64, 50]
31.829[65, 84, 139, 480, 309, 94, 60, 49]
31.844[69, 89, 135, 503, 302, 107, 70, 53]
31.865[75, 99, 137, 514, 352, 124, 80, 59]
31.882[69, 93, 122, 456, 316, 117, 76, 56]
31.903[70, 96, 129, 407, 327, 119, 79, 55]
31.926[70, 94, 116, 411, 354, 117, 77, 56]
31.942[67, 93, 121, 405, 377, 111, 72, 56]
31.964[58, 82, 123, 418, 331, 94, 59, 48]
31.985[61, 81, 122, 422, 341, 100, 60, 47]
32.002[57, 75, 117, 403, 320, 96, 56, 44]
32.023[54, 73, 120, 375, 297, 102, 59, 42]
32.045[56, 70, 116, 324, 308, 106, 57, 40]
32.062[56, 71, 107, 313, 314, 100, 55, 41]
32.083[56, 73, 106, 300, 325, 98, 55, 42]
32.113[54, 71, 98, 295, 345, 97, 54, 41]
32.123[56, 70, 95, 293, 362, 90, 53, 41]
32.143[52, 68, 89, 303, 326, 89, 54, 40]
32.167[54, 72, 100, 299, 343, 98, 59, 42]
32.182[55, 72, 100, 314, 330, 98, 58, 42]
32.203[57, 77, 113, 347, 332, 109, 61, 42]
32.225[57, 76, 110, 329, 324, 115, 63, 45]
32.242[61, 78, 114, 373, 308, 115, 66, 48]
32.263[57, 71, 103, 362, 284, 109, 61, 44]
32.285[61, 86, 140, 434, 335, 116, 69, 49]
32.302[57, 80, 130, 409, 312, 110, 65, 48]
32.323[54, 79, 135, 419, 291, 99, 60, 46]
32.345[52, 78, 132, 385, 324, 97, 58, 44]
32.362[55, 83, 145, 427, 347, 106, 62, 49]
32.383[51, 64, 106, 395, 306, 102, 54, 46]
32.405[53, 69, 107, 426, 375, 99, 54, 46]
32.422[52, 68, 103, 452, 387, 106, 57, 45]
32.45[50, 69, 103, 465, 377, 111, 58, 45]
32.465[45, 65, 97, 461, 372, 105, 54, 40]
32.488[45, 66, 100, 429, 383, 113, 58, 40]
32.503[47, 67, 107, 422, 323, 113, 61, 44]
32.525[48, 68, 105, 401, 298, 111, 58, 41]
32.548[49, 69, 112, 402, 292, 104, 55, 41]
32.578[50, 69, 111, 363, 289, 102, 55, 41]
32.586[51, 69, 107, 372, 264, 90, 54, 40]
32.608[46, 62, 98, 387, 247, 94, 48, 33]
32.623[46, 61, 100, 392, 267, 89, 49, 36]
32.646[44, 57, 89, 384, 273, 87, 49, 36]
32.669[47, 56, 80, 403, 251, 91, 48, 40]
32.684[52, 67, 99, 389, 276, 95, 55, 43]
32.706[67, 89, 117, 340, 303, 113, 75, 60]
32.729[69, 93, 126, 311, 324, 123, 80, 64]
32.744[69, 94, 126, 291, 333, 124, 80, 64]
32.765[65, 92, 126, 267, 346, 122, 79, 62]
32.789[62, 88, 126, 356, 345, 120, 74, 60]
32.805[48, 66, 111, 420, 317, 97, 55, 44]
32.826[43, 62, 103, 431, 320, 84, 47, 37]
32.849[43, 65, 110, 445, 334, 85, 47, 37]
32.863[49, 69, 120, 501, 353, 88, 52, 39]
32.893[43, 60, 105, 428, 338, 85, 48, 36]
32.908[45, 61, 101, 359, 348, 83, 46, 36]
32.923[45, 61, 104, 345, 318, 87, 49, 38]
32.945[46, 59, 98, 375, 289, 83, 48, 36]
32.968[44, 58, 91, 312, 258, 81, 47, 35]
32.983[55, 72, 109, 358, 294, 92, 55, 42]
33.005[61, 83, 121, 419, 308, 105, 61, 46]
33.028[62, 81, 116, 453, 323, 108, 62, 48]
33.059[69, 89, 126, 429, 340, 120, 72, 55]
33.073[69, 90, 126, 425, 341, 119, 72, 56]
33.096[64, 81, 111, 445, 328, 107, 67, 51]
33.103[56, 68, 95, 397, 319, 94, 60, 46]
33.125[58, 70, 101, 442, 356, 93, 59, 47]
33.148[50, 61, 86, 462, 338, 82, 50, 41]
33.163[49, 59, 89, 473, 334, 80, 48, 42]
33.186[55, 73, 109, 435, 331, 100, 62, 51]
33.209[62, 82, 117, 448, 321, 113, 70, 57]
33.224[62, 84, 121, 395, 291, 107, 69, 57]
33.246[61, 85, 129, 375, 290, 105, 69, 56]
33.268[64, 88, 131, 350, 298, 111, 74, 57]
33.291[58, 76, 116, 352, 314, 97, 63, 49]
33.306[65, 93, 140, 346, 325, 110, 70, 53]
33.328[65, 93, 142, 317, 313, 118, 74, 52]
33.343[72, 102, 147, 342, 306, 126, 78, 59]
33.366[71, 100, 143, 361, 291, 124, 74, 57]
33.388[84, 119, 178, 360, 267, 147, 86, 69]
33.41[75, 104, 159, 351, 292, 131, 74, 62]
33.425[76, 106, 160, 343, 287, 132, 75, 64]
33.448[74, 105, 161, 328, 318, 132, 72, 62]
33.47[75, 110, 170, 346, 352, 137, 73, 62]
33.486[61, 91, 138, 323, 358, 111, 61, 50]
33.508[64, 90, 136, 337, 329, 109, 63, 54]
33.53[71, 95, 144, 372, 373, 125, 70, 56]
33.545[74, 101, 158, 414, 394, 138, 77, 59]
33.568[72, 98, 150, 388, 381, 134, 75, 58]
33.59[72, 99, 150, 392, 376, 137, 75, 59]
33.605[69, 97, 149, 392, 415, 134, 72, 56]
33.628[61, 92, 143, 413, 385, 119, 63, 52]
33.65[55, 76, 116, 360, 350, 103, 55, 43]
33.666[58, 79, 125, 427, 398, 115, 62, 45]
33.688[60, 81, 130, 458, 410, 119, 65, 47]
33.711[58, 79, 132, 460, 384, 120, 64, 45]
33.726[71, 97, 145, 430, 382, 127, 77, 54]
33.748[71, 97, 144, 416, 378, 120, 75, 55]
33.77[66, 92, 134, 418, 361, 106, 69, 51]
33.786[73, 101, 151, 384, 361, 104, 75, 56]
33.808[78, 110, 159, 421, 364, 112, 80, 59]
33.839[63, 91, 146, 429, 366, 94, 66, 48]
33.845[64, 91, 144, 432, 363, 103, 71, 54]
33.868[73, 102, 162, 357, 315, 106, 77, 57]
33.891[71, 97, 147, 428, 309, 109, 73, 56]
33.921[73, 97, 150, 409, 303, 113, 77, 59]
33.928[76, 101, 146, 430, 292, 114, 79, 61]
33.95[76, 99, 155, 461, 295, 113, 78, 58]
33.965[71, 94, 138, 469, 372, 118, 75, 58]
33.988[67, 87, 132, 424, 412, 122, 73, 55]
34.018[68, 87, 130, 443, 415, 132, 74, 58]
34.025[74, 89, 141, 454, 456, 137, 79, 62]
34.056[78, 97, 152, 466, 490, 141, 82, 66]
34.079[79, 96, 153, 535, 479, 141, 82, 64]
34.085[87, 111, 180, 564, 455, 158, 90, 74]
34.108[102, 133, 207, 632, 474, 168, 94, 85]
34.131[98, 131, 209, 641, 505, 172, 96, 83]
34.145[101, 135, 210, 655, 525, 183, 99, 86]
34.168[120, 164, 253, 652, 527, 222, 134, 103]
34.19[123, 167, 249, 659, 536, 222, 139, 103]
34.205[109, 152, 238, 679, 556, 205, 138, 93]
34.228[113, 160, 253, 690, 530, 207, 136, 95]
34.25[106, 151, 242, 674, 486, 197, 133, 91]
34.265[92, 139, 230, 687, 519, 165, 102, 75]
34.296[94, 139, 238, 731, 598, 179, 99, 75]
34.311[97, 139, 231, 648, 583, 188, 96, 77]
34.325[95, 131, 212, 685, 590, 190, 109, 77]
34.348[97, 135, 219, 696, 622, 195, 117, 78]
34.371[92, 125, 213, 688, 607, 190, 117, 81]
34.394[94, 134, 227, 698, 523, 182, 117, 83]
34.409[91, 131, 225, 721, 523, 175, 114, 81]
34.43[98, 138, 231, 692, 489, 173, 111, 89]
34.453[104, 148, 244, 707, 464, 171, 109, 89]
34.468[107, 150, 229, 680, 421, 167, 132, 92]
34.491[101, 139, 220, 663, 433, 155, 136, 90]
34.514[110, 151, 228, 647, 449, 196, 152, 104]
34.528[111, 153, 226, 619, 467, 203, 151, 99]
34.551[128, 169, 241, 603, 516, 218, 164, 111]
34.581[161, 212, 296, 617, 574, 271, 180, 141]
34.588[174, 226, 308, 610, 606, 288, 190, 146]
34.611[187, 241, 329, 664, 604, 292, 205, 151]
34.634[189, 244, 333, 703, 646, 305, 211, 154]
34.656[190, 250, 344, 696, 623, 316, 210, 154]
34.671[160, 211, 297, 682, 594, 278, 188, 123]
34.694[171, 224, 327, 718, 672, 287, 199, 135]
34.708[176, 234, 355, 706, 701, 291, 189, 137]
34.731[204, 274, 419, 726, 741, 331, 209, 159]
34.754[196, 262, 400, 719, 742, 318, 206, 158]
34.768[201, 270, 412, 771, 743, 323, 212, 164]
34.791[188, 253, 379, 790, 654, 306, 191, 152]
34.814[175, 235, 347, 790, 638, 288, 182, 143]
34.828[146, 195, 290, 758, 572, 252, 160, 122]
34.851[182, 245, 366, 766, 592, 307, 192, 146]
34.874[192, 259, 397, 755, 635, 317, 191, 150]
34.888[188, 258, 395, 714, 642, 313, 195, 150]
34.911[196, 268, 408, 740, 740, 328, 204, 158]
34.935[202, 272, 404, 724, 734, 314, 202, 159]
34.948[183, 242, 355, 740, 743, 274, 195, 146]
34.971[173, 226, 323, 699, 717, 255, 184, 139]
34.994[182, 239, 346, 709, 792, 285, 186, 146]
35.016[188, 248, 376, 683, 723, 305, 196, 148]
35.031[173, 231, 356, 686, 752, 301, 188, 137]
35.054[170, 229, 360, 751, 773, 308, 176, 135]
35.068[169, 230, 357, 783, 808, 306, 180, 135]
35.091[160, 214, 330, 726, 740, 294, 189, 129]
35.114[147, 197, 289, 680, 776, 275, 179, 124]
35.128[145, 195, 290, 690, 750, 265, 175, 121]
35.151[138, 184, 272, 582, 716, 265, 171, 116]
35.174[130, 173, 266, 558, 635, 258, 165, 109]
35.188[126, 169, 264, 565, 626, 242, 149, 106]
35.211[106, 143, 217, 599, 529, 198, 126, 92]
35.242[115, 155, 240, 584, 543, 219, 139, 99]
35.248[102, 138, 227, 701, 515, 175, 115, 84]
35.271[106, 141, 218, 667, 508, 180, 116, 87]
35.294[101, 134, 211, 653, 520, 187, 111, 81]
35.316[115, 155, 261, 692, 592, 221, 144, 92]
35.331[110, 148, 252, 715, 586, 203, 133, 89]
35.353[110, 150, 247, 639, 569, 214, 141, 91]
35.376[108, 147, 245, 662, 603, 219, 144, 93]
35.391[119, 162, 262, 657, 567, 214, 150, 100]
35.414[104, 139, 218, 573, 506, 194, 122, 88]
35.436[110, 144, 208, 510, 458, 198, 128, 93]
35.459[112, 144, 205, 474, 472, 189, 125, 91]
35.473[117, 155, 220, 441, 466, 191, 126, 94]
35.503[101, 133, 187, 431, 464, 175, 110, 84]
35.511[105, 139, 197, 475, 470, 173, 110, 84]
35.534[106, 150, 234, 539, 471, 182, 110, 83]
35.556[111, 153, 235, 519, 475, 199, 114, 96]
35.571[102, 138, 216, 514, 476, 190, 105, 88]
35.593[109, 152, 233, 545, 471, 197, 115, 91]
35.623[105, 149, 225, 499, 408, 191, 112, 90]
35.631[94, 129, 178, 452, 434, 183, 104, 83]
35.654[83, 121, 178, 497, 446, 160, 94, 66]
35.676[86, 126, 189, 534, 453, 169, 96, 67]
35.699[100, 137, 216, 512, 512, 196, 101, 72]
35.714[118, 155, 238, 523, 538, 213, 116, 86]
35.744[131, 171, 256, 522, 507, 220, 139, 99]
35.751[134, 175, 257, 536, 495, 225, 143, 100]
35.774[148, 192, 283, 566, 533, 261, 162, 114]
35.796[140, 183, 266, 614, 511, 256, 160, 112]
35.811[127, 169, 248, 634, 514, 243, 149, 104]
35.834[127, 170, 251, 648, 578, 262, 145, 106]
35.856[125, 168, 254, 623, 579, 256, 141, 104]
35.871[124, 169, 257, 588, 588, 243, 136, 104]
35.893[121, 166, 250, 533, 597, 229, 131, 102]
35.916[128, 174, 271, 582, 624, 234, 136, 108]
35.93[114, 158, 258, 587, 654, 205, 117, 95]
35.954[131, 177, 283, 599, 680, 238, 135, 108]
35.976[115, 151, 244, 627, 643, 205, 115, 93]
35.99[125, 162, 254, 633, 688, 216, 124, 96]
36.014[136, 172, 265, 590, 684, 229, 135, 101]
36.036[143, 183, 273, 581, 621, 234, 142, 106]
36.075[129, 168, 257, 593, 636, 210, 131, 96]
36.077[140, 188, 285, 557, 669, 231, 142, 105]
36.096[142, 194, 302, 572, 650, 226, 140, 107]
36.11[129, 185, 283, 560, 645, 207, 127, 98]
36.133[124, 174, 274, 625, 663, 206, 125, 97]
36.156[120, 165, 255, 641, 626, 205, 119, 93]
36.17[111, 146, 224, 704, 637, 197, 114, 88]
36.194[106, 136, 208, 677, 577, 200, 117, 87]
36.216[113, 144, 212, 679, 577, 206, 123, 91]
36.23[108, 139, 197, 603, 533, 199, 118, 88]
36.253[113, 147, 197, 569, 553, 197, 121, 91]
36.276[126, 167, 232, 500, 503, 222, 132, 103]
36.298[119, 156, 214, 508, 515, 217, 122, 96]
36.314[104, 136, 194, 479, 504, 206, 112, 88]
36.336[115, 152, 218, 465, 536, 222, 122, 97]
36.359[122, 166, 251, 528, 551, 234, 128, 105]
36.374[107, 148, 223, 497, 539, 194, 109, 87]
36.397[107, 147, 225, 491, 539, 196, 114, 90]
36.419[123, 166, 247, 530, 578, 238, 125, 99]
36.434[121, 162, 242, 576, 558, 222, 118, 94]
36.464[114, 152, 228, 512, 502, 207, 112, 87]
36.479[115, 154, 232, 495, 473, 212, 113, 89]
36.494[109, 148, 221, 480, 453, 197, 104, 82]
36.516[105, 141, 204, 480, 360, 174, 105, 80]
36.539[102, 137, 197, 414, 432, 182, 102, 78]
36.554[93, 123, 168, 392, 437, 168, 94, 69]
36.577[92, 116, 158, 415, 469, 164, 92, 67]
36.598[95, 121, 165, 436, 505, 181, 100, 71]
36.622[98, 132, 188, 414, 558, 165, 91, 75]
36.643[105, 143, 202, 486, 538, 172, 103, 84]
36.658[108, 152, 222, 484, 536, 184, 108, 88]
36.674[108, 151, 220, 561, 543, 190, 112, 91]
36.696[126, 178, 279, 613, 562, 218, 128, 106]
36.718[116, 163, 258, 597, 518, 208, 125, 99]
36.742[120, 164, 265, 599, 532, 223, 133, 104]
36.756[116, 155, 250, 605, 548, 218, 131, 101]
36.778[121, 167, 272, 639, 544, 225, 135, 107]
36.794[111, 156, 259, 617, 507, 214, 126, 96]
36.823[105, 150, 261, 682, 551, 216, 121, 92]
36.838[88, 132, 241, 696, 528, 185, 100, 75]
36.854[99, 146, 254, 713, 520, 193, 107, 84]
36.875[90, 130, 230, 652, 522, 173, 96, 72]
36.898[86, 112, 175, 658, 493, 161, 92, 70]
36.914[101, 129, 195, 644, 521, 195, 112, 82]
36.935[111, 143, 225, 670, 563, 212, 123, 93]
36.966[114, 151, 230, 629, 574, 223, 129, 95]
36.974[132, 172, 255, 626, 605, 254, 147, 109]
36.995[133, 175, 261, 584, 628, 255, 146, 108]
37.033[151, 195, 263, 552, 633, 297, 173, 126]
37.042[151, 196, 246, 427, 645, 307, 175, 125]
37.055[157, 203, 258, 467, 637, 315, 179, 131]
37.079[150, 196, 248, 430, 588, 299, 171, 126]
37.094[144, 189, 239, 419, 588, 294, 169, 123]
37.116[119, 161, 222, 430, 549, 227, 128, 100]
37.138[116, 159, 217, 485, 472, 218, 126, 97]
37.155[129, 177, 249, 548, 462, 220, 130, 101]
37.175[119, 165, 232, 539, 462, 208, 121, 93]
37.205[125, 173, 238, 546, 460, 213, 125, 98]
37.22[121, 167, 235, 556, 424, 217, 125, 94]
37.237[116, 158, 225, 530, 396, 198, 118, 90]
37.258[84, 113, 156, 467, 377, 164, 99, 69]
37.288[100, 137, 200, 564, 416, 187, 114, 82]
37.296[96, 136, 202, 597, 412, 174, 111, 80]
37.318[109, 153, 221, 552, 429, 182, 121, 90]
37.341[117, 164, 232, 534, 472, 206, 128, 97]
37.356[112, 154, 222, 513, 491, 202, 121, 94]
37.378[150, 191, 257, 433, 536, 266, 154, 121]
37.4[147, 186, 250, 425, 515, 264, 149, 117]
37.415[153, 190, 266, 520, 548, 297, 161, 125]
37.445[151, 188, 265, 508, 526, 288, 158, 122]
37.46[154, 196, 283, 578, 594, 306, 166, 126]
37.475[109, 145, 222, 556, 532, 244, 129, 94]
37.498[110, 147, 225, 546, 538, 240, 131, 95]
37.52[134, 182, 271, 476, 540, 263, 148, 111]
37.535[136, 185, 278, 483, 552, 268, 149, 115]
37.558[144, 191, 287, 408, 490, 269, 152, 120]
37.58[170, 228, 335, 437, 566, 309, 183, 143]
37.603[175, 236, 341, 426, 565, 320, 191, 149]
37.618[148, 198, 284, 439, 549, 264, 162, 129]
37.64[144, 193, 273, 445, 511, 249, 156, 122]
37.655[135, 182, 254, 459, 514, 259, 153, 114]
37.678[105, 145, 212, 520, 477, 216, 117, 86]
37.701[123, 168, 251, 569, 551, 226, 126, 96]
37.723[115, 158, 237, 541, 535, 220, 121, 89]
37.738[132, 175, 262, 553, 584, 242, 138, 100]
37.76[152, 203, 293, 535, 570, 237, 157, 119]
37.775[156, 201, 284, 467, 593, 248, 162, 122]
37.806[145, 187, 262, 418, 569, 245, 153, 115]
37.82[146, 188, 261, 473, 564, 245, 156, 115]
37.835[129, 171, 238, 489, 562, 235, 143, 106]
37.858[102, 136, 197, 472, 597, 207, 115, 82]
37.882[97, 131, 194, 504, 524, 183, 108, 79]
37.895[83, 112, 169, 523, 504, 163, 96, 68]
37.925[85, 116, 179, 536, 526, 156, 93, 70]
37.94[93, 131, 190, 543, 514, 150, 94, 74]
37.955[94, 133, 195, 589, 461, 152, 95, 76]
37.978[113, 159, 239, 604, 510, 195, 122, 93]
38.002[121, 165, 249, 571, 519, 197, 127, 96]
38.015[133, 179, 268, 540, 514, 226, 142, 105]
38.038[141, 185, 284, 555, 538, 245, 154, 113]
38.068[149, 195, 300, 545, 571, 271, 165, 119]
38.075[134, 174, 264, 596, 556, 245, 147, 105]
38.098[148, 197, 293, 608, 630, 284, 162, 117]
38.129[140, 190, 290, 721, 685, 275, 154, 111]
38.135[129, 179, 266, 680, 652, 257, 141, 102]
38.158[163, 228, 334, 687, 693, 312, 176, 132]
38.18[169, 238, 348, 601, 732, 323, 182, 139]
38.203[156, 221, 327, 627, 707, 306, 169, 130]
38.218[156, 218, 318, 507, 663, 302, 167, 128]
38.24[152, 213, 317, 556, 695, 304, 164, 126]
38.263[106, 143, 213, 576, 653, 228, 112, 85]
38.278[98, 128, 205, 608, 625, 217, 100, 76]
38.3[100, 128, 200, 644, 578, 199, 102, 81]
38.331[97, 124, 192, 656, 573, 192, 102, 84]
38.338[117, 147, 226, 689, 614, 208, 117, 98]
38.362[128, 167, 253, 644, 614, 206, 126, 106]
38.383[127, 164, 248, 720, 633, 214, 129, 106]
38.405[130, 171, 256, 724, 623, 232, 136, 108]
38.42[139, 187, 293, 780, 659, 251, 148, 114]
38.443[139, 190, 300, 770, 603, 240, 144, 110]
38.466[144, 198, 325, 815, 607, 256, 153, 116]
38.48[143, 198, 325, 764, 607, 255, 148, 114]
38.511[144, 197, 324, 757, 649, 248, 148, 113]
38.518[141, 188, 298, 681, 594, 231, 141, 112]
38.54[137, 185, 285, 694, 628, 238, 142, 113]
38.563[135, 178, 256, 674, 606, 225, 135, 109]
38.579[142, 184, 253, 694, 578, 226, 141, 113]
38.6[143, 190, 271, 715, 580, 238, 147, 114]
38.631[151, 205, 296, 755, 625, 259, 156, 117]
38.638[144, 193, 283, 771, 608, 252, 148, 111]
38.66[131, 177, 260, 740, 621, 249, 140, 102]
38.683[126, 173, 261, 713, 609, 250, 141, 100]
38.706[113, 155, 229, 633, 558, 225, 128, 90]
38.72[102, 144, 203, 565, 498, 199, 112, 80]
38.743[114, 162, 231, 443, 465, 194, 114, 86]
38.758[120, 170, 249, 454, 477, 194, 116, 91]
38.78[132, 181, 259, 370, 514, 206, 121, 100]
38.803[135, 182, 255, 364, 533, 211, 125, 104]
38.818[149, 196, 275, 385, 539, 226, 139, 114]
38.848[146, 192, 266, 416, 566, 239, 140, 115]
38.863[159, 211, 292, 417, 550, 258, 155, 125]
38.878[159, 211, 298, 458, 535, 255, 156, 126]
38.9[154, 204, 295, 489, 508, 253, 152, 122]
38.923[145, 190, 276, 481, 497, 245, 148, 121]
38.938[139, 178, 258, 488, 451, 229, 145, 116]
38.96[131, 167, 249, 558, 498, 234, 143, 110]
38.983[120, 159, 234, 578, 493, 211, 132, 104]
38.998[132, 171, 249, 672, 504, 222, 140, 112]
39.02[124, 164, 251, 707, 543, 228, 134, 103]
39.043[128, 169, 261, 698, 563, 237, 139, 107]
39.058[124, 166, 263, 659, 509, 218, 130, 103]
39.08[135, 181, 295, 659, 553, 248, 148, 113]
39.111[136, 185, 306, 555, 579, 251, 151, 112]
39.126[139, 188, 302, 543, 547, 237, 151, 114]
39.14[138, 185, 295, 548, 542, 235, 150, 112]
39.171[130, 171, 274, 552, 535, 224, 143, 106]
39.186[117, 159, 255, 556, 541, 230, 131, 94]
39.2[120, 162, 247, 547, 514, 232, 134, 97]
39.223[124, 169, 260, 509, 512, 238, 135, 100]
39.246[122, 167, 258, 541, 493, 225, 129, 98]
39.26[131, 179, 265, 542, 544, 235, 129, 104]
39.283[125, 163, 239, 577, 475, 194, 117, 97]
39.306[113, 146, 220, 612, 440, 161, 100, 87]
39.32[110, 140, 211, 620, 472, 175, 100, 83]
39.343[106, 134, 205, 582, 484, 180, 99, 79]
39.366[89, 110, 174, 545, 423, 156, 93, 66]
39.381[128, 172, 254, 488, 464, 214, 132, 104]
39.403[126, 170, 248, 408, 472, 215, 129, 101]
39.426[132, 183, 272, 392, 427, 218, 141, 109]
39.44[144, 203, 300, 446, 464, 236, 151, 119]
39.463[146, 205, 306, 451, 457, 239, 154, 122]
39.486[155, 208, 303, 430, 438, 250, 161, 123]
39.5[157, 210, 308, 440, 444, 253, 162, 124]
39.523[143, 188, 270, 422, 438, 234, 144, 111]
39.546[160, 213, 318, 482, 482, 266, 165, 126]
39.56[165, 218, 322, 477, 534, 277, 167, 129]
39.591[135, 183, 280, 530, 502, 230, 137, 107]
39.606[140, 192, 290, 562, 526, 235, 142, 113]
39.62[157, 217, 322, 580, 532, 253, 160, 128]
39.643[129, 175, 252, 489, 456, 209, 130, 105]
39.666[121, 167, 249, 641, 399, 192, 123, 97]
39.681[113, 153, 230, 618, 440, 187, 118, 92]
39.703[106, 139, 210, 611, 407, 183, 111, 85]
39.726[101, 130, 215, 662, 422, 174, 107, 82]
39.74[104, 134, 215, 676, 435, 175, 110, 85]
39.763[114, 146, 221, 572, 449, 196, 119, 91]
39.794[122, 158, 231, 534, 445, 206, 125, 98]
39.824[136, 179, 257, 534, 529, 238, 137, 106]
39.826[130, 176, 250, 504, 518, 250, 132, 102]
39.846[128, 179, 258, 475, 516, 254, 132, 102]
39.876[131, 187, 287, 482, 568, 265, 139, 109]
39.883[131, 192, 302, 539, 593, 270, 141, 109]
39.906[129, 190, 300, 533, 534, 258, 143, 110]
39.92[136, 193, 289, 494, 612, 260, 146, 112]
39.951[134, 185, 277, 481, 588, 249, 141, 108]
39.967[121, 164, 227, 419, 518, 215, 123, 95]
39.98[109, 141, 188, 320, 428, 189, 109, 83]
40.003[89, 112, 147, 254, 386, 152, 85, 66]
40.028[44, 54, 79, 185, 192, 77, 42, 34]
40.048[32, 35, 56, 161, 174, 49, 28, 27]
40.063[29, 31, 49, 120, 161, 49, 29, 24]
40.087[26, 28, 43, 99, 158, 46, 29, 23]
40.109[26, 29, 39, 85, 160, 46, 28, 24]
40.123[24, 27, 33, 70, 162, 43, 27, 22]
40.146[21, 26, 29, 67, 152, 40, 27, 23]
40.168[18, 25, 25, 52, 117, 33, 23, 22]
40.183[18, 22, 23, 37, 95, 29, 22, 24]
40.206[18, 23, 22, 30, 101, 30, 22, 22]
40.228[19, 22, 22, 26, 89, 29, 23, 22]
40.243[19, 23, 22, 21, 82, 27, 21, 21]
40.266[19, 22, 18, 23, 82, 27, 21, 21]
40.296[18, 22, 17, 23, 73, 23, 20, 18]
40.303[19, 19, 17, 21, 39, 19, 20, 19]
40.326[18, 19, 17, 21, 32, 19, 18, 18]
40.348[17, 19, 17, 22, 28, 18, 17, 18]
40.371[20, 19, 19, 20, 25, 17, 19, 48]
40.386[20, 22, 17, 20, 22, 16, 20, 52]
40.409[21, 23, 17, 20, 22, 18, 19, 53]
40.432[21, 21, 18, 19, 20, 18, 21, 53]
40.446[23, 20, 19, 20, 18, 20, 23, 55]
40.468[22, 21, 20, 19, 18, 20, 21, 33]
40.483[23, 19, 21, 19, 20, 20, 20, 25]
40.506[21, 19, 21, 21, 19, 17, 20, 24]
40.529[21, 20, 22, 22, 19, 18, 20, 23]
40.543[20, 20, 23, 20, 20, 18, 20, 22]
40.566[19, 19, 22, 21, 19, 19, 22, 20]
40.588[19, 19, 23, 21, 17, 19, 23, 21]
40.611[20, 19, 23, 20, 18, 20, 22, 22]
40.627[20, 19, 23, 21, 19, 20, 21, 22]
40.648[19, 20, 23, 23, 19, 20, 19, 20]
40.663[21, 22, 21, 22, 19, 19, 16, 19]
40.686[21, 23, 19, 22, 20, 18, 18, 17]
40.709[19, 23, 19, 20, 18, 18, 18, 16]
40.723[21, 22, 18, 18, 19, 18, 18, 17]
40.746[22, 22, 19, 19, 19, 18, 19, 17]
40.769[20, 20, 21, 19, 21, 17, 20, 17]
40.783[20, 21, 22, 19, 21, 19, 19, 17]
40.806[20, 21, 22, 21, 23, 19, 19, 17]
40.829[20, 21, 21, 20, 23, 20, 23, 18]
40.843[19, 20, 20, 17, 22, 19, 22, 18]
40.866[18, 20, 20, 18, 20, 19, 21, 18]
40.888[17, 17, 18, 19, 22, 17, 20, 18]
40.903[18, 17, 19, 19, 21, 19, 22, 18]
40.934[17, 19, 21, 19, 20, 18, 19, 17]
40.948[16, 19, 21, 20, 21, 18, 18, 16]
40.963[19, 19, 20, 19, 22, 19, 19, 18]
40.988[18, 20, 20, 21, 21, 20, 19, 18]
41.008[19, 21, 18, 20, 22, 21, 17, 18]
41.031[20, 20, 17, 20, 21, 21, 16, 20]
41.046[20, 22, 16, 21, 21, 21, 20, 19]
41.068[20, 22, 19, 21, 20, 19, 21, 19]
41.091[19, 21, 18, 18, 20, 20, 22, 20]
41.106[19, 19, 21, 18, 19, 16, 23, 19]
41.136[20, 19, 21, 19, 21, 18, 25, 18]
41.151[19, 19, 24, 18, 22, 18, 23, 19]
41.166[19, 21, 22, 19, 22, 19, 23, 18]
41.188[21, 21, 24, 20, 22, 19, 23, 16]
41.211[22, 22, 21, 20, 22, 20, 22, 17]
41.226[20, 22, 24, 20, 19, 18, 20, 17]
41.248[21, 22, 21, 20, 19, 19, 19, 18]
41.271[20, 19, 22, 21, 20, 17, 19, 18]
41.286[19, 20, 22, 21, 19, 16, 18, 19]
41.308[18, 20, 22, 21, 22, 16, 19, 19]
41.347[18, 20, 21, 20, 23, 15, 19, 20]
41.349[18, 20, 21, 20, 23, 15, 19, 19]
41.368[18, 21, 19, 20, 24, 17, 17, 21]
41.391[19, 20, 19, 21, 24, 18, 17, 20]
41.405[18, 20, 20, 22, 20, 18, 21, 21]
41.428[19, 19, 19, 22, 19, 19, 22, 20]
41.451[19, 21, 21, 22, 19, 19, 21, 20]
41.466[20, 21, 22, 21, 19, 21, 21, 21]
41.488[19, 20, 21, 19, 20, 21, 22, 21]
41.519[18, 20, 20, 19, 20, 21, 18, 20]
41.525[18, 21, 20, 20, 19, 22, 17, 20]
41.549[18, 19, 18, 18, 19, 22, 17, 20]
41.571[19, 19, 18, 19, 17, 20, 18, 19]
41.593[19, 18, 19, 19, 17, 22, 18, 20]
41.617[20, 18, 19, 21, 18, 22, 16, 21]
41.63[21, 18, 19, 21, 19, 22, 19, 21]
41.662[22, 17, 20, 20, 19, 23, 19, 21]
41.669[20, 18, 21, 22, 20, 22, 20, 20]
41.691[21, 20, 20, 22, 22, 19, 20, 21]
41.714[23, 20, 19, 21, 21, 19, 24, 22]
41.729[22, 20, 20, 21, 21, 19, 22, 21]
41.75[21, 19, 19, 21, 21, 19, 23, 21]
41.773[21, 20, 20, 18, 21, 20, 22, 21]
41.789[18, 18, 20, 19, 19, 22, 22, 19]
41.81[18, 17, 20, 18, 18, 22, 19, 16]
41.833[17, 18, 20, 18, 20, 21, 20, 20]
41.849[18, 20, 21, 18, 20, 21, 21, 20]
41.872[17, 19, 20, 20, 20, 20, 23, 20]
41.887[18, 18, 21, 20, 18, 18, 22, 20]
41.917[17, 20, 21, 19, 19, 18, 23, 23]
41.93[16, 21, 22, 20, 17, 20, 23, 19]
41.953[15, 20, 21, 22, 18, 19, 21, 19]
41.969[15, 21, 22, 21, 18, 19, 19, 18]
41.99[15, 21, 21, 19, 21, 19, 20, 18]
42.013[17, 20, 22, 19, 21, 19, 19, 15]
42.029[18, 17, 21, 18, 20, 18, 18, 16]
42.05[19, 18, 26, 18, 18, 19, 19, 17]
42.072[21, 18, 24, 18, 19, 19, 19, 19]
42.089[20, 19, 26, 18, 18, 18, 19, 19]
42.111[19, 17, 26, 19, 18, 18, 21, 19]
42.133[18, 18, 25, 20, 20, 19, 22, 21]
42.148[18, 18, 22, 19, 24, 21, 23, 20]
42.178[18, 20, 23, 20, 23, 20, 22, 20]
42.193[19, 20, 22, 68, 34, 21, 22, 21]
42.215[20, 21, 22, 74, 36, 23, 20, 20]
42.231[21, 21, 22, 75, 36, 22, 22, 20]
42.253[21, 22, 21, 76, 34, 19, 21, 22]
42.268[21, 19, 22, 78, 35, 21, 22, 21]
42.29[22, 20, 21, 45, 24, 23, 22, 21]
42.313[20, 21, 21, 32, 22, 21, 22, 21]
42.329[19, 19, 23, 31, 21, 20, 19, 19]
42.35[19, 20, 23, 27, 22, 21, 20, 18]
42.373[19, 20, 22, 25, 20, 19, 22, 19]
42.388[19, 22, 21, 23, 19, 15, 21, 18]
42.412[19, 22, 21, 24, 20, 17, 21, 21]
42.441[19, 23, 21, 23, 23, 18, 23, 20]
42.448[18, 23, 21, 22, 22, 16, 22, 21]
42.47[17, 23, 21, 19, 22, 16, 20, 20]
42.501[16, 23, 22, 21, 24, 18, 21, 19]
42.515[15, 22, 21, 20, 23, 18, 22, 19]
42.53[15, 22, 20, 21, 19, 17, 18, 18]
42.553[18, 22, 21, 20, 21, 18, 19, 18]
42.568[19, 22, 20, 21, 23, 21, 21, 19]
42.59[18, 19, 19, 20, 24, 20, 19, 20]
42.613[20, 18, 20, 20, 23, 19, 19, 18]
42.637[20, 21, 18, 24, 26, 22, 21, 19]
42.65[18, 21, 17, 35, 26, 21, 21, 19]
42.673[17, 21, 18, 36, 25, 21, 19, 19]
42.688[18, 23, 21, 36, 24, 19, 20, 19]
42.71[17, 24, 22, 37, 25, 20, 23, 20]
42.733[18, 23, 23, 35, 24, 19, 21, 19]
42.748[19, 21, 24, 24, 24, 21, 22, 18]
42.77[18, 22, 27, 21, 22, 19, 22, 19]
42.792[19, 20, 24, 21, 23, 20, 22, 18]
42.808[20, 21, 23, 39, 26, 21, 18, 18]
42.832[20, 21, 23, 48, 25, 19, 21, 20]
42.853[18, 23, 22, 50, 24, 19, 21, 20]
42.868[19, 22, 20, 51, 26, 20, 20, 20]
42.89[19, 21, 20, 51, 24, 19, 22, 20]
42.912[17, 21, 20, 39, 20, 20, 23, 21]
42.935[17, 20, 21, 28, 20, 20, 21, 18]
42.95[18, 20, 22, 27, 20, 20, 24, 19]
42.973[18, 19, 23, 29, 20, 20, 24, 18]
42.996[17, 19, 23, 30, 22, 21, 23, 19]
43.01[20, 20, 22, 30, 23, 18, 23, 19]
43.033[20, 20, 20, 29, 23, 19, 22, 21]
43.055[20, 20, 21, 26, 22, 19, 19, 21]
43.07[22, 21, 21, 23, 20, 19, 17, 21]
43.092[22, 21, 20, 22, 18, 19, 16, 20]
43.115[19, 19, 21, 20, 18, 21, 17, 21]
43.13[22, 20, 22, 32, 22, 20, 17, 20]
43.153[22, 20, 21, 33, 22, 19, 17, 22]
43.175[21, 19, 19, 34, 23, 19, 18, 23]
43.19[21, 19, 21, 34, 24, 19, 20, 23]
43.213[21, 20, 22, 35, 24, 17, 19, 23]
43.235[20, 20, 22, 24, 21, 18, 21, 23]
43.25[19, 19, 21, 21, 22, 20, 20, 20]
43.272[18, 19, 24, 21, 22, 20, 20, 21]
43.295[18, 20, 21, 21, 22, 21, 20, 21]
43.31[19, 19, 20, 21, 22, 20, 20, 19]
43.334[17, 20, 20, 21, 21, 19, 19, 19]
43.355[18, 20, 21, 25, 21, 19, 21, 21]
43.37[19, 22, 21, 26, 22, 18, 21, 19]
43.394[19, 21, 22, 26, 21, 17, 20, 18]
43.415[18, 23, 24, 27, 22, 18, 21, 19]
43.43[19, 21, 22, 27, 21, 19, 20, 19]
43.454[19, 23, 24, 24, 21, 18, 19, 20]
43.477[18, 20, 21, 23, 19, 17, 19, 21]
43.49[19, 21, 22, 22, 18, 19, 20, 23]
43.513[21, 19, 20, 20, 19, 18, 19, 22]
43.535[19, 19, 20, 24, 20, 18, 17, 22]
43.558[18, 18, 19, 25, 20, 20, 18, 22]
43.573[20, 21, 21, 25, 20, 20, 19, 23]
43.595[19, 23, 21, 25, 22, 19, 17, 20]
43.61[18, 22, 22, 26, 19, 19, 17, 21]
43.633[19, 23, 24, 23, 21, 19, 20, 20]
43.655[21, 23, 23, 25, 22, 17, 19, 18]
43.671[20, 22, 24, 24, 21, 18, 19, 19]
43.693[21, 20, 23, 23, 21, 18, 21, 19]
43.715[24, 22, 23, 22, 23, 19, 23, 20]
43.73[23, 20, 23, 22, 22, 19, 21, 22]
43.753[21, 20, 23, 19, 22, 19, 23, 22]
43.775[22, 20, 21, 21, 22, 21, 24, 21]
43.79[21, 20, 20, 22, 20, 20, 23, 21]
43.813[19, 19, 21, 23, 20, 19, 22, 19]
43.843[20, 20, 19, 22, 20, 21, 25, 18]
43.858[19, 20, 21, 22, 19, 22, 23, 21]
43.873[18, 21, 21, 20, 19, 20, 23, 19]
43.895[18, 22, 21, 21, 21, 20, 23, 22]
43.918[18, 21, 22, 20, 19, 21, 22, 21]
43.941[18, 20, 23, 20, 18, 17, 17, 21]
43.955[18, 20, 23, 21, 18, 17, 20, 18]
43.979[19, 20, 24, 20, 17, 17, 19, 19]
43.993[21, 20, 24, 18, 17, 18, 20, 15]
44.015[22, 20, 23, 19, 16, 18, 20, 17]
44.038[22, 21, 22, 21, 17, 18, 21, 20]
44.052[23, 21, 21, 21, 18, 20, 20, 22]
44.075[23, 21, 21, 21, 20, 20, 19, 21]
44.114[21, 22, 20, 22, 20, 20, 18, 23]
44.116[18, 20, 20, 21, 23, 20, 19, 22]
44.135[20, 20, 22, 20, 22, 19, 19, 20]
44.158[19, 22, 21, 19, 22, 19, 17, 21]
44.173[21, 20, 21, 19, 21, 19, 20, 22]
44.195[21, 19, 21, 19, 20, 19, 21, 21]
44.219[21, 20, 20, 19, 17, 20, 20, 22]
44.233[20, 21, 20, 17, 16, 22, 19, 22]
44.255[18, 19, 22, 18, 16, 20, 19, 22]
44.279[17, 20, 21, 18, 17, 21, 19, 22]
44.3[17, 19, 21, 17, 18, 19, 19, 21]
44.315[18, 20, 22, 19, 18, 19, 20, 21]
44.338[19, 19, 20, 21, 18, 19, 21, 20]
44.353[19, 18, 20, 21, 20, 19, 23, 19]
44.375[18, 19, 21, 22, 21, 19, 21, 17]
44.398[18, 19, 21, 22, 21, 22, 20, 19]
44.422[16, 19, 21, 24, 20, 21, 20, 18]
44.435[14, 22, 21, 23, 22, 19, 19, 17]
44.458[18, 23, 21, 22, 21, 21, 18, 18]
44.473[19, 22, 20, 22, 19, 20, 17, 19]
44.495[19, 26, 22, 23, 19, 17, 18, 18]
44.518[20, 27, 21, 20, 20, 18, 17, 17]
44.533[21, 24, 23, 20, 18, 18, 18, 20]
44.555[20, 25, 22, 22, 17, 17, 17, 19]
44.578[19, 26, 22, 24, 19, 18, 18, 19]
44.593[20, 23, 20, 23, 18, 18, 18, 20]
44.623[20, 22, 21, 25, 18, 18, 18, 19]
44.639[19, 22, 20, 24, 18, 19, 16, 16]
44.653[18, 23, 19, 23, 19, 18, 18, 20]
44.675[19, 22, 20, 21, 18, 19, 18, 20]
44.7[18, 22, 21, 22, 20, 21, 20, 19]
44.713[18, 21, 21, 20, 21, 22, 20, 20]
44.735[18, 21, 21, 24, 21, 21, 21, 21]
44.759[19, 21, 22, 23, 22, 21, 19, 16]
44.773[18, 21, 22, 24, 22, 20, 19, 16]
44.795[18, 20, 21, 25, 24, 20, 17, 17]
44.819[18, 21, 20, 25, 22, 21, 17, 18]
44.841[19, 22, 19, 22, 24, 20, 17, 17]
44.863[20, 20, 19, 22, 24, 21, 19, 18]
44.878[21, 20, 19, 20, 24, 22, 18, 18]
44.901[20, 19, 20, 18, 21, 19, 19, 17]
44.915[19, 20, 20, 18, 21, 19, 21, 17]
44.939[19, 21, 22, 18, 19, 19, 21, 17]
44.961[19, 21, 21, 17, 19, 19, 20, 18]
44.975[20, 20, 20, 18, 20, 21, 20, 18]
44.998[19, 21, 21, 19, 23, 22, 20, 18]
45.021[19, 19, 21, 19, 22, 21, 18, 21]
45.035[20, 18, 20, 22, 24, 19, 19, 21]
45.059[18, 19, 20, 23, 23, 19, 16, 21]
45.081[18, 20, 22, 23, 21, 20, 17, 24]
45.095[18, 17, 22, 24, 20, 20, 17, 23]
45.119[20, 18, 24, 24, 23, 19, 16, 19]
45.141[18, 18, 22, 20, 21, 21, 18, 21]
45.155[20, 20, 23, 20, 21, 21, 21, 20]
45.178[20, 19, 22, 21, 22, 16, 21, 18]
45.201[20, 21, 21, 21, 21, 17, 20, 18]
45.215[19, 21, 21, 20, 17, 20, 20, 19]
45.238[19, 21, 22, 20, 19, 20, 19, 19]
45.261[18, 19, 21, 20, 19, 20, 17, 19]
45.275[17, 19, 21, 18, 20, 21, 18, 22]
45.299[19, 19, 21, 20, 20, 20, 18, 22]
45.321[19, 18, 20, 19, 20, 18, 19, 22]
45.343[18, 20, 18, 19, 20, 19, 20, 21]
45.359[20, 21, 20, 19, 22, 20, 20, 22]
45.381[20, 20, 20, 22, 21, 19, 20, 21]
45.395[20, 19, 19, 21, 21, 19, 23, 20]
45.418[21, 20, 21, 22, 21, 19, 22, 20]
45.441[22, 20, 21, 22, 21, 18, 24, 21]
45.455[21, 19, 20, 23, 18, 20, 23, 21]
45.478[21, 20, 19, 20, 18, 19, 22, 19]
45.509[20, 20, 19, 19, 18, 19, 21, 19]
45.515[21, 21, 19, 18, 21, 20, 20, 20]
45.538[20, 19, 21, 20, 20, 20, 16, 20]
45.568[20, 19, 21, 19, 21, 18, 20, 19]
45.575[22, 18, 23, 21, 21, 20, 22, 18]
45.599[21, 19, 23, 21, 22, 21, 19, 20]
45.621[20, 18, 23, 20, 20, 20, 22, 20]
45.635[19, 19, 22, 21, 21, 19, 24, 20]
45.659[20, 19, 21, 21, 21, 21, 21, 21]
45.681[18, 19, 20, 20, 20, 19, 20, 21]
45.696[19, 19, 20, 20, 19, 19, 22, 20]
45.719[18, 21, 20, 19, 20, 18, 20, 21]
45.741[20, 21, 21, 18, 20, 20, 19, 21]
45.763[19, 21, 21, 22, 19, 21, 18, 20]
45.778[19, 22, 20, 24, 21, 20, 20, 21]
45.801[20, 21, 22, 25, 20, 21, 18, 19]
45.823[20, 21, 21, 25, 19, 22, 19, 17]
45.839[20, 21, 21, 24, 19, 21, 20, 17]
45.861[19, 21, 22, 22, 21, 19, 20, 16]
45.891[20, 22, 22, 20, 21, 19, 18, 19]
45.898[20, 22, 21, 20, 21, 19, 21, 22]
45.921[20, 20, 23, 20, 22, 19, 21, 22]
45.943[18, 19, 23, 23, 22, 18, 22, 23]
45.958[21, 22, 22, 22, 21, 18, 23, 24]
45.988[21, 20, 22, 22, 19, 19, 24, 21]
46.003[20, 20, 22, 20, 20, 18, 22, 19]
46.018[20, 22, 21, 28, 20, 18, 23, 20]
46.048[22, 22, 20, 29, 19, 18, 21, 20]
46.063[19, 19, 19, 30, 20, 17, 23, 20]
46.086[22, 21, 22, 31, 21, 19, 23, 22]
46.101[23, 19, 21, 32, 20, 20, 23, 21]
46.123[21, 20, 21, 28, 20, 19, 22, 21]
46.139[19, 22, 21, 24, 21, 19, 22, 19]
46.161[23, 23, 22, 23, 20, 20, 19, 19]
46.184[20, 21, 19, 22, 21, 18, 20, 19]
46.198[19, 22, 19, 23, 21, 18, 21, 19]
46.221[20, 21, 19, 23, 24, 20, 20, 19]
46.259[22, 20, 18, 24, 23, 19, 20, 21]
46.26[19, 18, 18, 26, 24, 19, 20, 21]
46.281[21, 20, 19, 28, 25, 19, 18, 20]
46.303[22, 18, 20, 27, 26, 19, 18, 22]
46.318[22, 18, 19, 25, 22, 18, 19, 21]
46.342[20, 18, 21, 25, 23, 20, 20, 22]
46.363[21, 22, 22, 23, 22, 20, 21, 22]
46.378[18, 22, 23, 22, 21, 19, 22, 22]
46.401[18, 24, 23, 21, 19, 19, 21, 21]
46.423[17, 23, 22, 22, 23, 20, 21, 20]
46.438[17, 23, 22, 23, 21, 18, 21, 18]
46.461[15, 21, 21, 25, 20, 19, 21, 17]
46.483[18, 21, 20, 22, 20, 19, 23, 19]
46.498[17, 19, 20, 23, 21, 20, 21, 18]
46.521[18, 22, 21, 23, 18, 18, 20, 18]
46.544[19, 22, 21, 21, 20, 18, 20, 18]
46.558[20, 20, 20, 19, 20, 17, 20, 17]
46.581[21, 21, 19, 20, 20, 17, 15, 16]
46.604[21, 21, 20, 18, 19, 16, 19, 18]
46.632[21, 20, 20, 17, 20, 17, 19, 18]
46.642[21, 20, 18, 18, 17, 17, 19, 20]
46.671[20, 19, 18, 18, 19, 17, 22, 21]
46.685[17, 18, 18, 17, 22, 18, 23, 22]
46.701[18, 18, 19, 19, 23, 18, 24, 20]
46.723[17, 19, 18, 19, 23, 18, 24, 22]
46.745[15, 20, 19, 25, 23, 17, 26, 19]
46.762[17, 21, 18, 27, 22, 18, 24, 18]
46.783[20, 21, 20, 29, 18, 19, 24, 18]
46.806[19, 22, 20, 29, 19, 18, 23, 17]
46.822[19, 20, 21, 31, 19, 18, 22, 15]
46.843[21, 19, 23, 27, 18, 19, 20, 19]
46.873[19, 20, 22, 26, 19, 19, 21, 19]
46.881[17, 20, 21, 24, 20, 18, 22, 20]
46.911[18, 19, 21, 26, 18, 18, 19, 22]
46.934[17, 18, 21, 29, 21, 19, 22, 22]
46.941[15, 16, 18, 30, 22, 21, 23, 21]
46.97[18, 14, 21, 30, 22, 23, 22, 21]
46.989[18, 13, 21, 31, 21, 22, 22, 20]
47.002[18, 13, 22, 30, 23, 23, 23, 19]
47.023[19, 15, 22, 25, 21, 22, 22, 19]
47.045[19, 16, 24, 23, 22, 20, 19, 20]
47.062[18, 17, 22, 24, 23, 18, 19, 22]
47.083[20, 21, 24, 23, 23, 19, 19, 24]
47.105[19, 21, 22, 22, 20, 18, 19, 22]
47.138[18, 21, 22, 27, 21, 18, 19, 22]
47.15[18, 23, 23, 28, 21, 17, 20, 20]
47.165[19, 24, 23, 29, 21, 17, 22, 17]
47.182[21, 22, 22, 29, 22, 17, 22, 16]
47.203[21, 23, 22, 29, 23, 18, 21, 17]
47.227[22, 22, 23, 25, 22, 18, 23, 17]
47.242[23, 21, 22, 26, 21, 18, 23, 17]
47.263[22, 20, 22, 26, 21, 19, 24, 18]
47.301[18, 21, 22, 25, 20, 20, 26, 20]
47.303[18, 20, 21, 27, 20, 21, 25, 21]
47.33[16, 20, 21, 27, 22, 22, 23, 21]
47.345[18, 19, 22, 25, 22, 22, 26, 20]
47.369[17, 19, 25, 26, 22, 23, 23, 20]
47.383[19, 20, 25, 27, 25, 22, 21, 18]
47.412[18, 20, 26, 26, 25, 21, 22, 18]
47.428[21, 20, 26, 26, 21, 21, 23, 18]
47.467[18, 19, 24, 25, 23, 22, 20, 20]
47.468[19, 20, 20, 23, 21, 20, 19, 20]
47.481[19, 20, 22, 25, 19, 20, 20, 20]
47.504[19, 22, 20, 29, 21, 21, 20, 19]
47.525[17, 22, 20, 28, 23, 22, 18, 19]
47.542[17, 23, 22, 29, 22, 21, 17, 18]
47.562[18, 21, 23, 28, 22, 22, 18, 18]
47.585[18, 21, 21, 24, 22, 21, 18, 19]
47.602[19, 20, 23, 25, 22, 21, 17, 22]
47.63[19, 20, 23, 27, 22, 21, 18, 21]
47.645[20, 21, 23, 28, 22, 21, 18, 23]
47.668[18, 22, 25, 28, 22, 21, 18, 22]
47.683[18, 20, 25, 28, 22, 22, 18, 22]
47.705[18, 21, 25, 27, 21, 22, 17, 22]
47.727[17, 21, 24, 28, 20, 21, 20, 20]
47.743[20, 21, 25, 27, 20, 20, 19, 21]
47.765[21, 21, 25, 27, 20, 19, 18, 21]
47.787[22, 20, 24, 29, 21, 18, 20, 22]
47.803[23, 21, 24, 31, 21, 16, 21, 22]
47.825[24, 19, 25, 32, 22, 15, 20, 23]
47.856[20, 17, 23, 32, 22, 16, 22, 20]
47.862[22, 16, 21, 34, 22, 18, 23, 22]
47.885[20, 17, 23, 33, 22, 18, 22, 19]
47.907[20, 16, 22, 28, 22, 20, 22, 18]
47.924[20, 16, 23, 26, 23, 20, 19, 17]
47.946[21, 17, 22, 27, 22, 22, 17, 19]
47.967[20, 17, 23, 24, 24, 22, 17, 18]
47.982[20, 19, 21, 24, 24, 22, 17, 18]
48.006[20, 19, 24, 24, 24, 22, 17, 17]
48.027[19, 21, 20, 27, 24, 23, 21, 19]
48.043[18, 20, 21, 26, 26, 19, 21, 20]
48.065[20, 22, 21, 26, 25, 18, 22, 20]
48.088[21, 20, 20, 26, 24, 19, 21, 20]
48.102[19, 20, 18, 27, 24, 20, 22, 20]
48.133[20, 21, 20, 28, 24, 21, 21, 19]
48.147[20, 22, 20, 28, 22, 22, 22, 17]
48.17[19, 21, 23, 28, 23, 22, 23, 18]
48.185[18, 21, 23, 27, 22, 21, 22, 17]
48.207[19, 22, 22, 29, 20, 21, 25, 17]
48.223[19, 21, 23, 26, 21, 20, 24, 17]
48.245[19, 22, 24, 26, 21, 19, 23, 16]
48.268[20, 22, 22, 26, 22, 20, 23, 16]
48.282[21, 24, 23, 27, 21, 19, 23, 17]
48.305[22, 23, 25, 28, 24, 20, 20, 17]
48.344[21, 23, 23, 29, 23, 18, 19, 17]
48.345[22, 21, 22, 28, 23, 19, 19, 19]
48.365[21, 24, 22, 27, 21, 19, 16, 19]
48.388[22, 21, 22, 26, 21, 19, 16, 18]
48.41[23, 21, 20, 31, 20, 18, 15, 19]
48.425[24, 22, 21, 29, 22, 19, 18, 20]
48.447[23, 24, 21, 31, 23, 18, 18, 19]
48.47[23, 22, 22, 32, 25, 19, 17, 20]
48.485[21, 21, 21, 37, 25, 21, 21, 21]
48.507[22, 22, 22, 32, 25, 20, 20, 21]
48.522[20, 22, 22, 54, 27, 20, 21, 19]
48.545[21, 19, 23, 56, 30, 22, 24, 19]
48.567[22, 19, 22, 57, 28, 21, 24, 19]
48.59[21, 21, 24, 59, 29, 18, 21, 20]
48.622[21, 24, 22, 64, 29, 19, 22, 21]
48.636[20, 23, 25, 50, 27, 20, 19, 22]
48.65[20, 22, 25, 46, 23, 18, 20, 22]
48.666[17, 23, 26, 48, 25, 19, 22, 22]
48.687[18, 24, 26, 65, 26, 19, 20, 20]
48.71[17, 21, 26, 63, 26, 18, 22, 19]
48.725[18, 20, 27, 62, 25, 18, 22, 18]
48.747[17, 21, 26, 63, 26, 19, 20, 18]
48.77[20, 21, 25, 64, 25, 17, 19, 17]
48.785[18, 20, 25, 46, 23, 18, 19, 20]
48.816[20, 20, 26, 44, 22, 18, 18, 20]
48.83[19, 21, 21, 55, 24, 19, 19, 20]
48.845[21, 23, 22, 57, 24, 17, 18, 20]
48.876[18, 23, 23, 57, 25, 19, 19, 23]
48.89[19, 22, 23, 53, 25, 20, 19, 21]
48.905[18, 21, 24, 55, 26, 22, 18, 21]
48.927[18, 22, 24, 42, 23, 22, 18, 22]
48.95[17, 19, 24, 38, 21, 23, 20, 21]
48.965[18, 20, 24, 43, 22, 22, 18, 18]
48.987[17, 19, 23, 69, 25, 21, 19, 19]
49.01[17, 22, 21, 73, 25, 22, 19, 19]
49.026[18, 22, 22, 73, 27, 21, 18, 18]
49.048[18, 22, 21, 73, 27, 21, 17, 18]
49.07[17, 21, 21, 71, 26, 22, 21, 19]
49.085[20, 23, 20, 50, 28, 22, 22, 18]
49.117[20, 21, 22, 55, 28, 20, 21, 18]
49.13[19, 19, 21, 54, 25, 21, 24, 18]
49.145[18, 20, 21, 54, 26, 22, 23, 19]
49.167[19, 21, 21, 55, 28, 23, 20, 17]
49.19[17, 19, 21, 50, 26, 25, 20, 19]
49.205[19, 21, 21, 38, 25, 24, 20, 20]
49.227[19, 21, 20, 37, 25, 23, 18, 20]
49.258[21, 22, 21, 35, 25, 23, 19, 21]
49.265[22, 23, 20, 31, 25, 20, 18, 20]
49.287[21, 23, 22, 47, 24, 18, 17, 18]
49.318[22, 22, 21, 52, 27, 18, 20, 19]
49.326[22, 23, 22, 51, 28, 19, 18, 18]
49.347[23, 22, 25, 52, 27, 18, 17, 17]
49.37[21, 23, 27, 57, 25, 17, 17, 18]
49.385[22, 23, 25, 42, 24, 18, 20, 18]
49.407[22, 24, 25, 39, 21, 17, 17, 19]
49.43[21, 22, 24, 40, 22, 18, 19, 20]
49.445[20, 21, 22, 39, 23, 18, 23, 22]
49.467[19, 19, 21, 42, 27, 18, 23, 23]
49.491[19, 20, 20, 63, 30, 18, 23, 23]
49.513[16, 19, 21, 65, 34, 19, 23, 21]
49.527[16, 20, 21, 68, 34, 19, 22, 20]
49.552[17, 20, 22, 69, 34, 19, 24, 19]
49.573[19, 23, 21, 63, 32, 18, 24, 21]
49.587[18, 23, 23, 44, 29, 17, 22, 20]
49.611[19, 23, 23, 36, 24, 17, 22, 21]
49.633[20, 23, 23, 31, 23, 16, 24, 22]
49.656[19, 23, 22, 33, 23, 17, 18, 20]
49.671[19, 22, 23, 32, 23, 18, 19, 17]
49.693[18, 20, 21, 62, 24, 19, 19, 20]
49.708[20, 20, 21, 64, 26, 18, 21, 20]
49.731[18, 19, 21, 68, 27, 18, 20, 19]
49.753[19, 22, 23, 68, 27, 20, 19, 19]
49.767[20, 22, 22, 68, 27, 21, 20, 20]
49.791[21, 24, 23, 46, 25, 20, 22, 17]
49.813[19, 22, 21, 48, 24, 21, 21, 19]
49.827[20, 23, 24, 43, 23, 21, 20, 20]
49.851[20, 22, 21, 42, 22, 20, 21, 21]
49.873[18, 22, 22, 41, 23, 20, 20, 20]
49.887[16, 21, 21, 37, 24, 19, 18, 24]
49.911[17, 22, 23, 30, 24, 19, 18, 21]
49.933[16, 20, 19, 29, 23, 19, 18, 24]
49.947[16, 19, 21, 27, 24, 19, 17, 23]
49.971[18, 21, 21, 31, 23, 18, 18, 25]
50.009[19, 21, 22, 33, 24, 21, 19, 22]
50.01[19, 23, 18, 33, 23, 21, 20, 22]
50.031[19, 25, 22, 33, 24, 22, 20, 17]
50.061[22, 23, 20, 34, 21, 21, 22, 19]
50.067[21, 21, 21, 34, 24, 21, 21, 17]
50.091[20, 21, 22, 31, 24, 17, 21, 17]
50.113[22, 20, 23, 31, 23, 20, 20, 19]
50.128[22, 17, 21, 33, 24, 19, 20, 20]
50.15[19, 19, 23, 31, 24, 20, 18, 20]
50.173[19, 20, 21, 38, 27, 20, 19, 20]
50.187[19, 20, 20, 58, 27, 21, 19, 21]
50.219[17, 21, 22, 63, 29, 19, 18, 21]
50.233[16, 20, 23, 64, 28, 20, 21, 21]
50.247[18, 22, 24, 65, 29, 20, 20, 22]
50.271[19, 22, 24, 61, 24, 20, 19, 23]
50.301[20, 23, 25, 51, 25, 20, 19, 23]
50.307[21, 22, 24, 62, 26, 19, 20, 21]
50.338[23, 23, 23, 64, 26, 18, 20, 20]
50.353[22, 22, 23, 64, 26, 19, 22, 18]
50.367[21, 22, 24, 68, 27, 20, 22, 17]
50.391[19, 19, 22, 63, 27, 22, 22, 17]
50.413[18, 21, 21, 48, 27, 21, 21, 19]
50.436[16, 21, 22, 41, 28, 21, 20, 19]
50.466[17, 20, 19, 72, 32, 21, 17, 20]
50.474[17, 20, 20, 78, 35, 19, 20, 21]
50.496[17, 22, 20, 78, 34, 17, 21, 21]
50.518[16, 19, 20, 78, 32, 20, 21, 22]
50.541[18, 18, 18, 79, 33, 20, 21, 22]
50.572[16, 18, 18, 53, 29, 18, 21, 21]
50.574[18, 16, 19, 40, 23, 20, 20, 21]
50.593[21, 17, 19, 38, 24, 20, 20, 22]
50.616[21, 20, 19, 43, 24, 18, 19, 19]
50.646[22, 23, 21, 43, 23, 18, 18, 21]
50.653[21, 22, 21, 40, 23, 20, 20, 21]
50.692[20, 23, 23, 40, 22, 18, 23, 19]
50.693[18, 24, 22, 41, 22, 17, 22, 18]
50.721