[73, 36, 83, 136, 45, 24, 29, 35]
1.478[75, 41, 86, 143, 46, 27, 31, 42]
1.502[66, 38, 64, 136, 45, 29, 32, 42]
1.523[66, 42, 59, 118, 40, 28, 33, 41]
1.538[56, 41, 56, 115, 38, 29, 32, 34]
1.561[47, 41, 60, 120, 39, 29, 30, 35]
1.583[46, 36, 67, 109, 39, 27, 24, 25]
1.6[42, 38, 67, 107, 42, 24, 23, 24]
1.621[43, 35, 68, 120, 45, 23, 22, 26]
1.643[52, 37, 76, 131, 45, 21, 20, 26]
1.658[53, 36, 75, 131, 48, 21, 24, 29]
1.681[49, 38, 70, 147, 51, 22, 25, 31]
1.704[54, 39, 76, 146, 50, 22, 27, 33]
1.718[55, 37, 76, 133, 47, 24, 24, 32]
1.741[58, 34, 69, 123, 47, 27, 26, 34]
1.763[58, 37, 82, 134, 47, 29, 25, 30]
1.786[57, 35, 81, 124, 42, 27, 25, 33]
1.801[58, 33, 81, 118, 37, 29, 26, 35]
1.823[56, 34, 81, 132, 38, 29, 27, 36]
1.838[49, 33, 85, 132, 38, 27, 26, 37]
1.861[52, 30, 75, 117, 38, 25, 26, 36]
1.883[62, 34, 69, 118, 44, 27, 27, 36]
1.898[56, 33, 81, 121, 50, 26, 27, 32]
1.921[64, 34, 96, 124, 55, 27, 27, 33]
1.952[61, 35, 102, 151, 66, 31, 29, 30]
1.966[60, 35, 106, 157, 68, 33, 30, 34]
1.982[51, 31, 108, 178, 68, 32, 30, 33]
2.003[73, 33, 100, 206, 77, 34, 32, 36]
2.026[68, 32, 88, 199, 74, 35, 32, 33]
2.041[68, 31, 82, 195, 65, 30, 29, 33]
2.063[67, 31, 80, 206, 63, 26, 27, 31]
2.086[67, 32, 81, 196, 63, 27, 24, 28]
2.103[45, 29, 78, 166, 45, 23, 20, 25]
2.124[47, 33, 84, 203, 55, 24, 19, 26]
2.146[51, 35, 81, 199, 63, 25, 21, 27]
2.161[49, 34, 78, 187, 63, 27, 20, 27]
2.184[47, 37, 78, 175, 62, 26, 24, 29]
2.206[41, 39, 80, 176, 63, 25, 25, 28]
2.223[34, 34, 75, 144, 59, 26, 24, 31]
2.244[32, 32, 79, 143, 53, 25, 24, 31]
2.266[41, 36, 75, 134, 51, 23, 26, 31]
2.281[42, 32, 75, 151, 52, 25, 25, 30]
2.303[46, 30, 72, 146, 51, 27, 23, 31]
2.326[48, 30, 64, 135, 45, 23, 26, 30]
2.341[45, 31, 63, 128, 45, 24, 29, 31]
2.363[41, 28, 70, 152, 52, 26, 28, 30]
2.386[40, 31, 69, 142, 52, 26, 28, 31]
2.409[43, 35, 71, 148, 51, 23, 29, 35]
2.432[52, 39, 72, 149, 53, 25, 28, 37]
2.446[55, 40, 71, 145, 49, 22, 26, 36]
2.469[57, 42, 64, 123, 44, 22, 26, 38]
2.491[63, 42, 67, 119, 40, 23, 27, 41]
2.514[60, 39, 79, 130, 44, 23, 25, 39]
2.53[55, 39, 81, 125, 43, 22, 23, 36]
2.551[51, 37, 75, 121, 43, 25, 22, 36]
2.566[49, 35, 84, 133, 43, 23, 21, 33]
2.589[51, 36, 85, 143, 46, 21, 22, 30]
2.612[50, 36, 68, 123, 42, 22, 25, 31]
2.626[46, 32, 65, 128, 42, 24, 25, 30]
2.649[53, 33, 71, 132, 46, 24, 25, 35]
2.672[69, 38, 74, 123, 45, 25, 27, 39]
2.686[64, 34, 72, 113, 46, 26, 24, 36]
2.709[65, 36, 80, 127, 46, 27, 24, 33]
2.739[68, 39, 92, 128, 48, 39, 25, 33]
2.746[71, 43, 105, 128, 50, 52, 28, 29]
2.769[52, 44, 188, 136, 48, 70, 34, 24]
2.792[52, 44, 212, 130, 48, 77, 38, 26]
2.807[50, 53, 238, 126, 50, 79, 39, 28]
2.829[50, 63, 273, 204, 66, 77, 40, 29]
2.851[40, 65, 293, 216, 65, 73, 39, 27]
2.866[40, 71, 267, 209, 67, 59, 34, 27]
2.889[43, 80, 382, 221, 65, 50, 30, 24]
2.912[44, 80, 388, 222, 64, 59, 30, 25]
2.926[40, 75, 366, 148, 52, 56, 29, 25]
2.949[48, 77, 360, 126, 47, 51, 27, 27]
2.971[49, 77, 386, 125, 49, 50, 24, 29]
2.986[46, 74, 294, 111, 48, 57, 27, 28]
3.017[50, 73, 301, 99, 47, 49, 27, 26]
3.033[50, 71, 307, 105, 42, 47, 27, 28]
3.046[45, 73, 304, 101, 43, 47, 28, 28]
3.069[44, 88, 319, 154, 61, 51, 30, 30]
3.091[43, 89, 348, 151, 63, 54, 27, 31]
3.106[39, 98, 392, 166, 66, 54, 28, 35]
3.129[41, 101, 397, 169, 68, 54, 27, 34]
3.151[41, 98, 407, 174, 69, 53, 29, 34]
3.174[46, 97, 397, 149, 63, 49, 29, 33]
3.189[50, 99, 358, 156, 64, 36, 29, 34]
3.212[59, 105, 445, 156, 58, 33, 28, 34]
3.226[62, 118, 465, 172, 65, 35, 29, 35]
3.249[61, 133, 534, 174, 65, 46, 31, 33]
3.271[61, 121, 513, 155, 54, 50, 30, 33]
3.294[56, 120, 529, 151, 54, 51, 30, 31]
3.309[48, 124, 502, 143, 59, 52, 31, 30]
3.332[42, 112, 490, 113, 49, 51, 31, 32]
3.346[43, 103, 441, 103, 46, 57, 33, 33]
3.369[51, 126, 454, 108, 49, 54, 34, 34]
3.391[52, 130, 481, 117, 49, 55, 36, 35]
3.414[59, 154, 500, 120, 47, 53, 35, 41]
3.429[59, 162, 521, 151, 53, 52, 34, 40]
3.452[61, 166, 529, 169, 54, 35, 31, 40]
3.474[56, 151, 531, 166, 52, 32, 29, 42]
3.489[58, 154, 509, 157, 52, 29, 28, 43]
3.511[55, 137, 457, 166, 53, 26, 26, 35]
3.534[54, 130, 445, 148, 49, 27, 25, 34]
3.549[55, 124, 431, 149, 54, 28, 24, 44]
3.572[53, 123, 423, 154, 53, 25, 22, 43]
3.594[53, 117, 405, 153, 49, 25, 23, 45]
3.609[56, 101, 364, 132, 45, 27, 22, 47]
3.632[57, 109, 377, 122, 42, 25, 25, 47]
3.654[53, 105, 350, 92, 35, 22, 25, 42]
3.669[54, 117, 338, 91, 37, 25, 26, 42]
3.691[56, 122, 335, 85, 38, 25, 26, 55]
3.714[50, 113, 325, 105, 41, 27, 26, 53]
3.729[53, 118, 285, 101, 39, 28, 24, 56]
3.751[56, 119, 273, 106, 37, 28, 24, 52]
3.774[58, 112, 297, 100, 35, 26, 23, 51]
3.789[59, 147, 388, 110, 47, 35, 25, 37]
3.811[61, 152, 387, 90, 44, 34, 26, 37]
3.834[58, 142, 410, 92, 44, 34, 24, 30]
3.849[59, 138, 410, 85, 44, 34, 26, 47]
3.871[65, 137, 412, 145, 50, 35, 27, 50]
3.901[67, 139, 374, 156, 40, 27, 24, 47]
3.909[66, 146, 384, 156, 38, 24, 22, 47]
3.931[68, 151, 344, 155, 40, 24, 23, 49]
3.954[66, 161, 399, 187, 47, 24, 24, 35]
3.969[58, 171, 426, 157, 42, 23, 23, 35]
3.991[68, 140, 378, 140, 44, 24, 27, 87]
4.014[69, 128, 372, 139, 44, 26, 28, 92]
4.029[67, 125, 396, 151, 43, 24, 27, 93]
4.051[68, 121, 344, 125, 41, 26, 26, 94]
4.074[70, 102, 292, 118, 39, 26, 27, 93]
4.096[56, 104, 412, 135, 38, 25, 23, 70]
4.112[55, 100, 396, 136, 39, 23, 23, 74]
4.134[54, 102, 407, 131, 40, 26, 23, 73]
4.148[51, 96, 417, 119, 38, 26, 22, 71]
4.171[50, 101, 423, 133, 42, 27, 21, 71]
4.201[46, 99, 344, 118, 42, 28, 20, 54]
4.216[45, 98, 364, 129, 43, 29, 19, 41]
4.232[48, 91, 337, 123, 42, 29, 23, 40]
4.253[53, 97, 367, 121, 41, 28, 23, 38]
4.276[56, 97, 375, 100, 39, 29, 25, 51]
4.292[58, 85, 365, 93, 37, 29, 26, 51]
4.313[56, 90, 387, 78, 36, 28, 26, 50]
4.336[59, 93, 389, 86, 36, 26, 23, 48]
4.352[53, 79, 342, 88, 34, 25, 24, 48]
4.373[45, 74, 359, 82, 31, 23, 21, 35]
4.403[44, 74, 345, 83, 30, 22, 20, 30]
4.412[49, 80, 338, 103, 36, 24, 21, 30]
4.434[48, 75, 346, 100, 34, 24, 21, 32]
4.456[51, 78, 365, 104, 35, 26, 20, 32]
4.472[60, 87, 335, 108, 37, 27, 22, 33]
4.494[62, 87, 323, 109, 38, 26, 24, 34]
4.516[58, 80, 264, 96, 30, 25, 24, 32]
4.532[57, 83, 259, 106, 33, 25, 24, 32]
4.553[54, 80, 232, 102, 32, 25, 24, 31]
4.576[46, 74, 254, 101, 31, 22, 23, 27]
4.6[44, 90, 354, 106, 30, 24, 22, 27]
4.613[50, 91, 350, 104, 32, 23, 23, 31]
4.636[50, 93, 350, 90, 29, 23, 22, 31]
4.652[52, 98, 359, 88, 29, 23, 24, 32]
4.673[50, 112, 382, 86, 29, 25, 23, 31]
4.696[50, 99, 295, 81, 27, 24, 21, 28]
4.714[42, 105, 312, 94, 27, 25, 23, 26]
4.734[41, 106, 314, 93, 27, 25, 24, 25]
4.756[40, 101, 316, 90, 28, 25, 23, 23]
4.772[41, 81, 258, 87, 27, 23, 25, 25]
4.795[41, 85, 274, 111, 33, 23, 24, 26]
4.816[42, 71, 267, 101, 36, 24, 23, 25]
4.838[38, 64, 272, 97, 34, 23, 23, 24]
4.853[40, 65, 270, 106, 34, 23, 23, 25]
4.876[40, 66, 277, 111, 35, 23, 27, 24]
4.892[36, 60, 289, 91, 30, 25, 44, 22]
4.913[38, 76, 331, 99, 30, 23, 46, 23]
4.936[43, 71, 341, 100, 31, 24, 46, 24]
4.96[41, 85, 328, 100, 32, 24, 47, 20]
4.974[42, 85, 355, 98, 33, 25, 47, 22]
4.996[43, 92, 369, 100, 34, 22, 34, 23]
5.012[41, 85, 314, 91, 31, 22, 28, 22]
5.033[39, 88, 281, 96, 32, 21, 29, 23]
5.056[41, 80, 308, 98, 32, 21, 27, 26]
5.072[39, 88, 294, 99, 32, 23, 25, 25]
5.093[39, 80, 264, 94, 33, 24, 22, 26]
5.115[48, 83, 294, 97, 34, 23, 23, 26]
5.132[49, 84, 319, 111, 35, 25, 24, 26]
5.155[46, 80, 330, 121, 36, 26, 23, 24]
5.176[47, 73, 327, 126, 36, 24, 22, 24]
5.19[50, 71, 318, 126, 37, 25, 25, 24]
5.221[46, 66, 298, 119, 36, 26, 24, 24]
5.236[48, 70, 296, 114, 37, 25, 22, 22]
5.251[48, 70, 259, 102, 36, 24, 22, 23]
5.273[45, 66, 240, 119, 36, 23, 21, 22]
5.296[44, 67, 230, 117, 37, 22, 18, 22]
5.318[45, 64, 254, 120, 38, 22, 20, 23]
5.334[43, 55, 243, 115, 37, 21, 19, 24]
5.356[45, 55, 259, 117, 40, 20, 19, 23]
5.378[44, 51, 258, 103, 38, 23, 20, 26]
5.393[42, 51, 291, 106, 35, 22, 20, 25]
5.416[37, 52, 272, 109, 34, 21, 20, 26]
5.446[35, 55, 265, 142, 46, 21, 20, 26]
5.454[42, 59, 263, 143, 48, 25, 22, 30]
5.476[44, 59, 248, 137, 48, 24, 22, 27]
5.498[45, 66, 210, 142, 51, 27, 22, 28]
5.513[44, 70, 242, 141, 54, 28, 21, 28]
5.536[47, 71, 231, 119, 47, 28, 22, 29]
5.558[41, 73, 210, 110, 43, 25, 21, 26]
5.573[40, 81, 245, 120, 44, 25, 22, 28]
5.596[49, 85, 258, 111, 48, 23, 22, 27]
5.618[48, 85, 239, 112, 49, 26, 21, 25]
5.634[47, 86, 246, 97, 46, 25, 21, 23]
5.655[49, 88, 267, 95, 48, 26, 22, 25]
5.678[51, 83, 240, 88, 49, 27, 23, 24]
5.693[41, 73, 231, 101, 49, 27, 24, 22]
5.716[43, 70, 222, 106, 49, 25, 24, 24]
5.738[40, 65, 219, 117, 60, 28, 25, 23]
5.754[37, 57, 223, 135, 60, 28, 25, 21]
5.776[36, 60, 346, 210, 66, 28, 25, 20]
5.798[42, 62, 341, 212, 65, 28, 25, 22]
5.813[42, 57, 345, 216, 63, 28, 25, 22]
5.836[47, 65, 345, 211, 55, 25, 24, 25]
5.858[46, 66, 376, 210, 61, 25, 25, 26]
5.873[46, 62, 282, 136, 52, 25, 25, 27]
5.904[45, 68, 288, 138, 52, 25, 24, 25]
5.918[46, 71, 325, 134, 50, 27, 24, 25]
5.933[44, 66, 349, 134, 47, 26, 23, 21]
5.956[42, 62, 293, 117, 36, 25, 23, 21]
5.978[42, 65, 292, 113, 38, 25, 21, 21]
5.993[39, 57, 305, 121, 38, 24, 21, 21]
6.016[36, 61, 261, 124, 42, 24, 21, 22]
6.038[36, 64, 261, 127, 43, 26, 24, 23]
6.053[39, 70, 280, 136, 48, 26, 24, 22]
6.076[36, 71, 277, 152, 49, 27, 25, 24]
6.098[38, 74, 260, 132, 48, 29, 26, 24]
6.113[41, 67, 250, 128, 46, 27, 26, 23]
6.136[41, 64, 225, 130, 48, 29, 23, 24]
6.158[41, 62, 216, 125, 47, 29, 20, 24]
6.174[43, 61, 211, 103, 45, 30, 22, 26]
6.196[42, 62, 218, 115, 48, 27, 22, 27]
6.219[38, 74, 242, 118, 50, 30, 24, 29]
6.241[37, 79, 329, 150, 57, 27, 23, 29]
6.256[34, 76, 349, 164, 59, 29, 25, 30]
6.278[40, 75, 368, 169, 59, 28, 26, 28]
6.301[40, 72, 366, 160, 55, 27, 25, 28]
6.316[38, 61, 355, 152, 53, 26, 25, 28]
6.338[38, 60, 273, 116, 45, 28, 27, 28]
6.361[40, 65, 230, 94, 40, 26, 26, 26]
6.376[38, 75, 281, 95, 40, 24, 25, 26]
6.398[37, 75, 279, 100, 42, 27, 26, 25]
6.421[39, 77, 286, 103, 47, 29, 23, 24]
6.436[39, 75, 310, 104, 46, 27, 24, 24]
6.458[37, 76, 383, 107, 45, 28, 24, 25]
6.481[31, 63, 329, 99, 43, 28, 24, 24]
6.496[36, 64, 317, 115, 48, 28, 24, 24]
6.518[33, 64, 334, 122, 48, 29, 26, 23]
6.541[37, 82, 354, 139, 53, 31, 25, 24]
6.556[42, 79, 272, 134, 53, 30, 23, 23]
6.578[46, 80, 259, 136, 54, 29, 22, 23]
6.601[45, 80, 264, 131, 51, 30, 21, 21]
6.624[49, 86, 262, 170, 82, 27, 19, 22]
6.638[47, 68, 221, 153, 80, 27, 19, 21]
6.662[44, 72, 284, 160, 82, 27, 20, 22]
6.676[39, 68, 283, 156, 81, 28, 19, 22]
6.698[50, 72, 293, 147, 83, 27, 25, 28]
6.721[48, 66, 282, 96, 47, 25, 26, 30]
6.736[49, 82, 363, 115, 46, 24, 27, 33]
6.759[69, 94, 329, 108, 43, 28, 31, 37]
6.781[69, 94, 336, 115, 45, 29, 32, 37]
6.796[61, 97, 359, 127, 42, 28, 29, 33]
6.818[64, 101, 422, 131, 44, 29, 30, 34]
6.841[67, 96, 335, 135, 54, 32, 31, 36]
6.865[46, 78, 323, 133, 54, 29, 27, 29]
6.878[47, 79, 329, 132, 55, 29, 29, 31]
6.902[48, 81, 338, 135, 51, 29, 27, 30]
6.916[48, 87, 271, 135, 51, 28, 26, 28]
6.938[40, 81, 287, 118, 42, 24, 23, 22]
6.961[39, 84, 292, 154, 43, 23, 23, 23]
6.984[39, 83, 293, 163, 42, 24, 20, 22]
6.998[42, 73, 279, 153, 43, 23, 19, 23]
7.022[41, 66, 260, 151, 44, 24, 20, 24]
7.036[41, 59, 249, 149, 45, 24, 22, 23]
7.058[43, 54, 238, 110, 42, 26, 23, 25]
7.082[48, 59, 255, 98, 46, 26, 24, 25]
7.096[45, 58, 247, 117, 47, 27, 25, 25]
7.118[43, 58, 264, 111, 47, 29, 26, 26]
7.142[46, 67, 267, 111, 44, 28, 23, 26]
7.18[46, 68, 277, 112, 43, 27, 25, 25]
7.181[41, 62, 244, 107, 39, 27, 27, 25]
7.202[40, 62, 216, 92, 40, 27, 26, 24]
7.224[42, 61, 182, 88, 38, 24, 23, 21]
7.239[43, 53, 182, 98, 36, 24, 25, 22]
7.262[45, 66, 271, 105, 45, 24, 24, 22]
7.284[53, 81, 289, 107, 45, 28, 23, 24]
7.298[55, 80, 287, 94, 40, 26, 23, 25]
7.322[51, 76, 277, 90, 39, 25, 23, 23]
7.344[52, 81, 280, 90, 40, 27, 23, 24]
7.358[50, 72, 221, 118, 45, 27, 22, 25]
7.381[38, 57, 198, 118, 46, 24, 21, 24]
7.404[39, 62, 211, 129, 49, 25, 20, 24]
7.418[40, 64, 229, 133, 49, 26, 21, 25]
7.442[36, 58, 224, 131, 49, 24, 20, 25]
7.464[36, 58, 212, 109, 37, 24, 22, 24]
7.478[36, 65, 235, 107, 35, 23, 22, 24]
7.501[35, 62, 221, 96, 32, 24, 23, 22]
7.524[34, 62, 269, 94, 31, 24, 23, 23]
7.538[38, 68, 272, 101, 35, 24, 23, 20]
7.562[40, 72, 262, 96, 39, 24, 21, 22]
7.584[41, 68, 247, 97, 40, 26, 21, 22]
7.598[43, 69, 245, 99, 40, 25, 22, 21]
7.622[42, 67, 205, 96, 39, 28, 21, 23]
7.644[40, 75, 230, 107, 37, 29, 22, 25]
7.659[36, 69, 258, 113, 37, 31, 25, 24]
7.682[37, 67, 247, 112, 40, 30, 24, 23]
7.704[34, 61, 247, 110, 42, 29, 23, 24]
7.718[39, 61, 263, 112, 43, 26, 23, 22]
7.742[38, 45, 233, 84, 46, 26, 25, 22]
7.764[42, 49, 236, 90, 44, 23, 23, 21]
7.778[39, 53, 249, 90, 42, 22, 22, 22]
7.802[40, 55, 257, 95, 41, 25, 22, 24]
7.824[40, 63, 218, 90, 42, 26, 23, 23]
7.838[37, 64, 246, 100, 44, 27, 22, 23]
7.862[39, 71, 241, 85, 42, 26, 21, 23]
7.884[42, 69, 239, 113, 45, 29, 23, 23]
7.899[46, 72, 240, 111, 47, 29, 23, 22]
7.921[44, 64, 274, 114, 47, 29, 24, 27]
7.944[45, 58, 254, 117, 46, 27, 23, 25]
7.959[52, 61, 275, 125, 49, 31, 26, 27]
7.982[49, 77, 323, 102, 47, 27, 26, 27]
8.004[43, 80, 317, 97, 45, 27, 26, 26]
8.018[44, 100, 312, 107, 44, 28, 24, 25]
8.042[46, 103, 302, 100, 42, 27, 23, 26]
8.064[32, 98, 285, 109, 45, 26, 21, 24]
8.078[37, 92, 221, 109, 41, 26, 19, 23]
8.101[46, 89, 223, 116, 45, 27, 22, 28]
8.124[43, 69, 206, 122, 42, 24, 21, 25]
8.147[42, 63, 262, 137, 45, 24, 22, 26]
8.162[43, 59, 252, 122, 38, 22, 24, 26]
8.184[39, 51, 274, 123, 46, 26, 26, 27]
8.206[32, 45, 273, 122, 45, 24, 24, 24]
8.222[37, 47, 264, 110, 50, 30, 25, 27]
8.244[39, 49, 221, 91, 46, 30, 28, 28]
8.266[39, 49, 191, 93, 47, 31, 26, 28]
8.281[39, 51, 225, 90, 41, 28, 25, 29]
8.304[41, 54, 233, 88, 40, 29, 26, 29]
8.327[36, 63, 247, 84, 38, 26, 26, 25]
8.341[34, 64, 243, 85, 44, 26, 23, 23]
8.364[34, 64, 282, 88, 46, 27, 22, 23]
8.386[37, 61, 231, 85, 46, 26, 22, 22]
8.401[32, 61, 253, 96, 45, 27, 22, 22]
8.424[37, 58, 238, 104, 43, 25, 22, 24]
8.447[39, 58, 263, 100, 40, 26, 22, 25]
8.462[38, 56, 219, 92, 34, 24, 23, 24]
8.484[35, 61, 239, 93, 32, 23, 24, 24]
8.506[37, 61, 271, 97, 34, 25, 24, 26]
8.522[36, 55, 274, 94, 35, 25, 24, 23]
8.544[34, 55, 262, 94, 32, 25, 23, 22]
8.566[37, 57, 266, 101, 35, 25, 21, 23]
8.581[40, 59, 321, 108, 35, 25, 25, 25]
8.611[40, 59, 274, 100, 36, 22, 25, 22]
8.627[39, 59, 287, 92, 34, 23, 25, 24]
8.641[39, 55, 275, 99, 35, 22, 27, 24]
8.664[36, 54, 288, 92, 37, 25, 27, 23]
8.686[42, 54, 217, 85, 37, 29, 22, 24]
8.701[43, 55, 224, 80, 36, 29, 22, 27]
8.724[41, 65, 218, 86, 37, 29, 24, 27]
8.746[43, 66, 223, 78, 40, 30, 24, 29]
8.761[46, 70, 211, 81, 36, 28, 26, 30]
8.784[44, 68, 226, 88, 40, 26, 28, 30]
8.806[41, 74, 234, 93, 44, 25, 28, 27]
8.821[44, 72, 238, 87, 44, 28, 26, 26]
8.844[47, 81, 240, 96, 41, 27, 24, 24]
8.866[46, 81, 274, 101, 45, 30, 24, 25]
8.881[42, 89, 281, 101, 43, 29, 24, 28]
8.904[45, 84, 309, 111, 40, 29, 24, 29]
8.926[44, 78, 298, 116, 40, 26, 23, 29]
8.941[39, 69, 304, 112, 38, 28, 24, 30]
8.964[40, 72, 279, 105, 34, 28, 23, 29]
8.986[42, 66, 274, 136, 42, 31, 21, 25]
9.001[42, 66, 250, 129, 40, 30, 22, 24]
9.024[41, 66, 265, 134, 42, 31, 23, 27]
9.047[44, 71, 280, 143, 45, 29, 24, 26]
9.069[44, 66, 294, 141, 45, 27, 24, 26]
9.084[42, 58, 315, 122, 40, 23, 25, 27]
9.107[41, 57, 293, 126, 45, 25, 25, 28]
9.129[38, 59, 286, 117, 45, 25, 25, 26]
9.144[35, 56, 275, 106, 46, 26, 24, 29]
9.166[38, 66, 268, 115, 49, 25, 24, 27]
9.19[38, 69, 234, 101, 48, 26, 24, 26]
9.204[34, 66, 232, 93, 44, 23, 23, 27]
9.225[38, 70, 273, 98, 41, 24, 25, 27]
9.248[37, 67, 261, 97, 39, 21, 25, 24]
9.264[35, 59, 252, 105, 40, 24, 25, 26]
9.286[33, 64, 275, 100, 41, 23, 26, 28]
9.316[38, 66, 287, 99, 41, 25, 28, 29]
9.325[37, 59, 248, 100, 43, 27, 27, 29]
9.346[39, 62, 273, 108, 45, 28, 29, 30]
9.368[36, 59, 322, 103, 40, 27, 30, 29]
9.384[39, 58, 296, 105, 43, 29, 28, 28]
9.407[37, 54, 293, 105, 46, 30, 28, 26]
9.428[40, 62, 291, 104, 43, 27, 27, 25]
9.445[40, 62, 290, 93, 40, 26, 26, 24]
9.466[41, 60, 225, 104, 44, 24, 24, 24]
9.489[37, 54, 221, 112, 43, 23, 25, 23]
9.505[40, 57, 243, 113, 42, 21, 23, 24]
9.526[35, 53, 291, 124, 42, 20, 22, 24]
9.556[36, 52, 269, 126, 43, 26, 23, 25]
9.565[37, 50, 279, 120, 40, 26, 24, 24]
9.593[39, 54, 280, 111, 37, 26, 25, 25]
9.608[36, 55, 275, 110, 34, 26, 26, 24]
9.624[38, 59, 229, 97, 34, 27, 27, 25]
9.647[36, 58, 225, 96, 31, 23, 24, 25]
9.676[37, 61, 227, 95, 35, 27, 25, 26]
9.685[35, 57, 243, 98, 39, 25, 24, 25]
9.705[39, 57, 226, 93, 38, 25, 24, 27]
9.73[38, 55, 269, 88, 40, 24, 23, 25]
9.744[37, 58, 275, 99, 45, 25, 24, 23]
9.766[36, 62, 270, 108, 43, 24, 24, 23]
9.788[36, 62, 252, 127, 46, 24, 25, 22]
9.805[31, 64, 280, 133, 50, 23, 23, 21]
9.826[35, 60, 256, 139, 50, 24, 23, 23]
9.848[35, 58, 252, 138, 50, 24, 22, 25]
9.864[35, 53, 257, 124, 52, 23, 19, 26]
9.885[41, 54, 271, 121, 50, 26, 19, 28]
9.908[43, 46, 244, 136, 53, 30, 22, 28]
9.925[42, 48, 201, 134, 53, 29, 21, 28]
9.946[42, 43, 218, 133, 55, 31, 23, 26]
9.968[45, 45, 225, 137, 57, 31, 24, 27]
9.985[48, 53, 238, 126, 56, 31, 23, 29]
10.006[50, 64, 290, 109, 50, 27, 20, 30]
10.028[52, 63, 301, 138, 53, 31, 22, 29]
10.051[60, 65, 283, 152, 54, 29, 20, 31]
10.066[59, 69, 275, 156, 52, 28, 21, 28]
10.088[55, 62, 247, 174, 58, 26, 21, 27]
10.111[51, 56, 194, 174, 63, 27, 22, 26]
10.126[76, 59, 217, 179, 66, 25, 22, 27]
10.148[78, 63, 265, 168, 62, 26, 25, 27]
10.171[83, 61, 272, 177, 63, 26, 26, 30]
10.186[88, 61, 272, 184, 63, 29, 29, 32]
10.208[88, 57, 288, 190, 60, 29, 29, 32]
10.23[98, 62, 284, 167, 58, 29, 33, 40]
10.247[96, 58, 261, 193, 73, 35, 34, 42]
10.268[97, 61, 272, 299, 96, 37, 34, 40]
10.291[99, 64, 285, 303, 97, 42, 37, 44]
10.306[102, 63, 257, 303, 96, 42, 36, 45]
10.328[75, 58, 263, 316, 96, 41, 32, 41]
10.351[69, 58, 283, 315, 93, 38, 32, 40]
10.366[65, 55, 259, 227, 75, 36, 34, 44]
10.388[58, 52, 248, 213, 71, 30, 33, 39]
10.411[66, 71, 253, 282, 82, 31, 33, 39]
10.427[68, 66, 248, 274, 81, 33, 36, 39]
10.448[72, 73, 246, 266, 74, 31, 34, 38]
10.47[75, 77, 238, 253, 66, 31, 33, 36]
10.486[80, 83, 242, 270, 67, 32, 28, 36]
10.508[74, 74, 248, 238, 65, 31, 30, 38]
10.531[76, 80, 260, 245, 65, 32, 27, 43]
10.545[71, 74, 216, 249, 67, 30, 28, 42]
10.568[69, 68, 214, 365, 81, 31, 40, 50]
10.591[68, 61, 203, 349, 78, 29, 41, 49]
10.606[62, 57, 196, 326, 71, 29, 42, 49]
10.628[64, 55, 150, 341, 71, 29, 41, 44]
10.651[66, 55, 164, 340, 70, 32, 43, 46]
10.666[68, 54, 191, 226, 58, 31, 31, 37]
10.688[65, 74, 217, 229, 59, 33, 36, 38]
10.711[85, 76, 216, 241, 63, 37, 39, 36]
10.726[89, 75, 213, 229, 68, 36, 41, 37]
10.748[91, 73, 199, 215, 68, 34, 40, 42]
10.772[93, 72, 200, 238, 72, 35, 41, 48]
10.786[91, 54, 186, 249, 76, 40, 40, 50]
10.808[73, 52, 183, 242, 73, 36, 42, 54]
10.831[64, 55, 216, 242, 74, 38, 45, 57]
10.846[61, 56, 236, 244, 70, 36, 47, 53]
10.868[60, 60, 224, 242, 64, 36, 48, 48]
10.891[66, 54, 210, 228, 57, 30, 46, 49]
10.905[87, 59, 230, 218, 63, 36, 49, 51]
10.928[93, 61, 201, 225, 68, 37, 46, 48]
10.951[94, 61, 191, 228, 71, 39, 44, 49]
10.974[89, 59, 213, 202, 75, 38, 42, 51]
10.989[86, 64, 222, 232, 78, 42, 44, 56]
11.011[75, 60, 198, 260, 73, 36, 35, 48]
11.033[69, 57, 203, 250, 64, 34, 34, 48]
11.057[72, 60, 238, 255, 64, 36, 34, 49]
11.071[69, 62, 231, 251, 58, 36, 36, 52]
11.093[73, 58, 222, 227, 57, 34, 35, 52]
11.116[65, 56, 221, 210, 58, 34, 36, 55]
11.131[65, 52, 209, 210, 55, 35, 38, 55]
11.153[61, 47, 152, 262, 65, 33, 40, 54]
11.168[62, 42, 124, 274, 69, 37, 37, 48]
11.19[50, 44, 126, 291, 71, 40, 35, 36]
11.213[55, 41, 111, 283, 73, 46, 47, 33]
11.228[59, 41, 107, 285, 80, 49, 64, 49]
11.251[61, 43, 129, 302, 95, 53, 66, 52]
11.274[65, 44, 129, 354, 102, 52, 68, 52]
11.288[71, 42, 150, 354, 103, 48, 70, 52]
11.311[73, 45, 150, 352, 100, 42, 64, 55]
11.341[84, 46, 155, 362, 96, 39, 49, 44]
11.348[90, 45, 142, 312, 81, 39, 48, 46]
11.371[95, 55, 140, 308, 86, 38, 49, 47]
11.393[103, 53, 117, 298, 84, 41, 48, 48]
11.408[97, 56, 122, 302, 84, 42, 46, 42]
11.431[87, 59, 137, 335, 97, 44, 47, 42]
11.453[97, 60, 154, 362, 98, 40, 48, 48]
11.477[100, 51, 152, 302, 84, 40, 49, 49]
11.491[90, 52, 156, 317, 87, 39, 47, 48]
11.513[100, 48, 158, 332, 88, 39, 54, 61]
11.528[101, 44, 145, 289, 86, 39, 58, 69]
11.551[105, 44, 132, 298, 84, 43, 70, 72]
11.573[99, 42, 131, 304, 85, 43, 70, 71]
11.588[108, 46, 134, 293, 82, 43, 69, 70]
11.61[102, 44, 137, 281, 88, 46, 69, 63]
11.633[102, 43, 135, 268, 77, 43, 65, 52]
11.649[84, 46, 124, 218, 69, 37, 48, 38]
11.67[83, 49, 117, 208, 74, 38, 45, 39]
11.693[70, 44, 111, 203, 76, 40, 48, 42]
11.708[89, 48, 98, 189, 65, 38, 40, 45]
11.73[83, 50, 94, 200, 64, 37, 41, 44]
11.753[80, 43, 103, 216, 64, 35, 41, 43]
11.785[81, 45, 122, 266, 63, 34, 45, 45]
11.79[84, 45, 113, 257, 61, 34, 45, 44]
11.813[61, 44, 108, 253, 64, 34, 44, 41]
11.828[75, 41, 106, 254, 62, 34, 46, 45]
11.851[76, 42, 97, 249, 61, 36, 45, 45]
11.873[104, 41, 76, 192, 51, 36, 41, 45]
11.897[106, 41, 79, 196, 51, 33, 40, 45]
11.91[116, 43, 84, 206, 52, 32, 41, 42]
11.933[112, 43, 95, 210, 61, 34, 38, 38]
11.956[114, 44, 110, 218, 61, 32, 40, 39]
11.97[98, 42, 151, 292, 82, 41, 53, 58]
11.993[93, 44, 163, 310, 83, 43, 54, 62]
12.016[79, 38, 171, 319, 80, 41, 52, 62]
12.03[76, 39, 177, 320, 76, 40, 52, 62]
12.053[74, 38, 170, 304, 82, 40, 51, 65]
12.076[73, 40, 140, 242, 64, 28, 34, 50]
12.09[72, 38, 135, 234, 74, 32, 33, 44]
12.113[73, 39, 125, 214, 77, 33, 34, 44]
12.136[72, 43, 112, 203, 85, 33, 33, 43]
12.15[70, 42, 116, 232, 82, 34, 35, 36]
12.173[59, 42, 148, 338, 99, 34, 34, 33]
12.196[60, 44, 149, 347, 92, 29, 33, 38]
12.21[68, 47, 154, 363, 93, 28, 33, 40]
12.233[86, 48, 156, 408, 105, 32, 35, 43]
12.256[83, 48, 149, 393, 105, 33, 30, 41]
12.27[80, 46, 116, 307, 94, 34, 33, 41]
12.293[78, 43, 101, 288, 90, 34, 31, 36]
12.317[70, 40, 101, 271, 91, 36, 31, 37]
12.33[50, 41, 108, 230, 74, 32, 26, 33]
12.353[56, 39, 116, 265, 75, 29, 28, 34]
12.377[55, 38, 108, 259, 69, 28, 26, 34]
12.391[60, 42, 116, 280, 70, 28, 29, 34]
12.414[76, 51, 118, 331, 75, 28, 27, 32]
12.436[76, 45, 106, 308, 68, 27, 27, 32]
12.451[77, 48, 97, 284, 63, 28, 29, 35]
12.474[80, 52, 103, 282, 65, 28, 30, 38]
12.497[79, 55, 114, 265, 69, 30, 29, 39]
12.511[67, 52, 119, 233, 71, 32, 31, 44]
12.534[63, 52, 121, 224, 71, 32, 30, 45]
12.564[69, 53, 126, 239, 80, 35, 29, 43]
12.571[66, 51, 124, 241, 81, 37, 31, 43]
12.594[70, 47, 124, 270, 86, 36, 29, 46]
12.616[70, 45, 119, 241, 75, 34, 32, 42]
12.63[69, 46, 128, 249, 78, 37, 33, 40]
12.654[69, 49, 139, 288, 89, 36, 34, 41]
12.676[65, 48, 148, 296, 86, 33, 33, 38]
12.691[68, 48, 141, 261, 79, 31, 33, 35]
12.721[70, 48, 140, 265, 79, 28, 28, 36]
12.736[74, 49, 129, 252, 75, 26, 28, 38]
12.751[62, 43, 116, 195, 53, 26, 28, 38]
12.774[70, 46, 118, 211, 53, 27, 26, 38]
12.804[60, 44, 112, 213, 53, 27, 26, 35]
12.819[57, 43, 105, 215, 52, 28, 28, 36]
12.834[54, 42, 107, 209, 51, 30, 28, 33]
12.857[54, 45, 111, 203, 49, 27, 31, 35]
12.879[51, 44, 132, 207, 51, 27, 30, 34]
12.894[53, 47, 138, 217, 49, 28, 30, 33]
12.916[47, 45, 134, 211, 49, 30, 30, 30]
12.939[46, 47, 139, 219, 53, 27, 28, 31]
12.954[46, 44, 135, 218, 53, 27, 25, 27]
12.977[47, 44, 100, 185, 47, 26, 26, 29]
12.999[50, 43, 86, 162, 51, 26, 29, 36]
13.014[55, 42, 88, 176, 54, 26, 30, 35]
13.037[56, 41, 75, 168, 47, 27, 31, 36]
13.059[58, 45, 86, 167, 48, 27, 30, 36]
13.074[60, 43, 101, 184, 55, 31, 34, 37]
13.096[61, 42, 119, 190, 54, 32, 34, 36]
13.119[66, 44, 124, 183, 54, 31, 36, 37]
13.133[64, 43, 123, 180, 54, 32, 36, 35]
13.156[67, 43, 113, 187, 58, 34, 36, 35]
13.179[61, 43, 104, 171, 55, 31, 32, 33]
13.194[62, 52, 115, 181, 59, 30, 31, 29]
13.216[51, 49, 111, 174, 59, 33, 30, 27]
13.239[56, 53, 130, 197, 61, 32, 31, 29]
13.254[48, 49, 128, 182, 59, 29, 31, 28]
13.284[67, 60, 135, 196, 69, 33, 33, 34]
13.299[64, 54, 116, 184, 68, 31, 32, 33]
13.313[70, 57, 114, 193, 66, 30, 29, 34]
13.336[71, 56, 103, 190, 68, 35, 31, 34]
13.359[73, 58, 108, 209, 70, 36, 31, 35]
13.373[57, 42, 97, 194, 59, 33, 31, 29]
13.396[57, 42, 105, 197, 56, 34, 30, 31]
13.419[54, 40, 119, 220, 62, 33, 32, 33]
13.433[52, 39, 113, 203, 59, 29, 30, 35]
13.456[47, 39, 133, 209, 58, 27, 30, 35]
13.478[54, 40, 129, 202, 58, 28, 31, 37]
13.493[60, 41, 142, 208, 59, 31, 34, 35]
13.517[57, 42, 137, 181, 59, 31, 32, 41]
13.539[63, 47, 135, 200, 61, 31, 33, 42]
13.561[67, 46, 111, 170, 58, 32, 31, 40]
13.576[64, 47, 111, 166, 56, 30, 29, 39]
13.599[58, 44, 80, 177, 56, 29, 29, 40]
13.613[56, 44, 80, 186, 52, 28, 33, 34]
13.636[51, 39, 83, 176, 51, 28, 33, 36]
13.659[50, 42, 87, 177, 55, 31, 36, 39]
13.673[46, 42, 96, 186, 58, 30, 36, 39]
13.696[45, 45, 103, 193, 56, 30, 34, 43]
13.719[45, 49, 92, 181, 55, 27, 30, 39]
13.733[42, 55, 96, 174, 54, 26, 29, 39]
13.757[40, 52, 95, 191, 53, 24, 24, 38]
13.779[43, 52, 88, 227, 60, 30, 29, 40]
13.801[53, 51, 83, 209, 57, 27, 30, 41]
13.816[61, 48, 98, 201, 53, 29, 31, 42]
13.839[59, 39, 108, 217, 53, 32, 32, 37]
13.862[61, 39, 115, 221, 54, 32, 34, 39]
13.876[68, 37, 115, 199, 44, 28, 35, 40]
13.899[73, 40, 132, 252, 63, 34, 40, 43]
13.921[83, 45, 161, 334, 84, 39, 46, 60]
13.936[91, 46, 159, 342, 92, 41, 47, 66]
13.959[89, 44, 176, 363, 94, 42, 47, 65]
13.982[84, 50, 195, 379, 101, 43, 45, 63]
13.996[80, 50, 192, 358, 92, 40, 44, 59]
14.034[70, 48, 181, 325, 90, 38, 41, 57]
14.041[64, 49, 182, 337, 93, 39, 43, 53]
14.056[64, 49, 195, 340, 100, 40, 44, 54]
14.08[87, 45, 181, 333, 99, 41, 46, 67]
14.101[105, 47, 188, 391, 102, 44, 49, 69]
14.116[103, 43, 178, 391, 95, 43, 51, 60]
14.14[108, 44, 196, 437, 96, 43, 49, 65]
14.161[118, 46, 167, 444, 102, 44, 50, 72]
14.177[110, 45, 188, 496, 117, 46, 52, 66]
14.198[93, 44, 174, 456, 118, 43, 48, 68]
14.221[105, 48, 198, 473, 120, 50, 55, 80]
14.237[111, 50, 180, 423, 116, 51, 62, 84]
14.258[105, 48, 176, 399, 110, 50, 59, 78]
14.281[100, 49, 180, 353, 92, 50, 67, 75]
14.297[97, 45, 179, 340, 90, 50, 69, 77]
14.318[84, 42, 161, 299, 84, 44, 65, 72]
14.341[101, 40, 160, 335, 91, 46, 79, 88]
14.357[106, 45, 170, 353, 89, 48, 83, 93]
14.378[109, 46, 143, 331, 89, 43, 75, 93]
14.401[112, 47, 142, 341, 88, 43, 71, 89]
14.417[123, 51, 144, 364, 92, 45, 71, 90]
14.446[116, 52, 192, 388, 110, 44, 50, 75]
14.461[116, 49, 189, 380, 107, 44, 50, 74]
14.477[112, 49, 220, 481, 138, 50, 54, 74]
14.498[112, 50, 237, 498, 139, 52, 56, 76]
14.521[129, 58, 291, 511, 138, 50, 51, 75]
14.537[122, 59, 263, 488, 127, 49, 55, 77]
14.558[115, 59, 283, 500, 131, 49, 52, 74]
14.58[120, 70, 260, 427, 108, 46, 50, 74]
14.597[120, 72, 248, 408, 111, 46, 57, 85]
14.618[95, 65, 177, 397, 111, 46, 64, 86]
14.641[96, 70, 184, 386, 103, 43, 61, 78]
14.671[117, 71, 158, 391, 103, 47, 62, 80]
14.678[117, 58, 177, 368, 101, 47, 62, 81]
14.701[127, 57, 200, 386, 99, 44, 54, 69]
14.723[127, 54, 208, 385, 108, 50, 54, 66]
14.738[119, 42, 214, 394, 114, 54, 54, 65]
14.76[106, 43, 211, 374, 110, 51, 61, 64]
14.784[110, 49, 197, 371, 107, 52, 61, 64]
14.798[101, 58, 206, 368, 104, 54, 62, 66]
14.828[115, 57, 216, 374, 100, 48, 56, 62]
14.843[119, 58, 202, 337, 88, 43, 52, 61]
14.858[112, 59, 202, 334, 86, 41, 44, 58]
14.881[111, 56, 203, 341, 80, 38, 43, 55]
14.903[109, 49, 178, 318, 79, 38, 55, 67]
14.918[95, 51, 158, 283, 75, 38, 57, 67]
14.948[96, 51, 160, 294, 79, 37, 58, 72]
14.963[97, 49, 151, 285, 82, 36, 59, 75]
14.978[93, 47, 151, 274, 84, 38, 59, 74]
15.001[95, 44, 154, 300, 88, 38, 53, 74]
15.023[90, 41, 136, 280, 80, 38, 50, 75]
15.038[85, 42, 136, 274, 81, 41, 49, 75]
15.061[85, 40, 136, 278, 76, 42, 45, 71]
15.083[77, 42, 129, 275, 75, 38, 42, 75]
15.098[68, 41, 113, 230, 66, 35, 33, 74]
15.121[75, 44, 129, 229, 67, 36, 31, 72]
15.143[72, 43, 135, 270, 66, 30, 28, 69]
15.158[70, 45, 153, 278, 70, 29, 34, 68]
15.181[79, 47, 150, 300, 72, 30, 38, 73]
15.203[80, 47, 147, 304, 75, 34, 43, 61]
15.218[72, 45, 133, 300, 72, 31, 42, 61]
15.241[70, 44, 125, 266, 80, 34, 43, 63]
15.263[72, 43, 122, 250, 77, 34, 41, 63]
15.278[68, 42, 124, 218, 70, 38, 41, 57]
15.301[85, 43, 120, 212, 69, 34, 41, 61]
15.323[85, 47, 142, 243, 69, 36, 41, 58]
15.338[86, 46, 138, 234, 60, 33, 42, 59]
15.36[86, 44, 123, 270, 71, 36, 43, 60]
15.383[89, 41, 139, 290, 72, 36, 45, 63]
15.398[78, 43, 146, 303, 77, 38, 46, 61]
15.42[79, 40, 138, 305, 85, 38, 47, 64]
15.443[82, 44, 143, 334, 91, 41, 48, 64]
15.458[89, 44, 165, 321, 92, 38, 46, 67]
15.481[92, 55, 150, 300, 90, 34, 42, 66]
15.503[99, 55, 163, 316, 91, 37, 43, 69]
15.518[98, 56, 153, 293, 86, 36, 41, 66]
15.541[92, 60, 152, 268, 85, 35, 40, 68]
15.563[91, 73, 140, 271, 81, 38, 42, 79]
15.579[84, 66, 153, 303, 93, 40, 42, 79]
15.6[66, 64, 136, 274, 89, 39, 37, 76]
15.623[69, 65, 164, 296, 91, 40, 40, 79]
15.638[74, 60, 160, 298, 86, 39, 41, 76]
15.662[67, 50, 146, 273, 80, 35, 41, 59]
15.683[77, 47, 142, 238, 68, 34, 46, 67]
15.705[84, 48, 139, 231, 64, 32, 47, 69]
15.721[85, 47, 107, 196, 57, 32, 45, 66]
15.743[89, 50, 126, 218, 64, 34, 46, 75]
15.766[94, 49, 127, 222, 73, 41, 51, 81]
15.781[86, 48, 118, 219, 72, 41, 49, 69]
15.803[83, 47, 134, 281, 87, 45, 50, 72]
15.825[83, 44, 136, 280, 92, 47, 52, 75]
15.84[92, 40, 127, 274, 91, 46, 52, 66]
15.863[94, 41, 139, 307, 89, 41, 47, 65]
15.894[95, 45, 170, 334, 93, 40, 48, 71]
15.901[92, 45, 167, 295, 83, 40, 47, 67]
15.923[93, 47, 164, 315, 79, 34, 45, 63]
15.945[79, 52, 170, 318, 76, 32, 43, 64]
15.968[70, 52, 159, 281, 68, 31, 41, 60]
15.983[63, 54, 139, 255, 64, 31, 38, 52]
16.006[67, 55, 136, 258, 64, 26, 35, 48]
16.02[59, 52, 136, 238, 65, 29, 36, 56]
16.043[55, 50, 136, 240, 67, 30, 36, 62]
16.065[56, 47, 147, 261, 66, 30, 36, 59]
16.08[58, 49, 134, 259, 61, 30, 34, 60]
16.103[56, 49, 130, 244, 56, 32, 38, 64]
16.125[60, 50, 127, 236, 52, 29, 35, 57]
16.141[62, 54, 123, 215, 42, 31, 34, 50]
16.164[58, 57, 135, 200, 51, 33, 36, 53]
16.186[61, 48, 144, 202, 68, 35, 37, 55]
16.2[59, 50, 138, 196, 68, 34, 35, 52]
16.223[60, 55, 152, 220, 73, 34, 36, 60]
16.245[58, 47, 175, 307, 100, 39, 36, 56]
16.26[64, 49, 157, 304, 100, 39, 35, 56]
16.283[64, 53, 149, 312, 95, 37, 35, 52]
16.306[65, 50, 157, 321, 99, 37, 32, 51]
16.32[66, 44, 148, 302, 99, 39, 33, 41]
16.343[66, 46, 115, 207, 74, 33, 33, 42]
16.366[61, 41, 109, 192, 68, 32, 31, 36]
16.381[59, 40, 110, 169, 61, 30, 31, 46]
16.403[64, 42, 106, 177, 58, 30, 33, 51]
16.425[58, 37, 97, 185, 53, 29, 32, 50]
16.449[67, 37, 79, 164, 46, 28, 32, 57]
16.463[76, 41, 75, 162, 48, 28, 30, 59]
16.485[80, 38, 90, 181, 55, 34, 54, 51]
16.509[78, 38, 100, 208, 57, 38, 59, 53]
16.523[81, 41, 118, 231, 60, 37, 58, 55]
16.546[73, 38, 124, 238, 59, 37, 59, 48]
16.561[63, 34, 135, 250, 58, 37, 60, 48]
16.583[61, 38, 129, 249, 51, 31, 39, 49]
16.605[57, 36, 117, 214, 45, 25, 29, 39]
16.629[54, 35, 97, 177, 39, 40, 32, 36]
16.643[60, 40, 88, 166, 40, 45, 33, 37]
16.665[56, 41, 75, 147, 36, 50, 40, 34]
16.689[50, 42, 58, 107, 36, 65, 45, 29]
16.703[49, 46, 65, 106, 45, 67, 46, 28]
16.725[52, 55, 82, 109, 49, 62, 44, 30]
16.748[43, 54, 104, 111, 49, 60, 45, 27]
16.763[49, 63, 150, 107, 51, 60, 40, 26]
16.786[54, 64, 200, 106, 52, 58, 35, 30]
16.809[51, 61, 213, 89, 42, 58, 35, 30]
16.823[51, 65, 233, 97, 47, 57, 35, 28]
16.846[57, 72, 257, 116, 56, 57, 33, 27]
16.869[53, 68, 259, 112, 58, 64, 29, 26]
16.883[49, 68, 238, 108, 55, 54, 28, 22]
16.905[56, 76, 236, 109, 57, 53, 28, 24]
16.929[54, 67, 245, 97, 55, 53, 28, 23]
16.943[49, 62, 267, 77, 52, 52, 29, 24]
16.965[52, 76, 301, 99, 50, 46, 29, 26]
16.989[51, 83, 353, 219, 84, 45, 30, 28]
17.003[47, 80, 407, 235, 88, 44, 31, 30]
17.025[45, 84, 444, 243, 88, 44, 30, 31]
17.049[49, 88, 471, 247, 86, 43, 28, 30]
17.063[45, 81, 450, 242, 86, 37, 27, 30]
17.086[45, 75, 410, 142, 56, 44, 25, 29]
17.109[48, 80, 395, 142, 53, 50, 26, 29]
17.123[51, 86, 372, 143, 55, 49, 27, 28]
17.145[46, 87, 352, 155, 54, 48, 27, 27]
17.169[46, 86, 341, 152, 59, 47, 25, 27]
17.183[47, 86, 368, 155, 57, 40, 27, 27]
17.206[44, 87, 422, 129, 58, 33, 26, 23]
17.229[47, 85, 405, 127, 57, 33, 27, 25]
17.243[52, 89, 404, 105, 57, 33, 27, 27]
17.265[54, 95, 435, 114, 52, 28, 27, 26]
17.289[52, 113, 517, 150, 57, 28, 25, 24]
17.303[61, 136, 503, 167, 55, 25, 25, 26]
17.325[60, 130, 497, 162, 52, 26, 22, 27]
17.349[56, 126, 483, 165, 50, 26, 23, 27]
17.363[54, 125, 562, 179, 57, 28, 22, 29]
17.385[57, 112, 476, 152, 52, 26, 22, 29]
17.416[53, 91, 435, 136, 49, 29, 25, 30]
17.423[51, 104, 438, 155, 53, 25, 23, 28]
17.445[54, 116, 445, 156, 54, 29, 24, 29]
17.469[61, 121, 334, 131, 47, 28, 26, 30]
17.491[60, 124, 399, 133, 48, 28, 26, 30]
17.506[57, 142, 477, 149, 48, 26, 25, 29]
17.529[59, 144, 517, 130, 44, 30, 29, 32]
17.543[62, 157, 526, 129, 42, 27, 27, 29]
17.565[56, 151, 535, 139, 41, 26, 26, 28]
17.589[60, 154, 487, 135, 44, 28, 27, 28]
17.611[55, 148, 465, 119, 41, 28, 25, 25]
17.625[53, 151, 423, 120, 40, 26, 21, 24]
17.649[52, 135, 402, 119, 40, 26, 23, 27]
17.671[58, 144, 366, 112, 40, 29, 26, 28]
17.685[56, 146, 368, 122, 39, 29, 25, 32]
17.709[58, 134, 365, 147, 38, 32, 25, 33]
17.731[63, 131, 447, 185, 40, 32, 25, 33]
17.746[59, 128, 435, 182, 37, 31, 23, 31]
17.769[55, 115, 439, 180, 37, 28, 23, 29]
17.791[51, 103, 430, 173, 33, 25, 25, 25]
17.806[50, 109, 393, 166, 39, 23, 26, 28]
17.829[46, 98, 286, 120, 35, 26, 28, 30]
17.851[49, 101, 306, 119, 36, 26, 30, 31]
17.866[47, 110, 389, 135, 38, 29, 29, 33]
17.889[55, 148, 417, 153, 41, 31, 29, 35]
17.911[55, 152, 387, 133, 36, 32, 27, 32]
17.927[55, 154, 406, 145, 40, 31, 24, 31]
17.948[57, 153, 412, 146, 42, 31, 26, 38]
17.971[68, 152, 325, 134, 41, 33, 26, 50]
17.986[65, 117, 302, 109, 41, 32, 24, 49]
18.009[65, 116, 288, 109, 44, 30, 25, 50]
18.032[63, 113, 285, 89, 38, 28, 25, 51]
18.046[59, 108, 292, 82, 35, 28, 23, 49]
18.069[57, 102, 308, 105, 37, 24, 23, 55]
18.091[55, 100, 328, 102, 36, 25, 25, 55]
18.106[55, 84, 347, 102, 34, 26, 27, 56]
18.129[57, 82, 334, 100, 35, 26, 29, 55]
18.151[57, 86, 302, 105, 34, 26, 27, 52]
18.165[44, 80, 278, 89, 31, 25, 28, 30]
18.188[43, 81, 248, 121, 35, 24, 27, 28]
18.211[49, 88, 294, 122, 37, 23, 27, 40]
18.225[47, 93, 318, 145, 44, 26, 26, 40]
18.249[53, 95, 334, 150, 45, 26, 27, 43]
18.271[54, 100, 343, 142, 44, 26, 27, 45]
18.285[53, 97, 328, 128, 43, 26, 27, 45]
18.309[48, 91, 389, 123, 41, 25, 25, 32]
18.331[51, 87, 383, 98, 33, 22, 23, 35]
18.353[51, 78, 360, 96, 34, 22, 23, 41]
18.369[50, 80, 367, 101, 34, 22, 23, 41]
18.391[52, 87, 405, 111, 35, 22, 23, 43]
18.405[53, 82, 314, 111, 35, 24, 23, 44]
18.429[53, 80, 280, 110, 35, 24, 24, 42]
18.451[49, 82, 282, 105, 34, 26, 24, 33]
18.465[58, 86, 309, 103, 35, 26, 22, 45]
18.496[56, 82, 269, 89, 31, 26, 21, 43]
18.511[53, 78, 290, 101, 33, 24, 21, 46]
18.534[50, 79, 340, 102, 36, 25, 20, 46]
18.548[53, 90, 346, 102, 38, 24, 20, 46]
18.572[46, 108, 357, 115, 42, 27, 20, 35]
18.594[44, 114, 362, 108, 42, 26, 21, 35]
18.608[55, 117, 339, 99, 42, 27, 24, 49]
18.631[56, 114, 322, 101, 42, 27, 25, 50]
18.654[56, 106, 332, 101, 39, 25, 24, 49]
18.669[59, 92, 322, 105, 37, 26, 25, 50]
18.691[60, 83, 316, 112, 36, 28, 24, 52]
18.714[49, 82, 312, 108, 31, 26, 22, 36]
18.729[52, 95, 347, 107, 33, 28, 27, 37]
18.752[49, 97, 364, 105, 33, 28, 27, 36]
18.774[50, 106, 363, 97, 36, 27, 27, 43]
18.789[50, 105, 363, 91, 35, 25, 27, 41]
18.811[58, 130, 434, 135, 38, 30, 29, 45]
18.834[52, 121, 383, 129, 35, 27, 23, 43]
18.849[56, 124, 361, 135, 37, 29, 23, 43]
18.871[47, 110, 331, 134, 32, 28, 22, 33]
18.894[51, 112, 320, 131, 33, 27, 24, 33]
18.909[45, 88, 287, 98, 32, 23, 23, 29]
18.932[47, 87, 307, 103, 31, 23, 22, 28]
18.954[47, 98, 355, 113, 31, 25, 24, 25]
18.969[50, 106, 380, 109, 34, 27, 28, 27]
18.991[48, 101, 389, 115, 35, 27, 27, 26]
19.014[47, 92, 322, 107, 34, 28, 25, 25]
19.028[55, 104, 313, 111, 36, 31, 26, 29]
19.051[54, 92, 244, 94, 35, 28, 24, 28]
19.074[54, 83, 209, 87, 32, 26, 20, 28]
19.095[56, 84, 239, 79, 31, 28, 20, 27]
19.112[55, 89, 263, 84, 33, 26, 22, 27]
19.133[47, 79, 327, 73, 32, 25, 25, 27]
19.155[42, 72, 330, 77, 32, 25, 27, 26]
19.172[38, 67, 324, 82, 33, 25, 27, 24]
19.193[34, 70, 320, 82, 32, 26, 27, 25]
19.215[38, 73, 313, 76, 29, 24, 27, 23]
19.232[36, 69, 250, 101, 30, 26, 26, 22]
19.253[37, 67, 254, 100, 30, 27, 26, 24]
19.269[38, 76, 266, 100, 32, 26, 24, 23]
19.292[43, 79, 255, 102, 32, 29, 25, 25]
19.313[41, 76, 260, 102, 30, 29, 25, 25]
19.329[39, 78, 272, 77, 29, 26, 25, 24]
19.352[40, 89, 287, 75, 28, 27, 23, 23]
19.373[41, 82, 300, 95, 28, 28, 24, 26]
19.39[35, 79, 302, 91, 29, 28, 25, 25]
19.412[37, 78, 294, 92, 29, 29, 24, 27]
19.433[37, 73, 281, 97, 29, 28, 23, 25]
19.455[41, 66, 291, 100, 31, 30, 23, 27]
19.472[42, 67, 268, 87, 27, 29, 21, 24]
19.493[43, 62, 245, 90, 26, 25, 18, 24]
19.515[42, 61, 242, 94, 27, 25, 19, 25]
19.532[46, 64, 273, 97, 29, 25, 19, 27]
19.554[43, 69, 293, 125, 34, 21, 19, 26]
19.575[50, 80, 305, 130, 38, 24, 22, 27]
19.592[50, 82, 317, 129, 37, 23, 22, 25]
19.613[51, 87, 306, 131, 39, 23, 23, 24]
19.635[50, 84, 283, 132, 38, 23, 23, 23]
19.65[52, 80, 253, 105, 36, 28, 24, 26]
19.673[44, 62, 232, 93, 33, 25, 22, 25]
19.696[44, 62, 225, 92, 36, 28, 23, 27]
19.711[49, 64, 247, 108, 37, 28, 22, 26]
19.733[47, 67, 250, 104, 38, 28, 23, 27]
19.756[49, 82, 284, 114, 37, 26, 22, 27]
19.77[49, 85, 306, 117, 38, 26, 21, 27]
19.793[52, 89, 314, 134, 42, 24, 23, 27]
19.815[49, 87, 311, 116, 41, 24, 24, 28]
19.83[51, 85, 358, 136, 41, 25, 23, 26]
19.853[50, 72, 320, 125, 41, 23, 24, 25]
19.875[48, 70, 292, 124, 39, 24, 28, 28]
19.891[43, 72, 339, 104, 32, 25, 27, 28]
19.913[39, 66, 337, 101, 29, 23, 28, 27]
19.944[39, 67, 269, 68, 28, 22, 27, 29]
19.95[34, 63, 263, 63, 30, 27, 28, 27]
19.973[36, 65, 360, 78, 35, 25, 26, 25]
19.996[38, 56, 315, 76, 35, 24, 25, 25]
20.01[38, 58, 357, 90, 36, 23, 23, 24]
20.033[41, 58, 370, 90, 36, 27, 25, 25]
20.055[39, 55, 399, 119, 35, 22, 24, 27]
20.079[41, 59, 347, 135, 35, 23, 22, 25]
20.093[40, 68, 354, 143, 37, 24, 23, 24]
20.115[38, 64, 308, 141, 37, 26, 23, 25]
20.138[38, 68, 322, 149, 35, 24, 21, 23]
20.153[41, 88, 301, 130, 34, 24, 21, 20]
20.184[40, 87, 272, 105, 32, 25, 21, 21]
20.19[42, 79, 265, 99, 30, 25, 20, 22]
20.221[45, 81, 252, 94, 32, 26, 23, 22]
20.235[47, 88, 236, 81, 33, 26, 22, 25]
20.25[46, 72, 216, 74, 34, 26, 20, 25]
20.273[45, 77, 289, 90, 34, 26, 19, 26]
20.297[42, 81, 282, 91, 36, 26, 20, 25]
20.31[40, 86, 311, 89, 33, 26, 21, 26]
20.333[38, 79, 305, 92, 34, 26, 21, 26]
20.356[38, 79, 315, 91, 32, 25, 23, 25]
20.371[39, 70, 251, 75, 30, 23, 24, 23]
20.393[43, 75, 254, 79, 30, 23, 25, 24]
20.415[46, 69, 241, 78, 31, 22, 22, 24]
20.438[41, 64, 254, 76, 30, 21, 23, 24]
20.453[39, 59, 284, 101, 33, 22, 22, 24]
20.476[40, 60, 274, 101, 35, 24, 21, 26]
20.498[38, 51, 290, 103, 34, 24, 22, 26]
20.513[33, 51, 272, 103, 32, 23, 22, 26]
20.536[40, 61, 242, 102, 33, 24, 22, 26]
20.558[41, 61, 190, 84, 33, 26, 22, 27]
20.575[39, 62, 191, 84, 30, 26, 22, 26]
20.595[42, 65, 199, 90, 36, 27, 21, 29]
20.618[50, 67, 232, 96, 36, 27, 22, 30]
20.633[47, 63, 261, 97, 34, 25, 21, 30]
20.656[46, 67, 274, 100, 33, 22, 21, 29]
20.678[48, 69, 287, 108, 35, 21, 22, 30]
20.693[49, 76, 313, 103, 30, 20, 22, 30]
20.715[47, 79, 301, 98, 30, 23, 21, 31]
20.738[51, 87, 299, 96, 34, 30, 24, 32]
20.753[50, 85, 319, 90, 34, 29, 23, 31]
20.775[50, 88, 321, 103, 39, 30, 23, 31]
20.798[46, 77, 322, 105, 37, 29, 23, 28]
20.813[60, 82, 341, 111, 39, 31, 25, 31]
20.835[58, 69, 318, 109, 34, 24, 24, 29]
20.858[59, 74, 321, 120, 35, 27, 27, 30]
20.873[57, 68, 320, 102, 26, 26, 27, 30]
20.895[63, 72, 295, 97, 28, 26, 29, 31]
20.918[47, 58, 272, 87, 26, 23, 28, 25]
20.94[50, 62, 292, 89, 29, 24, 27, 29]
20.955[49, 55, 248, 71, 27, 22, 24, 28]
20.986[53, 72, 236, 68, 28, 23, 25, 29]
20.993[47, 76, 277, 69, 32, 23, 26, 30]
21.016[47, 81, 371, 94, 32, 25, 26, 30]
21.038[45, 82, 358, 90, 31, 24, 26, 26]
21.054[48, 89, 364, 96, 32, 25, 27, 27]
21.075[44, 80, 365, 102, 30, 25, 26, 26]
21.098[45, 77, 344, 97, 29, 26, 25, 30]
21.113[42, 74, 268, 88, 32, 26, 25, 29]
21.135[39, 72, 276, 102, 31, 27, 25, 29]
21.158[34, 64, 285, 98, 30, 27, 24, 28]
21.173[39, 63, 280, 94, 34, 28, 23, 30]
21.195[41, 55, 277, 107, 34, 27, 23, 24]
21.218[41, 50, 234, 98, 32, 25, 21, 24]
21.233[41, 48, 236, 85, 31, 25, 22, 24]
21.255[45, 50, 249, 93, 32, 23, 23, 25]
21.278[40, 46, 272, 98, 31, 23, 22, 23]
21.293[36, 48, 247, 81, 28, 22, 21, 22]
21.315[38, 52, 261, 84, 30, 23, 22, 22]
21.338[37, 59, 304, 102, 34, 24, 23, 28]
21.36[38, 61, 293, 103, 36, 23, 22, 26]
21.375[43, 67, 280, 103, 33, 23, 23, 28]
21.398[41, 72, 284, 104, 33, 26, 25, 30]
21.421[39, 68, 311, 110, 33, 25, 25, 30]
21.435[38, 67, 277, 99, 29, 28, 26, 26]
21.458[36, 73, 293, 90, 28, 29, 27, 27]
21.481[30, 70, 295, 93, 31, 29, 26, 25]
21.495[33, 67, 292, 94, 31, 26, 23, 22]
21.518[36, 69, 262, 83, 33, 27, 25, 23]
21.541[40, 71, 258, 85, 34, 24, 23, 24]
21.555[38, 67, 247, 80, 34, 24, 22, 24]
21.578[39, 72, 263, 69, 31, 25, 22, 24]
21.609[39, 70, 272, 69, 30, 26, 22, 26]
21.615[44, 78, 274, 76, 28, 27, 24, 25]
21.638[40, 82, 282, 67, 28, 26, 23, 24]
21.661[43, 81, 299, 69, 24, 27, 24, 23]
21.675[41, 74, 284, 70, 26, 24, 23, 23]
21.698[40, 73, 262, 66, 26, 23, 22, 23]
21.721[37, 66, 266, 65, 26, 22, 20, 23]
21.735[37, 55, 354, 93, 30, 21, 20, 22]
21.758[36, 73, 384, 107, 33, 20, 19, 23]
21.781[43, 85, 386, 110, 33, 21, 22, 24]
21.795[44, 87, 397, 110, 33, 21, 21, 24]
21.818[42, 88, 393, 108, 33, 20, 22, 23]
21.841[43, 90, 302, 87, 29, 21, 21, 23]
21.856[43, 82, 219, 78, 29, 25, 22, 24]
21.886[40, 80, 209, 75, 29, 25, 21, 26]
21.901[39, 80, 185, 78, 29, 26, 23, 26]
21.915[41, 79, 191, 73, 30, 27, 22, 27]
21.938[39, 76, 213, 91, 31, 26, 23, 26]
21.961[41, 69, 255, 84, 31, 22, 24, 26]
21.975[41, 78, 361, 88, 34, 22, 24, 21]
21.998[40, 80, 372, 93, 33, 21, 22, 22]
22.021[37, 81, 368, 96, 33, 24, 21, 20]
22.035[38, 82, 390, 117, 41, 26, 20, 20]
22.058[39, 84, 409, 124, 41, 26, 20, 25]
22.081[41, 66, 322, 122, 41, 26, 21, 25]
22.095[41, 63, 323, 124, 43, 26, 22, 27]
22.118[43, 66, 351, 135, 43, 24, 23, 29]
22.142[47, 65, 308, 102, 34, 23, 22, 28]
22.155[45, 61, 240, 95, 34, 22, 21, 23]
22.178[43, 62, 254, 107, 35, 21, 20, 25]
22.209[43, 63, 283, 106, 36, 24, 21, 23]
22.215[43, 56, 237, 96, 38, 24, 22, 22]
22.238[37, 58, 249, 103, 42, 24, 24, 22]
22.261[43, 56, 275, 134, 54, 25, 24, 23]
22.276[47, 64, 268, 131, 56, 27, 26, 25]
22.298[51, 67, 224, 127, 54, 28, 26, 26]
22.321[52, 82, 328, 136, 56, 28, 24, 26]
22.344[53, 80, 341, 144, 56, 28, 25, 26]
22.358[51, 81, 347, 119, 47, 29, 25, 27]
22.382[51, 74, 350, 117, 43, 28, 23, 24]
22.403[49, 71, 343, 146, 52, 28, 22, 23]
22.419[53, 52, 254, 146, 54, 30, 25, 29]
22.441[57, 60, 236, 145, 58, 32, 23, 31]
22.464[60, 56, 207, 148, 57, 32, 24, 34]
22.478[71, 60, 217, 154, 57, 31, 24, 36]
22.501[72, 62, 242, 186, 61, 29, 25, 37]
22.524[72, 65, 232, 184, 61, 27, 21, 35]
22.538[73, 57, 226, 188, 59, 25, 22, 35]
22.561[71, 62, 328, 201, 58, 24, 24, 32]
22.584[58, 62, 315, 218, 62, 26, 24, 30]
22.598[55, 61, 303, 197, 58, 30, 25, 30]
22.621[52, 56, 314, 213, 60, 29, 27, 31]
22.643[57, 55, 314, 218, 62, 31, 27, 31]
22.658[58, 49, 233, 215, 68, 30, 24, 29]
22.681[56, 52, 261, 246, 65, 31, 22, 28]
22.704[67, 51, 260, 244, 72, 32, 31, 32]
22.718[74, 55, 262, 257, 76, 35, 35, 32]
22.741[73, 56, 250, 295, 82, 35, 34, 33]
22.764[74, 55, 214, 293, 78, 36, 34, 36]
22.778[84, 51, 154, 284, 81, 38, 36, 39]
22.801[78, 61, 209, 290, 73, 35, 27, 34]
22.823[74, 62, 204, 273, 62, 32, 21, 32]
22.838[68, 65, 208, 271, 59, 30, 23, 31]
22.861[97, 70, 227, 271, 58, 29, 22, 31]
22.884[102, 69, 227, 234, 53, 29, 22, 33]
22.898[106, 63, 167, 237, 54, 26, 22, 35]
22.93[108, 59, 151, 245, 56, 29, 27, 37]
22.944[116, 58, 150, 195, 52, 31, 29, 40]
22.958[93, 50, 130, 255, 74, 33, 32, 43]
22.981[77, 59, 161, 265, 82, 37, 33, 44]
23.003[74, 58, 158, 249, 83, 39, 37, 49]
23.018[72, 58, 157, 254, 86, 39, 36, 50]
23.049[55, 55, 168, 260, 99, 39, 37, 50]
23.064[56, 60, 179, 206, 85, 38, 36, 47]
23.078[76, 51, 162, 217, 82, 33, 39, 47]
23.101[92, 56, 174, 210, 78, 31, 37, 44]
23.124[91, 57, 182, 214, 82, 31, 40, 42]
23.138[93, 62, 205, 268, 78, 35, 41, 41]
23.161[98, 63, 201, 271, 79, 37, 43, 41]
23.184[111, 63, 204, 260, 78, 40, 45, 48]
23.198[97, 57, 208, 278, 83, 40, 47, 52]
23.221[103, 56, 206, 258, 79, 40, 47, 53]
23.243[108, 52, 179, 213, 70, 37, 49, 54]
23.266[101, 46, 172, 253, 74, 38, 55, 54]
23.281[82, 49, 182, 276, 77, 43, 60, 50]
23.303[86, 48, 169, 257, 71, 45, 61, 45]
23.326[95, 52, 159, 265, 69, 46, 63, 51]
23.341[93, 51, 160, 274, 65, 44, 64, 64]
23.364[97, 49, 161, 240, 56, 41, 58, 65]
23.387[101, 56, 147, 207, 52, 34, 48, 65]
23.401[100, 60, 170, 237, 55, 34, 48, 66]
23.423[104, 69, 200, 228, 56, 31, 44, 63]
23.446[115, 71, 203, 257, 73, 37, 44, 54]
23.461[119, 71, 221, 348, 92, 40, 48, 68]
23.483[112, 63, 207, 377, 100, 41, 50, 67]
23.506[125, 59, 184, 381, 103, 40, 48, 67]
23.521[112, 50, 162, 381, 103, 41, 50, 70]
23.544[107, 47, 170, 384, 97, 37, 48, 67]
23.566[109, 51, 139, 291, 82, 35, 49, 56]
23.581[113, 54, 143, 266, 72, 32, 51, 64]
23.603[100, 55, 172, 262, 73, 31, 51, 63]
23.626[109, 54, 182, 292, 79, 34, 47, 61]
23.64[111, 55, 158, 235, 75, 39, 54, 69]
23.664[107, 53, 162, 258, 78, 39, 53, 67]
23.686[107, 50, 166, 277, 89, 44, 50, 59]
23.701[105, 50, 149, 314, 105, 46, 50, 63]
23.724[109, 48, 136, 296, 103, 46, 56, 69]
23.746[119, 46, 146, 303, 100, 46, 56, 90]
23.76[119, 47, 152, 298, 98, 46, 55, 89]
23.783[123, 52, 163, 287, 94, 47, 59, 95]
23.806[127, 53, 149, 259, 81, 49, 61, 95]
23.828[118, 54, 139, 260, 79, 46, 59, 93]
23.844[106, 55, 150, 265, 84, 48, 60, 71]
23.866[104, 58, 165, 298, 100, 49, 60, 75]
23.881[99, 54, 166, 289, 95, 47, 61, 79]
23.904[94, 52, 169, 259, 88, 44, 62, 82]
23.926[98, 52, 179, 308, 96, 46, 67, 90]
23.94[96, 52, 177, 320, 101, 45, 65, 91]
23.963[110, 52, 161, 307, 88, 41, 65, 92]
23.986[109, 52, 143, 318, 90, 43, 62, 87]
24.0[109, 54, 139, 321, 87, 43, 59, 80]
24.024[104, 53, 140, 317, 86, 42, 50, 82]
24.046[107, 53, 125, 300, 77, 38, 44, 84]
24.068[105, 52, 157, 314, 96, 42, 46, 83]
24.084[98, 58, 164, 309, 97, 38, 42, 85]
24.107[103, 58, 167, 308, 102, 40, 46, 90]
24.128[103, 56, 161, 275, 104, 43, 51, 82]
24.152[103, 62, 159, 271, 102, 43, 52, 88]
24.165[94, 61, 164, 341, 98, 41, 52, 87]
24.19[97, 56, 160, 338, 95, 39, 51, 81]
24.204[90, 56, 161, 343, 92, 36, 47, 75]
24.225[94, 60, 172, 353, 101, 34, 51, 80]
24.248[82, 55, 171, 357, 101, 32, 50, 71]
24.264[83, 52, 200, 277, 89, 35, 52, 72]
24.285[85, 49, 202, 272, 87, 36, 54, 76]
24.308[90, 47, 206, 293, 98, 40, 56, 82]
24.324[92, 42, 208, 315, 81, 37, 47, 74]
24.345[100, 41, 214, 320, 79, 39, 45, 67]
24.368[95, 40, 163, 308, 85, 39, 43, 66]
24.384[97, 41, 167, 318, 87, 39, 43, 61]
24.405[93, 41, 163, 297, 74, 37, 42, 54]
24.428[96, 40, 143, 265, 74, 38, 43, 56]
24.444[97, 47, 154, 285, 83, 40, 44, 60]
24.465[94, 57, 144, 281, 76, 36, 40, 56]
24.495[86, 58, 141, 260, 72, 39, 40, 58]
24.504[89, 64, 149, 264, 76, 36, 41, 62]
24.526[78, 65, 151, 252, 73, 36, 40, 61]
24.548[86, 65, 159, 232, 65, 34, 40, 56]
24.565[92, 60, 163, 220, 67, 34, 43, 63]
24.586[109, 61, 174, 231, 67, 34, 42, 62]
24.608[109, 55, 173, 208, 62, 34, 41, 62]
24.624[125, 58, 171, 203, 64, 36, 44, 69]
24.645[117, 55, 151, 200, 64, 32, 41, 70]
24.668[121, 53, 146, 233, 61, 36, 42, 71]
24.684[117, 52, 135, 229, 63, 37, 47, 80]
24.705[117, 53, 124, 241, 64, 38, 46, 78]
24.728[103, 48, 125, 250, 66, 36, 44, 69]
24.744[97, 48, 124, 239, 66, 37, 48, 69]
24.766[87, 45, 128, 222, 66, 33, 44, 63]
24.788[78, 48, 133, 238, 65, 30, 40, 53]
24.804[75, 43, 147, 261, 70, 29, 39, 50]
24.826[70, 43, 147, 249, 66, 28, 38, 50]
24.848[80, 49, 145, 274, 65, 33, 41, 58]
24.865[95, 56, 157, 286, 69, 36, 44, 63]
24.885[94, 52, 145, 270, 66, 37, 45, 67]
24.908[98, 54, 142, 241, 71, 40, 52, 72]
24.924[97, 55, 144, 257, 70, 43, 54, 73]
24.946[103, 50, 150, 238, 75, 41, 55, 81]
24.968[88, 48, 139, 220, 83, 45, 60, 83]
24.984[89, 46, 150, 234, 89, 45, 60, 83]
25.005[88, 47, 137, 232, 81, 44, 55, 85]
25.028[91, 46, 136, 229, 84, 44, 52, 87]
25.043[78, 47, 145, 258, 86, 44, 50, 76]
25.066[88, 41, 134, 266, 79, 42, 42, 70]
25.088[91, 51, 124, 273, 79, 41, 43, 67]
25.103[97, 51, 146, 287, 89, 43, 44, 60]
25.133[96, 51, 147, 276, 88, 41, 42, 52]
25.148[101, 52, 148, 259, 87, 41, 42, 50]
25.178[99, 52, 153, 249, 82, 38, 40, 47]
25.185[94, 45, 147, 228, 75, 36, 41, 58]
25.208[87, 51, 131, 218, 69, 33, 41, 60]
25.23[82, 48, 126, 218, 64, 31, 39, 59]
25.246[72, 46, 104, 197, 56, 27, 35, 57]
25.268[64, 47, 110, 202, 60, 26, 36, 57]
25.291[64, 48, 114, 205, 61, 30, 38, 49]
25.305[60, 40, 107, 216, 57, 30, 39, 51]
25.328[61, 41, 106, 211, 59, 33, 40, 57]
25.35[63, 47, 110, 229, 59, 34, 41, 58]
25.365[65, 51, 92, 210, 53, 35, 38, 59]
25.388[70, 51, 92, 211, 54, 31, 34, 55]
25.411[71, 51, 87, 202, 68, 35, 32, 51]
25.425[69, 52, 102, 233, 75, 36, 34, 47]
25.448[68, 48, 119, 279, 86, 40, 33, 47]
25.47[61, 44, 126, 285, 87, 41, 34, 44]
25.487[59, 42, 134, 295, 89, 41, 32, 43]
25.508[54, 43, 134, 287, 79, 37, 28, 43]
25.53[59, 43, 126, 263, 78, 37, 26, 44]
25.545[60, 46, 105, 182, 66, 30, 27, 44]
25.569[63, 46, 109, 181, 65, 30, 26, 43]
25.59[56, 48, 98, 175, 72, 30, 28, 41]
25.605[56, 48, 106, 217, 74, 33, 29, 42]
25.628[52, 47, 102, 219, 70, 32, 28, 39]
25.65[48, 42, 112, 224, 69, 33, 27, 39]
25.665[52, 41, 102, 220, 66, 32, 27, 43]
25.688[52, 41, 99, 224, 64, 33, 30, 47]
25.71[57, 44, 98, 182, 60, 32, 32, 53]
25.725[60, 41, 91, 172, 57, 30, 31, 53]
25.748[61, 44, 78, 163, 58, 32, 31, 57]
25.77[60, 42, 81, 170, 64, 33, 30, 53]
25.785[59, 44, 83, 156, 59, 34, 29, 49]
25.808[60, 44, 76, 176, 61, 32, 26, 43]
25.83[58, 46, 89, 197, 62, 31, 26, 41]
25.845[56, 46, 88, 198, 60, 29, 24, 30]
25.868[54, 51, 83, 184, 52, 25, 24, 28]
25.89[57, 52, 79, 168, 46, 24, 22, 28]
25.906[53, 52, 79, 149, 38, 37, 21, 24]
25.928[52, 52, 65, 115, 34, 38, 20, 24]
25.95[51, 52, 66, 107, 33, 41, 21, 24]
25.967[53, 55, 77, 101, 34, 44, 23, 24]
25.988[53, 57, 77, 94, 34, 50, 27, 22]
26.019[48, 54, 76, 70, 33, 46, 28, 23]
26.025[51, 61, 130, 68, 34, 49, 30, 22]
26.049[55, 64, 143, 95, 48, 50, 31, 22]
26.07[50, 66, 171, 93, 48, 48, 30, 22]
26.093[49, 65, 219, 108, 53, 43, 28, 25]
26.108[57, 81, 272, 118, 58, 40, 26, 26]
26.131[56, 82, 272, 127, 58, 49, 27, 26]
26.153[52, 80, 294, 132, 49, 47, 26, 26]
26.168[50, 80, 299, 139, 52, 48, 25, 27]
26.19[59, 91, 295, 138, 45, 47, 24, 26]
26.213[51, 80, 263, 134, 45, 45, 25, 27]
26.228[54, 76, 259, 140, 54, 37, 24, 28]
26.251[58, 80, 241, 146, 66, 37, 28, 32]
26.275[59, 79, 242, 139, 65, 39, 30, 31]
26.288[48, 68, 274, 145, 66, 36, 30, 30]
26.31[52, 71, 289, 146, 65, 36, 31, 30]
26.333[46, 73, 285, 147, 63, 31, 31, 30]
26.348[41, 76, 291, 135, 56, 31, 29, 27]
26.371[41, 75, 302, 139, 56, 28, 27, 27]
26.393[51, 81, 253, 136, 63, 29, 27, 28]
26.408[47, 76, 262, 135, 63, 27, 24, 26]
26.43[48, 77, 309, 129, 61, 28, 24, 27]
26.453[57, 88, 333, 122, 55, 27, 23, 28]
26.468[55, 87, 308, 121, 62, 30, 25, 27]
26.491[48, 79, 326, 110, 56, 30, 24, 26]
26.513[52, 85, 332, 105, 54, 31, 26, 27]
26.528[52, 90, 343, 100, 53, 32, 26, 26]
26.551[44, 89, 374, 88, 50, 31, 28, 26]
26.573[45, 90, 400, 83, 40, 28, 26, 26]
26.588[51, 89, 412, 84, 42, 29, 27, 29]
26.61[55, 86, 428, 91, 42, 32, 26, 30]
26.633[53, 86, 468, 111, 40, 29, 24, 30]
26.648[57, 90, 470, 140, 45, 30, 20, 28]
26.67[56, 95, 476, 149, 44, 31, 21, 34]
26.693[60, 99, 454, 151, 43, 29, 22, 47]
26.708[58, 105, 432, 158, 44, 27, 24, 47]
26.73[57, 106, 458, 146, 42, 28, 26, 47]
26.753[56, 102, 415, 120, 35, 26, 29, 48]
26.768[64, 102, 455, 109, 36, 27, 29, 46]
26.798[54, 101, 486, 104, 32, 27, 26, 31]
26.814[50, 94, 487, 106, 29, 27, 25, 33]
26.828[60, 96, 411, 101, 30, 29, 26, 34]
26.851[58, 92, 423, 97, 29, 27, 23, 33]
26.873[51, 94, 397, 102, 32, 28, 23, 31]
26.888[59, 93, 382, 102, 33, 29, 28, 54]
26.91[60, 104, 398, 85, 35, 28, 27, 52]
26.934[57, 108, 385, 94, 35, 28, 26, 53]
26.948[54, 102, 375, 96, 36, 29, 26, 55]
26.97[56, 98, 339, 93, 36, 28, 28, 55]
26.993[51, 108, 407, 100, 34, 27, 26, 35]
27.016[51, 100, 382, 100, 34, 27, 25, 49]
27.03[52, 93, 379, 96, 35, 27, 24, 52]
27.054[53, 106, 374, 92, 35, 27, 25, 51]
27.076[52, 125, 441, 100, 36, 27, 21, 51]
27.09[58, 149, 411, 106, 37, 29, 21, 50]
27.121[61, 164, 440, 106, 38, 29, 24, 35]
27.136[56, 162, 451, 103, 36, 27, 23, 34]
27.158[62, 164, 485, 124, 35, 26, 24, 68]
27.173[63, 152, 417, 130, 36, 27, 26, 81]
27.196[57, 120, 389, 127, 35, 25, 26, 85]
27.21[59, 104, 369, 124, 34, 24, 25, 85]
27.234[68, 108, 361, 119, 36, 24, 29, 89]
27.256[63, 103, 314, 104, 34, 25, 30, 67]
27.27[65, 99, 307, 84, 34, 25, 28, 51]
27.294[71, 116, 328, 121, 36, 25, 28, 45]
27.316[65, 118, 381, 138, 34, 26, 28, 47]
27.331[54, 112, 401, 141, 34, 26, 25, 32]
27.353[72, 107, 470, 146, 38, 29, 24, 55]
27.376[72, 107, 476, 160, 40, 27, 25, 57]
27.391[64, 87, 454, 140, 43, 28, 23, 56]
27.413[64, 84, 470, 131, 44, 28, 24, 54]
27.436[67, 93, 465, 127, 46, 31, 26, 55]
27.45[43, 88, 411, 122, 46, 27, 25, 31]
27.474[39, 88, 416, 108, 43, 27, 26, 26]
27.496[40, 96, 445, 90, 39, 26, 27, 41]
27.51[51, 89, 374, 90, 44, 27, 28, 45]
27.534[55, 84, 351, 100, 42, 25, 26, 48]
27.556[57, 89, 390, 110, 40, 26, 25, 47]
27.57[57, 91, 386, 106, 38, 28, 24, 49]
27.593[61, 86, 357, 112, 36, 27, 23, 50]
27.616[57, 95, 392, 139, 37, 27, 23, 47]
27.63[50, 95, 408, 135, 37, 27, 25, 44]
27.654[53, 101, 367, 131, 37, 26, 25, 46]
27.676[57, 100, 406, 142, 41, 26, 25, 46]
27.69[51, 95, 405, 154, 42, 25, 25, 47]
27.713[56, 87, 387, 128, 38, 24, 25, 56]
27.736[57, 97, 443, 137, 37, 26, 23, 57]
27.751[57, 94, 446, 131, 35, 27, 23, 58]
27.773[59, 109, 445, 122, 35, 27, 23, 57]
27.796[66, 116, 466, 98, 36, 27, 23, 60]
27.81[59, 117, 459, 95, 33, 27, 21, 52]
27.834[62, 103, 383, 81, 33, 28, 23, 53]
27.856[62, 96, 375, 78, 35, 31, 24, 51]
27.87[58, 100, 394, 95, 32, 31, 25, 49]
27.894[48, 98, 399, 96, 34, 32, 28, 32]
27.916[62, 99, 402, 101, 33, 33, 29, 50]
27.93[60, 109, 407, 114, 36, 28, 27, 50]
27.953[60, 112, 397, 115, 34, 25, 27, 52]
27.976[59, 95, 338, 99, 32, 23, 25, 53]
27.998[68, 98, 330, 109, 32, 22, 25, 65]
28.014[55, 97, 310, 102, 36, 20, 23, 52]
28.044[57, 102, 342, 87, 37, 23, 26, 58]
28.059[63, 100, 362, 80, 37, 25, 29, 59]
28.074[69, 104, 364, 85, 38, 26, 29, 66]
28.096[60, 99, 343, 102, 38, 26, 31, 58]
28.118[62, 96, 401, 108, 37, 26, 31, 60]
28.134[62, 83, 409, 112, 34, 26, 32, 55]
28.156[57, 92, 391, 118, 35, 25, 31, 51]
28.186[56, 87, 399, 113, 37, 28, 32, 58]
28.193[56, 83, 408, 103, 36, 28, 28, 54]
28.216[58, 82, 349, 103, 37, 28, 26, 52]
28.238[54, 79, 284, 102, 37, 28, 24, 52]
28.261[55, 75, 305, 113, 36, 27, 23, 54]
28.276[60, 81, 295, 121, 35, 25, 22, 55]
28.298[60, 83, 342, 123, 36, 23, 23, 55]
28.314[58, 82, 349, 118, 33, 23, 24, 54]
28.344[63, 90, 359, 116, 30, 24, 24, 52]
28.358[62, 84, 368, 105, 32, 23, 22, 50]
28.374[60, 84, 369, 103, 32, 21, 23, 44]
28.396[58, 84, 296, 84, 29, 22, 24, 42]
28.419[57, 88, 353, 116, 37, 24, 24, 44]
28.434[56, 80, 352, 115, 39, 22, 24, 45]
28.456[55, 77, 322, 111, 36, 22, 25, 46]
28.479[48, 66, 315, 111, 40, 26, 29, 33]
28.493[66, 83, 354, 116, 46, 30, 32, 57]
28.516[65, 75, 277, 84, 44, 31, 32, 58]
28.538[68, 91, 342, 86, 45, 32, 31, 58]
28.553[67, 95, 358, 99, 46, 33, 31, 60]
28.576[68, 103, 351, 107, 47, 33, 28, 61]
28.598[61, 87, 321, 98, 41, 30, 21, 56]
28.613[72, 96, 319, 99, 37, 29, 22, 55]
28.636[66, 85, 266, 98, 35, 27, 21, 54]
28.658[69, 84, 260, 93, 36, 27, 24, 53]
28.681[69, 76, 249, 77, 30, 25, 23, 51]
28.696[64, 86, 231, 81, 33, 25, 26, 49]
28.719[54, 83, 278, 90, 36, 24, 26, 46]
28.733[55, 86, 272, 90, 37, 26, 28, 46]
28.756[52, 87, 282, 84, 35, 26, 26, 47]
28.778[55, 97, 316, 101, 36, 27, 28, 45]
28.793[53, 89, 321, 101, 34, 27, 24, 28]
28.824[56, 98, 314, 98, 32, 29, 27, 30]
28.839[54, 93, 312, 97, 29, 26, 26, 27]
28.853[58, 97, 301, 105, 32, 29, 28, 30]
28.876[56, 86, 274, 86, 28, 27, 25, 45]
28.898[55, 87, 275, 85, 28, 27, 26, 46]
28.913[62, 86, 274, 87, 33, 27, 24, 48]
28.936[61, 88, 281, 88, 33, 27, 24, 48]
28.958[56, 79, 269, 91, 33, 26, 23, 47]
28.988[52, 78, 271, 91, 34, 25, 24, 33]
28.996[59, 79, 309, 103, 40, 26, 26, 47]
29.019[49, 56, 273, 95, 34, 26, 25, 45]
29.041[51, 49, 239, 89, 37, 27, 24, 45]
29.064[58, 79, 270, 83, 36, 25, 23, 46]
29.078[61, 81, 286, 85, 35, 25, 22, 46]
29.1[57, 83, 253, 76, 33, 27, 23, 35]
29.117[58, 86, 257, 76, 34, 26, 22, 33]
29.138[58, 87, 271, 78, 33, 27, 23, 32]
29.16[52, 61, 241, 73, 33, 27, 21, 27]
29.178[60, 62, 228, 80, 35, 26, 22, 42]
29.198[55, 58, 204, 72, 31, 22, 20, 38]
29.22[54, 57, 215, 77, 31, 22, 23, 40]
29.237[62, 74, 253, 89, 31, 22, 26, 43]
29.258[59, 74, 271, 98, 34, 22, 27, 43]
29.28[53, 78, 262, 89, 31, 21, 28, 37]
29.296[81, 96, 261, 98, 32, 25, 27, 49]
29.318[90, 99, 257, 97, 30, 25, 26, 52]
29.34[89, 91, 272, 115, 32, 29, 25, 53]
29.357[91, 91, 247, 106, 28, 29, 25, 54]
29.378[91, 99, 372, 120, 32, 30, 26, 51]
29.401[66, 86, 383, 119, 32, 28, 25, 39]
29.417[57, 82, 381, 119, 34, 26, 24, 33]
29.438[55, 82, 355, 92, 33, 22, 23, 44]
29.46[53, 79, 363, 92, 32, 22, 23, 45]
29.477[49, 74, 236, 82, 30, 25, 21, 44]
29.498[50, 69, 224, 87, 32, 29, 23, 46]
29.52[51, 81, 222, 87, 33, 29, 25, 47]
29.537[44, 78, 194, 84, 34, 28, 25, 33]
29.558[50, 77, 237, 87, 35, 29, 25, 48]
29.58[54, 72, 287, 91, 37, 28, 27, 47]
29.597[57, 82, 295, 81, 35, 24, 25, 47]
29.618[54, 77, 333, 86, 35, 25, 25, 47]
29.641[57, 86, 353, 93, 35, 25, 25, 48]
29.657[50, 95, 334, 97, 33, 24, 25, 40]
29.678[54, 94, 305, 93, 31, 22, 24, 47]
29.7[58, 90, 295, 90, 31, 22, 24, 47]
29.717[58, 102, 335, 90, 31, 22, 21, 47]
29.738[59, 103, 370, 88, 28, 23, 24, 48]
29.76[60, 125, 487, 100, 30, 26, 24, 43]
29.776[53, 124, 485, 97, 31, 26, 22, 36]
29.798[46, 124, 500, 94, 31, 25, 23, 35]
29.821[44, 111, 457, 92, 30, 24, 23, 34]
29.837[44, 117, 467, 99, 31, 26, 24, 32]
29.858[50, 99, 342, 86, 31, 22, 24, 32]
29.882[56, 98, 325, 81, 30, 22, 25, 44]
29.903[58, 99, 329, 100, 29, 24, 25, 46]
29.918[59, 106, 358, 114, 33, 24, 26, 46]
29.94[55, 98, 348, 118, 40, 23, 24, 44]
29.963[50, 83, 329, 110, 39, 23, 22, 42]
29.978[53, 84, 376, 118, 40, 26, 22, 32]
30.0[52, 78, 351, 106, 43, 27, 23, 38]
30.023[60, 75, 315, 91, 40, 28, 24, 46]
30.038[59, 61, 241, 78, 33, 29, 23, 47]
30.06[58, 59, 241, 82, 33, 28, 24, 48]
30.091[55, 59, 186, 94, 36, 26, 24, 46]
30.097[61, 60, 209, 97, 35, 25, 24, 41]
30.12[50, 64, 268, 95, 33, 24, 21, 31]
30.143[54, 70, 285, 106, 35, 24, 20, 32]
30.158[53, 76, 324, 108, 38, 25, 21, 31]
30.18[49, 75, 321, 106, 35, 27, 21, 30]
30.211[43, 74, 306, 110, 32, 26, 19, 29]
30.217[44, 72, 265, 111, 34, 26, 21, 29]
30.24[39, 68, 310, 120, 32, 23, 21, 30]
30.263[35, 61, 270, 118, 31, 25, 24, 27]
30.278[35, 69, 292, 108, 33, 26, 25, 25]
30.3[39, 75, 299, 110, 38, 26, 27, 39]
30.322[56, 71, 283, 104, 38, 28, 26, 47]
30.338[59, 75, 221, 84, 38, 30, 28, 48]
30.36[62, 77, 261, 95, 38, 29, 27, 49]
30.383[64, 81, 266, 100, 36, 25, 26, 50]
30.399[60, 76, 249, 92, 33, 24, 26, 41]
30.42[51, 77, 253, 103, 33, 23, 27, 34]
30.443[51, 79, 289, 102, 35, 21, 28, 33]
30.458[52, 83, 267, 94, 32, 21, 28, 35]
30.489[47, 70, 259, 89, 32, 23, 30, 42]
30.503[55, 66, 267, 88, 32, 24, 28, 50]
30.518[50, 64, 270, 73, 32, 24, 28, 52]
30.54[50, 77, 301, 70, 29, 23, 24, 52]
30.562[45, 70, 290, 70, 31, 22, 23, 51]
30.578[47, 74, 290, 64, 30, 22, 21, 44]
30.6[40, 81, 338, 69, 30, 23, 21, 33]
30.623[41, 80, 336, 69, 27, 23, 20, 25]
30.638[41, 62, 291, 76, 28, 24, 20, 24]
30.66[42, 68, 306, 76, 28, 26, 20, 23]
30.682[42, 64, 286, 75, 32, 24, 19, 21]
30.698[41, 55, 214, 69, 31, 22, 19, 22]
30.72[42, 64, 240, 80, 33, 21, 20, 24]
30.743[40, 60, 219, 72, 33, 21, 19, 22]
30.765[40, 60, 201, 66, 31, 18, 18, 24]
30.78[50, 67, 194, 71, 27, 20, 21, 24]
30.802[50, 64, 204, 77, 28, 19, 20, 37]
30.825[58, 56, 176, 77, 29, 19, 22, 43]
30.84[82, 63, 214, 81, 28, 22, 22, 47]
30.863[87, 69, 254, 83, 29, 22, 23, 47]
30.885[82, 62, 264, 86, 32, 22, 22, 48]
30.9[82, 67, 260, 92, 33, 23, 23, 38]
30.923[76, 66, 253, 109, 36, 25, 22, 30]
30.945[57, 67, 236, 110, 39, 23, 22, 27]
30.961[75, 59, 185, 116, 40, 27, 24, 28]
30.983[86, 62, 165, 156, 51, 31, 25, 29]
31.005[95, 60, 169, 260, 84, 34, 26, 31]
31.021[98, 64, 176, 263, 91, 34, 28, 33]
31.043[100, 60, 157, 268, 92, 35, 29, 32]
31.065[94, 63, 167, 271, 94, 34, 30, 32]
31.08[89, 60, 166, 255, 92, 31, 29, 32]
31.103[85, 62, 163, 258, 92, 32, 31, 37]
31.125[91, 56, 158, 270, 90, 31, 29, 37]
31.14[92, 56, 182, 277, 92, 31, 29, 39]
31.162[91, 51, 172, 312, 101, 31, 32, 44]
31.185[100, 57, 197, 314, 99, 30, 31, 46]
31.2[104, 54, 215, 240, 76, 26, 31, 42]
31.222[99, 53, 213, 227, 72, 28, 31, 40]
31.246[105, 49, 182, 227, 71, 27, 29, 40]
31.261[98, 51, 181, 224, 65, 27, 29, 33]
31.283[92, 41, 172, 218, 66, 28, 30, 30]
31.305[83, 41, 150, 214, 65, 33, 29, 29]
31.321[81, 46, 152, 202, 63, 31, 28, 29]
31.343[73, 46, 151, 200, 64, 33, 28, 27]
31.365[81, 51, 168, 296, 77, 33, 24, 31]
31.38[96, 56, 140, 307, 80, 33, 27, 36]
31.403[99, 59, 133, 316, 80, 29, 31, 39]
31.425[108, 60, 134, 324, 83, 27, 32, 43]
31.44[122, 66, 128, 344, 93, 28, 32, 44]
31.463[119, 64, 106, 244, 83, 28, 31, 41]
31.485[105, 62, 122, 238, 80, 28, 29, 38]
31.501[110, 61, 128, 223, 79, 32, 26, 41]
31.522[101, 58, 191, 216, 78, 34, 31, 42]
31.545[90, 54, 207, 189, 63, 41, 38, 45]
31.56[91, 52, 207, 185, 62, 42, 43, 50]
31.583[90, 53, 220, 182, 62, 42, 43, 48]
31.605[76, 58, 222, 215, 68, 42, 44, 43]
31.62[81, 60, 169, 222, 67, 44, 45, 47]
31.651[76, 62, 166, 232, 66, 39, 49, 47]
31.665[89, 73, 205, 223, 58, 40, 58, 54]
31.68[89, 72, 186, 246, 58, 41, 62, 63]
31.703[94, 65, 179, 217, 49, 39, 65, 72]
31.725[99, 60, 182, 243, 47, 35, 65, 81]
31.74[98, 71, 190, 232, 49, 37, 61, 85]
31.762[97, 59, 158, 275, 57, 34, 53, 80]
31.794[101, 61, 172, 313, 63, 39, 55, 77]
31.809[103, 64, 174, 333, 67, 41, 52, 73]
31.823[102, 67, 182, 333, 70, 44, 55, 64]
31.845[135, 55, 167, 333, 70, 47, 57, 68]
31.876[130, 60, 171, 315, 84, 49, 59, 73]
31.883[131, 67, 166, 286, 82, 47, 57, 75]
31.905[130, 68, 171, 269, 80, 44, 56, 75]
31.929[165, 70, 173, 286, 84, 42, 52, 74]
31.943[140, 68, 183, 337, 89, 35, 45, 63]
31.965[149, 68, 175, 350, 86, 39, 44, 62]
31.988[148, 56, 177, 378, 98, 41, 42, 61]
32.003[148, 58, 179, 402, 120, 51, 44, 59]
32.025[107, 55, 171, 399, 118, 51, 46, 63]
32.048[116, 54, 157, 356, 115, 52, 51, 70]
32.063[132, 53, 145, 336, 116, 52, 56, 66]
32.086[138, 57, 141, 407, 127, 51, 56, 65]
32.109[151, 52, 135, 396, 110, 44, 55, 76]
32.122[153, 55, 129, 425, 116, 44, 54, 71]
32.145[157, 55, 134, 455, 122, 45, 54, 66]
32.168[134, 49, 140, 456, 119, 40, 46, 71]
32.183[124, 45, 131, 366, 97, 39, 46, 73]
32.205[108, 48, 125, 364, 93, 38, 44, 61]
32.228[106, 47, 124, 336, 89, 42, 47, 71]
32.243[85, 46, 115, 287, 81, 42, 46, 79]
32.266[90, 47, 124, 353, 77, 39, 45, 72]
32.288[87, 49, 119, 354, 80, 40, 43, 70]
32.303[90, 51, 148, 396, 101, 42, 44, 71]
32.326[91, 49, 158, 395, 105, 47, 57, 76]
32.348[96, 55, 184, 447, 120, 51, 60, 75]
32.363[91, 57, 196, 459, 132, 56, 63, 78]
32.386[101, 60, 207, 456, 133, 54, 63, 77]
32.409[121, 60, 201, 428, 121, 55, 64, 79]
32.431[118, 60, 199, 419, 124, 49, 50, 65]
32.446[118, 57, 174, 373, 114, 43, 45, 60]
32.469[116, 58, 146, 293, 97, 39, 44, 57]
32.483[107, 53, 148, 311, 94, 36, 42, 59]
32.506[81, 52, 154, 293, 89, 35, 42, 58]
32.528[82, 54, 144, 282, 76, 35, 47, 64]
32.543[96, 55, 155, 284, 67, 40, 57, 72]
32.566[94, 56, 181, 280, 66, 42, 55, 71]
32.589[92, 55, 203, 299, 76, 45, 60, 73]
32.603[102, 51, 199, 326, 92, 50, 62, 73]
32.626[108, 48, 210, 353, 98, 49, 59, 67]
32.649[93, 49, 203, 351, 99, 45, 50, 60]
32.662[93, 48, 203, 362, 102, 43, 51, 59]
32.686[101, 54, 212, 324, 97, 40, 44, 54]
32.708[92, 54, 208, 295, 83, 32, 41, 57]
32.731[78, 52, 198, 293, 81, 35, 43, 56]
32.747[72, 50, 202, 306, 92, 36, 42, 58]
32.768[82, 50, 196, 320, 92, 38, 45, 60]
32.791[68, 42, 164, 335, 94, 41, 49, 62]
32.806[73, 48, 163, 370, 110, 52, 58, 71]
32.828[77, 49, 159, 334, 104, 52, 61, 76]
32.851[104, 47, 159, 337, 96, 50, 61, 70]
32.866[115, 49, 146, 326, 93, 51, 62, 82]
32.888[119, 53, 129, 299, 95, 55, 64, 86]
32.911[115, 47, 115, 250, 79, 50, 55, 79]
32.926[115, 46, 112, 248, 77, 47, 48, 74]
32.948[89, 48, 108, 235, 79, 48, 45, 71]
32.971[63, 45, 104, 203, 80, 48, 42, 61]
32.986[65, 42, 103, 209, 72, 42, 40, 60]
33.008[75, 43, 113, 237, 66, 33, 37, 54]
33.031[76, 45, 126, 240, 70, 35, 38, 55]
33.046[79, 43, 122, 213, 72, 33, 38, 57]
33.068[83, 42, 128, 233, 69, 31, 36, 48]
33.091[88, 48, 130, 229, 67, 31, 33, 43]
33.106[81, 44, 124, 218, 74, 36, 35, 46]
33.129[79, 46, 146, 283, 90, 41, 41, 53]
33.151[78, 50, 171, 309, 90, 44, 44, 65]
33.166[74, 49, 173, 315, 96, 45, 44, 70]
33.188[69, 44, 172, 326, 98, 46, 47, 80]
33.211[73, 49, 171, 309, 95, 44, 46, 79]
33.225[75, 46, 175, 313, 100, 43, 43, 78]
33.249[87, 47, 163, 323, 98, 42, 39, 68]
33.271[88, 50, 160, 315, 91, 44, 41, 64]
33.293[84, 47, 170, 307, 89, 41, 36, 52]
33.308[80, 45, 165, 315, 88, 43, 40, 60]
33.331[82, 45, 135, 265, 63, 38, 41, 60]
33.345[66, 42, 122, 219, 61, 38, 43, 61]
33.368[71, 43, 147, 259, 78, 38, 41, 63]
33.391[65, 47, 148, 271, 80, 41, 44, 60]
33.405[68, 55, 153, 277, 84, 38, 41, 52]
33.428[64, 52, 166, 281, 85, 36, 38, 45]
33.451[74, 53, 167, 302, 85, 34, 36, 46]
33.465[82, 51, 140, 253, 70, 34, 39, 49]
33.488[85, 48, 128, 247, 71, 32, 39, 52]
33.511[84, 42, 126, 232, 65, 33, 39, 59]
33.525[88, 50, 113, 219, 62, 33, 37, 58]
33.549[81, 51, 107, 182, 59, 33, 38, 58]
33.571[66, 50, 99, 180, 59, 30, 35, 55]
33.585[64, 47, 94, 160, 50, 26, 31, 57]
33.608[70, 48, 94, 168, 47, 27, 32, 55]
33.631[72, 49, 97, 162, 56, 30, 36, 59]
33.654[81, 53, 106, 169, 55, 31, 36, 57]
33.668[92, 58, 134, 233, 59, 34, 40, 61]
33.691[92, 59, 148, 248, 67, 39, 46, 64]
33.714[92, 57, 152, 234, 66, 36, 45, 63]
33.729[91, 55, 150, 249, 64, 37, 45, 61]
33.751[88, 55, 161, 290, 73, 43, 49, 66]
33.774[82, 50, 159, 246, 68, 41, 47, 61]
33.788[81, 53, 144, 226, 65, 39, 41, 56]
33.818[79, 50, 139, 228, 69, 41, 41, 52]
33.834[77, 45, 134, 223, 64, 39, 39, 50]
33.848[70, 39, 126, 191, 59, 32, 33, 44]
33.871[74, 40, 128, 215, 66, 35, 42, 51]
33.894[77, 40, 150, 225, 66, 35, 42, 48]
33.908[81, 45, 160, 273, 70, 35, 43, 51]
33.931[80, 48, 166, 273, 74, 37, 43, 52]
33.954[84, 51, 178, 292, 77, 40, 45, 55]
33.977[77, 53, 171, 280, 75, 36, 37, 52]
33.991[85, 53, 154, 285, 76, 33, 38, 58]
34.012[76, 51, 160, 288, 72, 34, 38, 60]
34.029[76, 53, 162, 292, 68, 33, 37, 63]
34.051[73, 52, 150, 280, 76, 32, 37, 63]
34.073[78, 48, 145, 300, 82, 34, 34, 61]
34.09[68, 48, 149, 292, 80, 35, 34, 61]
34.11[66, 44, 144, 246, 78, 34, 32, 58]
34.133[65, 41, 139, 226, 78, 33, 34, 52]
34.149[69, 46, 129, 213, 66, 31, 37, 55]
34.17[70, 46, 128, 168, 52, 32, 40, 56]
34.193[67, 49, 175, 226, 73, 33, 38, 51]
34.209[64, 48, 173, 229, 74, 36, 38, 51]
34.23[67, 48, 191, 317, 89, 37, 42, 71]
34.253[66, 40, 190, 307, 89, 39, 41, 71]
34.269[62, 42, 186, 312, 92, 37, 39, 70]
34.29[64, 39, 150, 322, 90, 35, 38, 70]
34.32[70, 43, 142, 329, 93, 32, 40, 70]
34.329[70, 41, 108, 253, 82, 32, 36, 53]
34.35[73, 46, 151, 333, 89, 29, 33, 48]
34.374[76, 45, 151, 337, 91, 30, 37, 49]
34.389[74, 43, 138, 289, 79, 36, 41, 51]
34.41[71, 43, 141, 285, 75, 37, 40, 52]
34.433[67, 44, 150, 299, 78, 37, 40, 50]
34.449[62, 45, 112, 246, 78, 37, 41, 51]
34.47[57, 46, 122, 256, 73, 38, 40, 57]
34.493[60, 47, 128, 261, 73, 34, 38, 54]
34.509[63, 44, 131, 260, 71, 33, 37, 52]
34.53[63, 45, 141, 261, 72, 34, 36, 54]
34.552[61, 44, 148, 265, 71, 40, 44, 65]
34.569[56, 41, 142, 256, 73, 39, 43, 61]
34.59[55, 40, 146, 267, 82, 44, 49, 66]
34.622[48, 41, 140, 270, 86, 44, 50, 67]
34.636[49, 36, 129, 271, 92, 44, 52, 68]
34.651[46, 32, 120, 235, 89, 39, 43, 57]
34.672[68, 33, 124, 270, 88, 40, 43, 57]
34.695[70, 35, 121, 252, 79, 33, 36, 56]
34.71[74, 40, 119, 240, 73, 31, 33, 55]
34.733[72, 39, 114, 222, 60, 31, 30, 50]
34.765[77, 45, 113, 236, 58, 28, 29, 51]
34.77[64, 43, 101, 173, 53, 25, 25, 48]
34.793[62, 43, 86, 176, 53, 26, 21, 41]
34.823[62, 39, 91, 206, 55, 27, 25, 45]
34.83[65, 41, 91, 199, 52, 28, 30, 46]
34.852[59, 37, 87, 202, 53, 27, 34, 46]
34.875[55, 36, 100, 206, 54, 27, 34, 44]
34.89[53, 38, 107, 205, 53, 27, 36, 43]
34.913[54, 37, 97, 179, 57, 28, 35, 38]
34.935[51, 37, 94, 182, 56, 25, 30, 37]
34.95[52, 36, 97, 169, 57, 28, 26, 34]
34.973[54, 44, 105, 199, 58, 30, 27, 37]
35.003[57, 45, 107, 197, 61, 30, 28, 42]
35.01[61, 50, 112, 233, 70, 31, 28, 46]
35.033[57, 49, 114, 231, 73, 31, 28, 44]
35.063[59, 49, 132, 225, 73, 31, 27, 45]
35.07[61, 44, 120, 213, 75, 32, 29, 47]
35.1[71, 48, 114, 216, 73, 28, 28, 42]
35.115[66, 47, 111, 175, 62, 28, 28, 40]
35.13[67, 48, 114, 180, 59, 28, 28, 39]
35.153[70, 52, 103, 196, 75, 30, 31, 41]
35.175[69, 52, 105, 189, 74, 28, 32, 35]
35.19[62, 49, 113, 183, 74, 30, 33, 38]
35.213[61, 44, 127, 194, 77, 31, 33, 36]
35.235[65, 47, 127, 185, 77, 32, 34, 38]
35.25[61, 44, 118, 150, 56, 29, 30, 36]
35.272[61, 44, 110, 136, 54, 28, 28, 40]
35.295[57, 40, 101, 135, 51, 26, 26, 40]
35.318[55, 46, 85, 122, 45, 24, 27, 41]
35.332[59, 43, 88, 128, 45, 23, 27, 42]
35.355[61, 40, 89, 134, 44, 23, 28, 41]
35.37[64, 40, 92, 130, 45, 27, 29, 37]
35.4[66, 46, 100, 154, 45, 30, 30, 35]
35.423[65, 40, 98, 147, 46, 30, 29, 34]
35.43[65, 40, 101, 180, 55, 32, 30, 35]
35.453[66, 43, 112, 196, 63, 33, 31, 35]
35.476[65, 44, 115, 205, 63, 32, 31, 36]
35.49[61, 49, 111, 197, 62, 29, 29, 37]
35.512[66, 48, 121, 217, 66, 31, 35, 41]
35.535[59, 51, 110, 184, 56, 29, 35, 39]
35.558[54, 51, 104, 170, 49, 27, 32, 39]
35.573[56, 54, 109, 178, 52, 28, 33, 40]
35.595[54, 50, 116, 177, 58, 30, 34, 40]
35.618[48, 55, 107, 185, 54, 29, 30, 35]
35.633[53, 53, 109, 190, 55, 30, 31, 37]
35.655[54, 51, 135, 195, 59, 32, 34, 37]
35.678[50, 50, 135, 193, 56, 30, 35, 34]
35.693[62, 44, 127, 183, 54, 29, 35, 35]
35.715[74, 48, 124, 151, 56, 29, 36, 37]
35.737[73, 46, 120, 164, 56, 28, 33, 36]
35.76[75, 49, 85, 165, 56, 32, 33, 36]
35.775[76, 49, 73, 164, 57, 33, 33, 38]
35.798[69, 50, 76, 163, 55, 36, 34, 36]
35.813[57, 43, 79, 171, 53, 36, 35, 35]
35.835[58, 46, 79, 155, 53, 36, 35, 35]
35.857[54, 41, 88, 214, 73, 34, 35, 33]
35.874[55, 45, 90, 221, 75, 35, 36, 35]
35.895[53, 47, 92, 227, 76, 33, 34, 37]
35.918[52, 45, 88, 220, 74, 32, 32, 34]
35.932[49, 46, 86, 221, 75, 33, 31, 33]
35.955[51, 46, 74, 154, 55, 30, 29, 35]
35.978[53, 40, 110, 146, 47, 28, 26, 35]
35.992[51, 38, 113, 138, 46, 28, 30, 38]
36.015[51, 39, 113, 134, 48, 27, 30, 39]
36.038[54, 38, 111, 136, 47, 25, 30, 39]
36.052[51, 38, 119, 129, 43, 27, 31, 38]
36.075[50, 38, 113, 117, 40, 26, 29, 34]
36.098[51, 38, 109, 139, 45, 24, 26, 34]
36.113