[30, 74, 320, 196, 75, 30, 23, 25]
0.75[30, 74, 320, 196, 75, 30, 23, 25]
0.75[30, 74, 320, 196, 75, 30, 23, 25]
0.75[30, 74, 320, 196, 75, 30, 23, 25]
0.75[30, 74, 320, 196, 75, 30, 23, 25]
0.75[30, 74, 320, 196, 75, 30, 23, 25]
0.75[30, 74, 320, 196, 75, 30, 23, 25]
0.75[30, 74, 320, 196, 75, 30, 23, 25]
0.75[29, 73, 333, 193, 73, 32, 21, 25]
0.77[29, 73, 333, 193, 73, 32, 21, 25]
0.77[29, 73, 333, 193, 73, 32, 21, 25]
0.77[29, 73, 333, 193, 73, 32, 21, 25]
0.77[29, 73, 333, 193, 73, 32, 21, 25]
0.77[29, 73, 333, 193, 73, 32, 21, 25]
0.77[29, 73, 333, 193, 73, 32, 21, 25]
0.77[29, 73, 333, 193, 73, 32, 21, 25]
0.77[28, 66, 321, 220, 78, 34, 23, 25]
0.8[28, 66, 321, 220, 78, 34, 23, 25]
0.8[28, 66, 321, 220, 78, 34, 23, 25]
0.8[28, 66, 321, 220, 78, 34, 23, 25]
0.8[28, 66, 321, 220, 78, 34, 23, 25]
0.8[28, 66, 321, 220, 78, 34, 23, 25]
0.8[28, 66, 321, 220, 78, 34, 23, 25]
0.8[28, 66, 321, 220, 78, 34, 23, 25]
0.8[33, 71, 339, 291, 84, 36, 25, 30]
0.82[33, 71, 339, 291, 84, 36, 25, 30]
0.82[33, 71, 339, 291, 84, 36, 25, 30]
0.82[33, 71, 339, 291, 84, 36, 25, 30]
0.82[33, 71, 339, 291, 84, 36, 25, 30]
0.82[33, 71, 339, 291, 84, 36, 25, 30]
0.82[33, 71, 339, 291, 84, 36, 25, 30]
0.82[33, 71, 339, 291, 84, 36, 25, 30]
0.82[36, 67, 290, 276, 77, 36, 25, 30]
0.83[36, 67, 290, 276, 77, 36, 25, 30]
0.83[36, 67, 290, 276, 77, 36, 25, 30]
0.83[36, 67, 290, 276, 77, 36, 25, 30]
0.83[36, 67, 290, 276, 77, 36, 25, 30]
0.83[36, 67, 290, 276, 77, 36, 25, 30]
0.83[36, 67, 290, 276, 77, 36, 25, 30]
0.83[36, 67, 290, 276, 77, 36, 25, 30]
0.83[39, 60, 212, 275, 77, 36, 26, 29]
0.85[39, 60, 212, 275, 77, 36, 26, 29]
0.85[39, 60, 212, 275, 77, 36, 26, 29]
0.85[39, 60, 212, 275, 77, 36, 26, 29]
0.85[39, 60, 212, 275, 77, 36, 26, 29]
0.85[39, 60, 212, 275, 77, 36, 26, 29]
0.85[39, 60, 212, 275, 77, 36, 26, 29]
0.85[39, 60, 212, 275, 77, 36, 26, 29]
0.85[38, 61, 190, 282, 81, 37, 26, 28]
0.87[38, 61, 190, 282, 81, 37, 26, 28]
0.87[38, 61, 190, 282, 81, 37, 26, 28]
0.87[38, 61, 190, 282, 81, 37, 26, 28]
0.87[38, 61, 190, 282, 81, 37, 26, 28]
0.87[38, 61, 190, 282, 81, 37, 26, 28]
0.87[38, 61, 190, 282, 81, 37, 26, 28]
0.87[38, 61, 190, 282, 81, 37, 26, 28]
0.87[37, 66, 204, 311, 83, 37, 27, 30]
0.89[37, 66, 204, 311, 83, 37, 27, 30]
0.89[37, 66, 204, 311, 83, 37, 27, 30]
0.89[37, 66, 204, 311, 83, 37, 27, 30]
0.89[37, 66, 204, 311, 83, 37, 27, 30]
0.89[37, 66, 204, 311, 83, 37, 27, 30]
0.89[37, 66, 204, 311, 83, 37, 27, 30]
0.89[37, 66, 204, 311, 83, 37, 27, 30]
0.89[34, 66, 266, 253, 73, 33, 24, 25]
0.91[34, 66, 266, 253, 73, 33, 24, 25]
0.91[34, 66, 266, 253, 73, 33, 24, 25]
0.91[34, 66, 266, 253, 73, 33, 24, 25]
0.91[34, 66, 266, 253, 73, 33, 24, 25]
0.91[34, 66, 266, 253, 73, 33, 24, 25]
0.91[34, 66, 266, 253, 73, 33, 24, 25]
0.91[34, 66, 266, 253, 73, 33, 24, 25]
0.91[31, 62, 292, 262, 71, 33, 23, 24]
0.93[31, 62, 292, 262, 71, 33, 23, 24]
0.93[31, 62, 292, 262, 71, 33, 23, 24]
0.93[31, 62, 292, 262, 71, 33, 23, 24]
0.93[31, 62, 292, 262, 71, 33, 23, 24]
0.93[31, 62, 292, 262, 71, 33, 23, 24]
0.93[31, 62, 292, 262, 71, 33, 23, 24]
0.93[31, 62, 292, 262, 71, 33, 23, 24]
0.93[27, 63, 295, 260, 68, 33, 25, 24]
0.95[27, 63, 295, 260, 68, 33, 25, 24]
0.95[27, 63, 295, 260, 68, 33, 25, 24]
0.95[27, 63, 295, 260, 68, 33, 25, 24]
0.95[27, 63, 295, 260, 68, 33, 25, 24]
0.95[27, 63, 295, 260, 68, 33, 25, 24]
0.95[27, 63, 295, 260, 68, 33, 25, 24]
0.95[27, 63, 295, 260, 68, 33, 25, 24]
0.95[27, 63, 303, 267, 71, 31, 24, 23]
0.97[27, 63, 303, 267, 71, 31, 24, 23]
0.97[27, 63, 303, 267, 71, 31, 24, 23]
0.97[27, 63, 303, 267, 71, 31, 24, 23]
0.97[27, 63, 303, 267, 71, 31, 24, 23]
0.97[27, 63, 303, 267, 71, 31, 24, 23]
0.97[27, 63, 303, 267, 71, 31, 24, 23]
0.97[27, 63, 303, 267, 71, 31, 24, 23]
0.97[28, 61, 291, 203, 60, 31, 22, 21]
0.99[28, 61, 291, 203, 60, 31, 22, 21]
0.99[28, 61, 291, 203, 60, 31, 22, 21]
0.99[28, 61, 291, 203, 60, 31, 22, 21]
0.99[28, 61, 291, 203, 60, 31, 22, 21]
0.99[28, 61, 291, 203, 60, 31, 22, 21]
0.99[28, 61, 291, 203, 60, 31, 22, 21]
0.99[28, 61, 291, 203, 60, 31, 22, 21]
0.99[27, 61, 214, 185, 57, 35, 24, 24]
1.01[27, 61, 214, 185, 57, 35, 24, 24]
1.01[27, 61, 214, 185, 57, 35, 24, 24]
1.01[27, 61, 214, 185, 57, 35, 24, 24]
1.01[27, 61, 214, 185, 57, 35, 24, 24]
1.01[27, 61, 214, 185, 57, 35, 24, 24]
1.01[27, 61, 214, 185, 57, 35, 24, 24]
1.01[27, 61, 214, 185, 57, 35, 24, 24]
1.01[26, 58, 172, 173, 60, 36, 26, 26]
1.04[26, 58, 172, 173, 60, 36, 26, 26]
1.04[26, 58, 172, 173, 60, 36, 26, 26]
1.04[26, 58, 172, 173, 60, 36, 26, 26]
1.04[26, 58, 172, 173, 60, 36, 26, 26]
1.04[26, 58, 172, 173, 60, 36, 26, 26]
1.04[26, 58, 172, 173, 60, 36, 26, 26]
1.04[26, 58, 172, 173, 60, 36, 26, 26]
1.04[26, 57, 194, 190, 71, 36, 26, 27]
1.05[26, 57, 194, 190, 71, 36, 26, 27]
1.05[26, 57, 194, 190, 71, 36, 26, 27]
1.05[26, 57, 194, 190, 71, 36, 26, 27]
1.05[26, 57, 194, 190, 71, 36, 26, 27]
1.05[26, 57, 194, 190, 71, 36, 26, 27]
1.05[26, 57, 194, 190, 71, 36, 26, 27]
1.05[26, 57, 194, 190, 71, 36, 26, 27]
1.05[26, 57, 211, 197, 71, 41, 28, 28]
1.07[26, 57, 211, 197, 71, 41, 28, 28]
1.07[26, 57, 211, 197, 71, 41, 28, 28]
1.07[26, 57, 211, 197, 71, 41, 28, 28]
1.07[26, 57, 211, 197, 71, 41, 28, 28]
1.07[26, 57, 211, 197, 71, 41, 28, 28]
1.07[26, 57, 211, 197, 71, 41, 28, 28]
1.07[26, 57, 211, 197, 71, 41, 28, 28]
1.07[24, 83, 295, 239, 76, 41, 30, 29]
1.09[24, 83, 295, 239, 76, 41, 30, 29]
1.09[24, 83, 295, 239, 76, 41, 30, 29]
1.09[24, 83, 295, 239, 76, 41, 30, 29]
1.09[24, 83, 295, 239, 76, 41, 30, 29]
1.09[24, 83, 295, 239, 76, 41, 30, 29]
1.09[24, 83, 295, 239, 76, 41, 30, 29]
1.09[24, 83, 295, 239, 76, 41, 30, 29]
1.09[24, 84, 303, 254, 80, 40, 28, 27]
1.11[24, 84, 303, 254, 80, 40, 28, 27]
1.11[24, 84, 303, 254, 80, 40, 28, 27]
1.11[24, 84, 303, 254, 80, 40, 28, 27]
1.11[24, 84, 303, 254, 80, 40, 28, 27]
1.11[24, 84, 303, 254, 80, 40, 28, 27]
1.11[24, 84, 303, 254, 80, 40, 28, 27]
1.11[24, 84, 303, 254, 80, 40, 28, 27]
1.11[22, 85, 318, 251, 77, 41, 27, 26]
1.13[22, 85, 318, 251, 77, 41, 27, 26]
1.13[22, 85, 318, 251, 77, 41, 27, 26]
1.13[22, 85, 318, 251, 77, 41, 27, 26]
1.13[22, 85, 318, 251, 77, 41, 27, 26]
1.13[22, 85, 318, 251, 77, 41, 27, 26]
1.13[22, 85, 318, 251, 77, 41, 27, 26]
1.13[22, 85, 318, 251, 77, 41, 27, 26]
1.13[25, 88, 325, 284, 82, 44, 23, 27]
1.15[25, 88, 325, 284, 82, 44, 23, 27]
1.15[25, 88, 325, 284, 82, 44, 23, 27]
1.15[25, 88, 325, 284, 82, 44, 23, 27]
1.15[25, 88, 325, 284, 82, 44, 23, 27]
1.15[25, 88, 325, 284, 82, 44, 23, 27]
1.15[25, 88, 325, 284, 82, 44, 23, 27]
1.15[25, 88, 325, 284, 82, 44, 23, 27]
1.15[23, 90, 320, 324, 94, 43, 24, 23]
1.17[23, 90, 320, 324, 94, 43, 24, 23]
1.17[23, 90, 320, 324, 94, 43, 24, 23]
1.17[23, 90, 320, 324, 94, 43, 24, 23]
1.17[23, 90, 320, 324, 94, 43, 24, 23]
1.17[23, 90, 320, 324, 94, 43, 24, 23]
1.17[23, 90, 320, 324, 94, 43, 24, 23]
1.17[23, 90, 320, 324, 94, 43, 24, 23]
1.17[25, 91, 294, 296, 89, 45, 24, 24]
1.19[25, 91, 294, 296, 89, 45, 24, 24]
1.19[25, 91, 294, 296, 89, 45, 24, 24]
1.19[25, 91, 294, 296, 89, 45, 24, 24]
1.19[25, 91, 294, 296, 89, 45, 24, 24]
1.19[25, 91, 294, 296, 89, 45, 24, 24]
1.19[25, 91, 294, 296, 89, 45, 24, 24]
1.19[25, 91, 294, 296, 89, 45, 24, 24]
1.19[25, 91, 283, 289, 87, 42, 24, 25]
1.21[25, 91, 283, 289, 87, 42, 24, 25]
1.21[25, 91, 283, 289, 87, 42, 24, 25]
1.21[25, 91, 283, 289, 87, 42, 24, 25]
1.21[25, 91, 283, 289, 87, 42, 24, 25]
1.21[25, 91, 283, 289, 87, 42, 24, 25]
1.21[25, 91, 283, 289, 87, 42, 24, 25]
1.21[25, 91, 283, 289, 87, 42, 24, 25]
1.21[26, 94, 277, 283, 88, 40, 25, 25]
1.24[26, 94, 277, 283, 88, 40, 25, 25]
1.24[26, 94, 277, 283, 88, 40, 25, 25]
1.24[26, 94, 277, 283, 88, 40, 25, 25]
1.24[26, 94, 277, 283, 88, 40, 25, 25]
1.24[26, 94, 277, 283, 88, 40, 25, 25]
1.24[26, 94, 277, 283, 88, 40, 25, 25]
1.24[26, 94, 277, 283, 88, 40, 25, 25]
1.24[23, 92, 262, 230, 72, 35, 24, 23]
1.25[23, 92, 262, 230, 72, 35, 24, 23]
1.25[23, 92, 262, 230, 72, 35, 24, 23]
1.25[23, 92, 262, 230, 72, 35, 24, 23]
1.25[23, 92, 262, 230, 72, 35, 24, 23]
1.25[23, 92, 262, 230, 72, 35, 24, 23]
1.25[23, 92, 262, 230, 72, 35, 24, 23]
1.25[23, 92, 262, 230, 72, 35, 24, 23]
1.25[24, 93, 258, 151, 48, 30, 22, 25]
1.27[24, 93, 258, 151, 48, 30, 22, 25]
1.27[24, 93, 258, 151, 48, 30, 22, 25]
1.27[24, 93, 258, 151, 48, 30, 22, 25]
1.27[24, 93, 258, 151, 48, 30, 22, 25]
1.27[24, 93, 258, 151, 48, 30, 22, 25]
1.27[24, 93, 258, 151, 48, 30, 22, 25]
1.27[24, 93, 258, 151, 48, 30, 22, 25]
1.27[24, 78, 218, 138, 46, 25, 21, 26]
1.29[24, 78, 218, 138, 46, 25, 21, 26]
1.29[24, 78, 218, 138, 46, 25, 21, 26]
1.29[24, 78, 218, 138, 46, 25, 21, 26]
1.29[24, 78, 218, 138, 46, 25, 21, 26]
1.29[24, 78, 218, 138, 46, 25, 21, 26]
1.29[24, 78, 218, 138, 46, 25, 21, 26]
1.29[24, 78, 218, 138, 46, 25, 21, 26]
1.29[25, 86, 231, 141, 42, 28, 22, 25]
1.32[25, 86, 231, 141, 42, 28, 22, 25]
1.32[25, 86, 231, 141, 42, 28, 22, 25]
1.32[25, 86, 231, 141, 42, 28, 22, 25]
1.32[25, 86, 231, 141, 42, 28, 22, 25]
1.32[25, 86, 231, 141, 42, 28, 22, 25]
1.32[25, 86, 231, 141, 42, 28, 22, 25]
1.32[25, 86, 231, 141, 42, 28, 22, 25]
1.32[24, 92, 266, 148, 38, 26, 22, 27]
1.33[24, 92, 266, 148, 38, 26, 22, 27]
1.33[24, 92, 266, 148, 38, 26, 22, 27]
1.33[24, 92, 266, 148, 38, 26, 22, 27]
1.33[24, 92, 266, 148, 38, 26, 22, 27]
1.33[24, 92, 266, 148, 38, 26, 22, 27]
1.33[24, 92, 266, 148, 38, 26, 22, 27]
1.33[24, 92, 266, 148, 38, 26, 22, 27]
1.33[24, 93, 261, 142, 39, 28, 24, 26]
1.36[24, 93, 261, 142, 39, 28, 24, 26]
1.36[24, 93, 261, 142, 39, 28, 24, 26]
1.36[24, 93, 261, 142, 39, 28, 24, 26]
1.36[24, 93, 261, 142, 39, 28, 24, 26]
1.36[24, 93, 261, 142, 39, 28, 24, 26]
1.36[24, 93, 261, 142, 39, 28, 24, 26]
1.36[24, 93, 261, 142, 39, 28, 24, 26]
1.36[24, 88, 261, 127, 40, 28, 24, 26]
1.37[24, 88, 261, 127, 40, 28, 24, 26]
1.37[24, 88, 261, 127, 40, 28, 24, 26]
1.37[24, 88, 261, 127, 40, 28, 24, 26]
1.37[24, 88, 261, 127, 40, 28, 24, 26]
1.37[24, 88, 261, 127, 40, 28, 24, 26]
1.37[24, 88, 261, 127, 40, 28, 24, 26]
1.37[24, 88, 261, 127, 40, 28, 24, 26]
1.37[23, 80, 264, 155, 45, 29, 26, 24]
1.4[23, 80, 264, 155, 45, 29, 26, 24]
1.4[23, 80, 264, 155, 45, 29, 26, 24]
1.4[23, 80, 264, 155, 45, 29, 26, 24]
1.4[23, 80, 264, 155, 45, 29, 26, 24]
1.4[23, 80, 264, 155, 45, 29, 26, 24]
1.4[23, 80, 264, 155, 45, 29, 26, 24]
1.4[23, 80, 264, 155, 45, 29, 26, 24]
1.4[22, 64, 253, 143, 46, 26, 25, 22]
1.41[22, 64, 253, 143, 46, 26, 25, 22]
1.41[22, 64, 253, 143, 46, 26, 25, 22]
1.41[22, 64, 253, 143, 46, 26, 25, 22]
1.41[22, 64, 253, 143, 46, 26, 25, 22]
1.41[22, 64, 253, 143, 46, 26, 25, 22]
1.41[22, 64, 253, 143, 46, 26, 25, 22]
1.41[22, 64, 253, 143, 46, 26, 25, 22]
1.41[23, 54, 249, 132, 47, 28, 26, 20]
1.44[23, 54, 249, 132, 47, 28, 26, 20]
1.44[23, 54, 249, 132, 47, 28, 26, 20]
1.44[23, 54, 249, 132, 47, 28, 26, 20]
1.44[23, 54, 249, 132, 47, 28, 26, 20]
1.44[23, 54, 249, 132, 47, 28, 26, 20]
1.44[23, 54, 249, 132, 47, 28, 26, 20]
1.44[23, 54, 249, 132, 47, 28, 26, 20]
1.44[23, 57, 264, 138, 49, 29, 25, 23]
1.45[23, 57, 264, 138, 49, 29, 25, 23]
1.45[23, 57, 264, 138, 49, 29, 25, 23]
1.45[23, 57, 264, 138, 49, 29, 25, 23]
1.45[23, 57, 264, 138, 49, 29, 25, 23]
1.45[23, 57, 264, 138, 49, 29, 25, 23]
1.45[23, 57, 264, 138, 49, 29, 25, 23]
1.45[23, 57, 264, 138, 49, 29, 25, 23]
1.45[23, 61, 262, 141, 46, 31, 23, 23]
1.47[23, 61, 262, 141, 46, 31, 23, 23]
1.47[23, 61, 262, 141, 46, 31, 23, 23]
1.47[23, 61, 262, 141, 46, 31, 23, 23]
1.47[23, 61, 262, 141, 46, 31, 23, 23]
1.47[23, 61, 262, 141, 46, 31, 23, 23]
1.47[23, 61, 262, 141, 46, 31, 23, 23]
1.47[23, 61, 262, 141, 46, 31, 23, 23]
1.47[23, 59, 237, 105, 41, 31, 24, 24]
1.49[23, 59, 237, 105, 41, 31, 24, 24]
1.49[23, 59, 237, 105, 41, 31, 24, 24]
1.49[23, 59, 237, 105, 41, 31, 24, 24]
1.49[23, 59, 237, 105, 41, 31, 24, 24]
1.49[23, 59, 237, 105, 41, 31, 24, 24]
1.49[23, 59, 237, 105, 41, 31, 24, 24]
1.49[23, 59, 237, 105, 41, 31, 24, 24]
1.49[22, 67, 252, 174, 41, 31, 24, 27]
1.51[22, 67, 252, 174, 41, 31, 24, 27]
1.51[22, 67, 252, 174, 41, 31, 24, 27]
1.51[22, 67, 252, 174, 41, 31, 24, 27]
1.51[22, 67, 252, 174, 41, 31, 24, 27]
1.51[22, 67, 252, 174, 41, 31, 24, 27]
1.51[22, 67, 252, 174, 41, 31, 24, 27]
1.51[22, 67, 252, 174, 41, 31, 24, 27]
1.51[21, 70, 223, 197, 47, 32, 23, 27]
1.53[21, 70, 223, 197, 47, 32, 23, 27]
1.53[21, 70, 223, 197, 47, 32, 23, 27]
1.53[21, 70, 223, 197, 47, 32, 23, 27]
1.53[21, 70, 223, 197, 47, 32, 23, 27]
1.53[21, 70, 223, 197, 47, 32, 23, 27]
1.53[21, 70, 223, 197, 47, 32, 23, 27]
1.53[21, 70, 223, 197, 47, 32, 23, 27]
1.53[20, 67, 213, 215, 50, 29, 22, 25]
1.55[20, 67, 213, 215, 50, 29, 22, 25]
1.55[20, 67, 213, 215, 50, 29, 22, 25]
1.55[20, 67, 213, 215, 50, 29, 22, 25]
1.55[20, 67, 213, 215, 50, 29, 22, 25]
1.55[20, 67, 213, 215, 50, 29, 22, 25]
1.55[20, 67, 213, 215, 50, 29, 22, 25]
1.55[20, 67, 213, 215, 50, 29, 22, 25]
1.55[20, 63, 190, 220, 50, 28, 24, 27]
1.57[20, 63, 190, 220, 50, 28, 24, 27]
1.57[20, 63, 190, 220, 50, 28, 24, 27]
1.57[20, 63, 190, 220, 50, 28, 24, 27]
1.57[20, 63, 190, 220, 50, 28, 24, 27]
1.57[20, 63, 190, 220, 50, 28, 24, 27]
1.57[20, 63, 190, 220, 50, 28, 24, 27]
1.57[20, 63, 190, 220, 50, 28, 24, 27]
1.57[19, 65, 202, 222, 51, 30, 22, 26]
1.6[19, 65, 202, 222, 51, 30, 22, 26]
1.6[19, 65, 202, 222, 51, 30, 22, 26]
1.6[19, 65, 202, 222, 51, 30, 22, 26]
1.6[19, 65, 202, 222, 51, 30, 22, 26]
1.6[19, 65, 202, 222, 51, 30, 22, 26]
1.6[19, 65, 202, 222, 51, 30, 22, 26]
1.6[19, 65, 202, 222, 51, 30, 22, 26]
1.6[21, 67, 205, 188, 55, 30, 23, 23]
1.61[21, 67, 205, 188, 55, 30, 23, 23]
1.61[21, 67, 205, 188, 55, 30, 23, 23]
1.61[21, 67, 205, 188, 55, 30, 23, 23]
1.61[21, 67, 205, 188, 55, 30, 23, 23]
1.61[21, 67, 205, 188, 55, 30, 23, 23]
1.61[21, 67, 205, 188, 55, 30, 23, 23]
1.61[21, 67, 205, 188, 55, 30, 23, 23]
1.61[20, 58, 182, 168, 50, 29, 24, 22]
1.63[20, 58, 182, 168, 50, 29, 24, 22]
1.63[20, 58, 182, 168, 50, 29, 24, 22]
1.63[20, 58, 182, 168, 50, 29, 24, 22]
1.63[20, 58, 182, 168, 50, 29, 24, 22]
1.63[20, 58, 182, 168, 50, 29, 24, 22]
1.63[20, 58, 182, 168, 50, 29, 24, 22]
1.63[20, 58, 182, 168, 50, 29, 24, 22]
1.63[21, 56, 187, 142, 46, 28, 23, 23]
1.66[21, 56, 187, 142, 46, 28, 23, 23]
1.66[21, 56, 187, 142, 46, 28, 23, 23]
1.66[21, 56, 187, 142, 46, 28, 23, 23]
1.66[21, 56, 187, 142, 46, 28, 23, 23]
1.66[21, 56, 187, 142, 46, 28, 23, 23]
1.66[21, 56, 187, 142, 46, 28, 23, 23]
1.66[21, 56, 187, 142, 46, 28, 23, 23]
1.66[19, 57, 195, 127, 48, 26, 22, 20]
1.68[19, 57, 195, 127, 48, 26, 22, 20]
1.68[19, 57, 195, 127, 48, 26, 22, 20]
1.68[19, 57, 195, 127, 48, 26, 22, 20]
1.68[19, 57, 195, 127, 48, 26, 22, 20]
1.68[19, 57, 195, 127, 48, 26, 22, 20]
1.68[19, 57, 195, 127, 48, 26, 22, 20]
1.68[19, 57, 195, 127, 48, 26, 22, 20]
1.68[22, 59, 241, 128, 50, 29, 23, 21]
1.69[22, 59, 241, 128, 50, 29, 23, 21]
1.69[22, 59, 241, 128, 50, 29, 23, 21]
1.69[22, 59, 241, 128, 50, 29, 23, 21]
1.69[22, 59, 241, 128, 50, 29, 23, 21]
1.69[22, 59, 241, 128, 50, 29, 23, 21]
1.69[22, 59, 241, 128, 50, 29, 23, 21]
1.69[22, 59, 241, 128, 50, 29, 23, 21]
1.69[20, 60, 251, 89, 41, 27, 21, 20]
1.72[20, 60, 251, 89, 41, 27, 21, 20]
1.72[20, 60, 251, 89, 41, 27, 21, 20]
1.72[20, 60, 251, 89, 41, 27, 21, 20]
1.72[20, 60, 251, 89, 41, 27, 21, 20]
1.72[20, 60, 251, 89, 41, 27, 21, 20]
1.72[20, 60, 251, 89, 41, 27, 21, 20]
1.72[20, 60, 251, 89, 41, 27, 21, 20]
1.72[22, 67, 262, 78, 41, 27, 22, 21]
1.74[22, 67, 262, 78, 41, 27, 22, 21]
1.74[22, 67, 262, 78, 41, 27, 22, 21]
1.74[22, 67, 262, 78, 41, 27, 22, 21]
1.74[22, 67, 262, 78, 41, 27, 22, 21]
1.74[22, 67, 262, 78, 41, 27, 22, 21]
1.74[22, 67, 262, 78, 41, 27, 22, 21]
1.74[22, 67, 262, 78, 41, 27, 22, 21]
1.74[23, 70, 247, 96, 45, 28, 23, 20]
1.76[23, 70, 247, 96, 45, 28, 23, 20]
1.76[23, 70, 247, 96, 45, 28, 23, 20]
1.76[23, 70, 247, 96, 45, 28, 23, 20]
1.76[23, 70, 247, 96, 45, 28, 23, 20]
1.76[23, 70, 247, 96, 45, 28, 23, 20]
1.76[23, 70, 247, 96, 45, 28, 23, 20]
1.76[23, 70, 247, 96, 45, 28, 23, 20]
1.76[23, 73, 260, 143, 44, 29, 22, 20]
1.78[23, 73, 260, 143, 44, 29, 22, 20]
1.78[23, 73, 260, 143, 44, 29, 22, 20]
1.78[23, 73, 260, 143, 44, 29, 22, 20]
1.78[23, 73, 260, 143, 44, 29, 22, 20]
1.78[23, 73, 260, 143, 44, 29, 22, 20]
1.78[23, 73, 260, 143, 44, 29, 22, 20]
1.78[23, 73, 260, 143, 44, 29, 22, 20]
1.78[22, 90, 260, 156, 44, 24, 22, 18]
1.8[22, 90, 260, 156, 44, 24, 22, 18]
1.8[22, 90, 260, 156, 44, 24, 22, 18]
1.8[22, 90, 260, 156, 44, 24, 22, 18]
1.8[22, 90, 260, 156, 44, 24, 22, 18]
1.8[22, 90, 260, 156, 44, 24, 22, 18]
1.8[22, 90, 260, 156, 44, 24, 22, 18]
1.8[22, 90, 260, 156, 44, 24, 22, 18]
1.8[28, 114, 308, 164, 45, 26, 23, 21]
1.81[28, 114, 308, 164, 45, 26, 23, 21]
1.81[28, 114, 308, 164, 45, 26, 23, 21]
1.81[28, 114, 308, 164, 45, 26, 23, 21]
1.81[28, 114, 308, 164, 45, 26, 23, 21]
1.81[28, 114, 308, 164, 45, 26, 23, 21]
1.81[28, 114, 308, 164, 45, 26, 23, 21]
1.81[28, 114, 308, 164, 45, 26, 23, 21]
1.81[27, 110, 302, 168, 44, 26, 21, 20]
1.84[27, 110, 302, 168, 44, 26, 21, 20]
1.84[27, 110, 302, 168, 44, 26, 21, 20]
1.84[27, 110, 302, 168, 44, 26, 21, 20]
1.84[27, 110, 302, 168, 44, 26, 21, 20]
1.84[27, 110, 302, 168, 44, 26, 21, 20]
1.84[27, 110, 302, 168, 44, 26, 21, 20]
1.84[27, 110, 302, 168, 44, 26, 21, 20]
1.84[27, 109, 310, 176, 45, 23, 22, 22]
1.86[27, 109, 310, 176, 45, 23, 22, 22]
1.86[27, 109, 310, 176, 45, 23, 22, 22]
1.86[27, 109, 310, 176, 45, 23, 22, 22]
1.86[27, 109, 310, 176, 45, 23, 22, 22]
1.86[27, 109, 310, 176, 45, 23, 22, 22]
1.86[27, 109, 310, 176, 45, 23, 22, 22]
1.86[27, 109, 310, 176, 45, 23, 22, 22]
1.86[27, 108, 305, 138, 41, 22, 22, 23]
1.87[27, 108, 305, 138, 41, 22, 22, 23]
1.87[27, 108, 305, 138, 41, 22, 22, 23]
1.87[27, 108, 305, 138, 41, 22, 22, 23]
1.87[27, 108, 305, 138, 41, 22, 22, 23]
1.87[27, 108, 305, 138, 41, 22, 22, 23]
1.87[27, 108, 305, 138, 41, 22, 22, 23]
1.87[27, 108, 305, 138, 41, 22, 22, 23]
1.87[26, 103, 277, 141, 46, 28, 23, 24]
1.9[26, 103, 277, 141, 46, 28, 23, 24]
1.9[26, 103, 277, 141, 46, 28, 23, 24]
1.9[26, 103, 277, 141, 46, 28, 23, 24]
1.9[26, 103, 277, 141, 46, 28, 23, 24]
1.9[26, 103, 277, 141, 46, 28, 23, 24]
1.9[26, 103, 277, 141, 46, 28, 23, 24]
1.9[26, 103, 277, 141, 46, 28, 23, 24]
1.9[21, 73, 220, 144, 49, 27, 22, 22]
1.92[21, 73, 220, 144, 49, 27, 22, 22]
1.92[21, 73, 220, 144, 49, 27, 22, 22]
1.92[21, 73, 220, 144, 49, 27, 22, 22]
1.92[21, 73, 220, 144, 49, 27, 22, 22]
1.92[21, 73, 220, 144, 49, 27, 22, 22]
1.92[21, 73, 220, 144, 49, 27, 22, 22]
1.92[21, 73, 220, 144, 49, 27, 22, 22]
1.92[25, 84, 246, 148, 52, 27, 25, 25]
1.93[25, 84, 246, 148, 52, 27, 25, 25]
1.93[25, 84, 246, 148, 52, 27, 25, 25]
1.93[25, 84, 246, 148, 52, 27, 25, 25]
1.93[25, 84, 246, 148, 52, 27, 25, 25]
1.93[25, 84, 246, 148, 52, 27, 25, 25]
1.93[25, 84, 246, 148, 52, 27, 25, 25]
1.93[25, 84, 246, 148, 52, 27, 25, 25]
1.93[24, 85, 253, 141, 50, 31, 23, 23]
1.96[24, 85, 253, 141, 50, 31, 23, 23]
1.96[24, 85, 253, 141, 50, 31, 23, 23]
1.96[24, 85, 253, 141, 50, 31, 23, 23]
1.96[24, 85, 253, 141, 50, 31, 23, 23]
1.96[24, 85, 253, 141, 50, 31, 23, 23]
1.96[24, 85, 253, 141, 50, 31, 23, 23]
1.96[24, 85, 253, 141, 50, 31, 23, 23]
1.96[25, 89, 286, 152, 53, 33, 26, 25]
1.99[25, 89, 286, 152, 53, 33, 26, 25]
1.99[25, 89, 286, 152, 53, 33, 26, 25]
1.99[25, 89, 286, 152, 53, 33, 26, 25]
1.99[25, 89, 286, 152, 53, 33, 26, 25]
1.99[25, 89, 286, 152, 53, 33, 26, 25]
1.99[25, 89, 286, 152, 53, 33, 26, 25]
1.99[25, 89, 286, 152, 53, 33, 26, 25]
1.99[26, 80, 283, 136, 46, 28, 24, 23]
2.0[26, 80, 283, 136, 46, 28, 24, 23]
2.0[26, 80, 283, 136, 46, 28, 24, 23]
2.0[26, 80, 283, 136, 46, 28, 24, 23]
2.0[26, 80, 283, 136, 46, 28, 24, 23]
2.0[26, 80, 283, 136, 46, 28, 24, 23]
2.0[26, 80, 283, 136, 46, 28, 24, 23]
2.0[26, 80, 283, 136, 46, 28, 24, 23]
2.0[25, 80, 261, 130, 49, 31, 25, 23]
2.02[25, 80, 261, 130, 49, 31, 25, 23]
2.02[25, 80, 261, 130, 49, 31, 25, 23]
2.02[25, 80, 261, 130, 49, 31, 25, 23]
2.02[25, 80, 261, 130, 49, 31, 25, 23]
2.02[25, 80, 261, 130, 49, 31, 25, 23]
2.02[25, 80, 261, 130, 49, 31, 25, 23]
2.02[25, 80, 261, 130, 49, 31, 25, 23]
2.02[22, 68, 244, 137, 51, 30, 22, 21]
2.04[22, 68, 244, 137, 51, 30, 22, 21]
2.04[22, 68, 244, 137, 51, 30, 22, 21]
2.04[22, 68, 244, 137, 51, 30, 22, 21]
2.04[22, 68, 244, 137, 51, 30, 22, 21]
2.04[22, 68, 244, 137, 51, 30, 22, 21]
2.04[22, 68, 244, 137, 51, 30, 22, 21]
2.04[22, 68, 244, 137, 51, 30, 22, 21]
2.04[23, 67, 225, 129, 51, 28, 25, 22]
2.05[23, 67, 225, 129, 51, 28, 25, 22]
2.05[23, 67, 225, 129, 51, 28, 25, 22]
2.05[23, 67, 225, 129, 51, 28, 25, 22]
2.05[23, 67, 225, 129, 51, 28, 25, 22]
2.05[23, 67, 225, 129, 51, 28, 25, 22]
2.05[23, 67, 225, 129, 51, 28, 25, 22]
2.05[23, 67, 225, 129, 51, 28, 25, 22]
2.05[24, 60, 189, 188, 67, 29, 25, 21]
2.08[24, 60, 189, 188, 67, 29, 25, 21]
2.08[24, 60, 189, 188, 67, 29, 25, 21]
2.08[24, 60, 189, 188, 67, 29, 25, 21]
2.08[24, 60, 189, 188, 67, 29, 25, 21]
2.08[24, 60, 189, 188, 67, 29, 25, 21]
2.08[24, 60, 189, 188, 67, 29, 25, 21]
2.08[24, 60, 189, 188, 67, 29, 25, 21]
2.08[24, 69, 209, 192, 71, 32, 25, 22]
2.1[24, 69, 209, 192, 71, 32, 25, 22]
2.1[24, 69, 209, 192, 71, 32, 25, 22]
2.1[24, 69, 209, 192, 71, 32, 25, 22]
2.1[24, 69, 209, 192, 71, 32, 25, 22]
2.1[24, 69, 209, 192, 71, 32, 25, 22]
2.1[24, 69, 209, 192, 71, 32, 25, 22]
2.1[24, 69, 209, 192, 71, 32, 25, 22]
2.1[23, 96, 260, 208, 72, 30, 26, 22]
2.11[23, 96, 260, 208, 72, 30, 26, 22]
2.11[23, 96, 260, 208, 72, 30, 26, 22]
2.11[23, 96, 260, 208, 72, 30, 26, 22]
2.11[23, 96, 260, 208, 72, 30, 26, 22]
2.11[23, 96, 260, 208, 72, 30, 26, 22]
2.11[23, 96, 260, 208, 72, 30, 26, 22]
2.11[23, 96, 260, 208, 72, 30, 26, 22]
2.11[23, 98, 249, 200, 71, 31, 28, 22]
2.14[23, 98, 249, 200, 71, 31, 28, 22]
2.14[23, 98, 249, 200, 71, 31, 28, 22]
2.14[23, 98, 249, 200, 71, 31, 28, 22]
2.14[23, 98, 249, 200, 71, 31, 28, 22]
2.14[23, 98, 249, 200, 71, 31, 28, 22]
2.14[23, 98, 249, 200, 71, 31, 28, 22]
2.14[23, 98, 249, 200, 71, 31, 28, 22]
2.14[23, 102, 256, 194, 69, 31, 27, 22]
2.16[23, 102, 256, 194, 69, 31, 27, 22]
2.16[23, 102, 256, 194, 69, 31, 27, 22]
2.16[23, 102, 256, 194, 69, 31, 27, 22]
2.16[23, 102, 256, 194, 69, 31, 27, 22]
2.16[23, 102, 256, 194, 69, 31, 27, 22]
2.16[23, 102, 256, 194, 69, 31, 27, 22]
2.16[23, 102, 256, 194, 69, 31, 27, 22]
2.16[22, 105, 262, 136, 52, 27, 23, 20]
2.17[22, 105, 262, 136, 52, 27, 23, 20]
2.17[22, 105, 262, 136, 52, 27, 23, 20]
2.17[22, 105, 262, 136, 52, 27, 23, 20]
2.17[22, 105, 262, 136, 52, 27, 23, 20]
2.17[22, 105, 262, 136, 52, 27, 23, 20]
2.17[22, 105, 262, 136, 52, 27, 23, 20]
2.17[22, 105, 262, 136, 52, 27, 23, 20]
2.17[22, 101, 280, 137, 51, 26, 24, 21]
2.2[22, 101, 280, 137, 51, 26, 24, 21]
2.2[22, 101, 280, 137, 51, 26, 24, 21]
2.2[22, 101, 280, 137, 51, 26, 24, 21]
2.2[22, 101, 280, 137, 51, 26, 24, 21]
2.2[22, 101, 280, 137, 51, 26, 24, 21]
2.2[22, 101, 280, 137, 51, 26, 24, 21]
2.2[22, 101, 280, 137, 51, 26, 24, 21]
2.2[22, 74, 232, 112, 47, 24, 23, 21]
2.22[22, 74, 232, 112, 47, 24, 23, 21]
2.22[22, 74, 232, 112, 47, 24, 23, 21]
2.22[22, 74, 232, 112, 47, 24, 23, 21]
2.22[22, 74, 232, 112, 47, 24, 23, 21]
2.22[22, 74, 232, 112, 47, 24, 23, 21]
2.22[22, 74, 232, 112, 47, 24, 23, 21]
2.22[22, 74, 232, 112, 47, 24, 23, 21]
2.22[23, 75, 266, 150, 51, 23, 20, 21]
2.24[23, 75, 266, 150, 51, 23, 20, 21]
2.24[23, 75, 266, 150, 51, 23, 20, 21]
2.24[23, 75, 266, 150, 51, 23, 20, 21]
2.24[23, 75, 266, 150, 51, 23, 20, 21]
2.24[23, 75, 266, 150, 51, 23, 20, 21]
2.24[23, 75, 266, 150, 51, 23, 20, 21]
2.24[23, 75, 266, 150, 51, 23, 20, 21]
2.24[21, 83, 304, 155, 50, 21, 21, 20]
2.26[21, 83, 304, 155, 50, 21, 21, 20]
2.26[21, 83, 304, 155, 50, 21, 21, 20]
2.26[21, 83, 304, 155, 50, 21, 21, 20]
2.26[21, 83, 304, 155, 50, 21, 21, 20]
2.26[21, 83, 304, 155, 50, 21, 21, 20]
2.26[21, 83, 304, 155, 50, 21, 21, 20]
2.26[21, 83, 304, 155, 50, 21, 21, 20]
2.26[24, 83, 293, 147, 52, 25, 26, 21]
2.28[24, 83, 293, 147, 52, 25, 26, 21]
2.28[24, 83, 293, 147, 52, 25, 26, 21]
2.28[24, 83, 293, 147, 52, 25, 26, 21]
2.28[24, 83, 293, 147, 52, 25, 26, 21]
2.28[24, 83, 293, 147, 52, 25, 26, 21]
2.28[24, 83, 293, 147, 52, 25, 26, 21]
2.28[24, 83, 293, 147, 52, 25, 26, 21]
2.28[23, 84, 265, 136, 48, 24, 25, 20]
2.3[23, 84, 265, 136, 48, 24, 25, 20]
2.3[23, 84, 265, 136, 48, 24, 25, 20]
2.3[23, 84, 265, 136, 48, 24, 25, 20]
2.3[23, 84, 265, 136, 48, 24, 25, 20]
2.3[23, 84, 265, 136, 48, 24, 25, 20]
2.3[23, 84, 265, 136, 48, 24, 25, 20]
2.3[23, 84, 265, 136, 48, 24, 25, 20]
2.3[23, 86, 287, 163, 50, 26, 24, 21]
2.32[23, 86, 287, 163, 50, 26, 24, 21]
2.32[23, 86, 287, 163, 50, 26, 24, 21]
2.32[23, 86, 287, 163, 50, 26, 24, 21]
2.32[23, 86, 287, 163, 50, 26, 24, 21]
2.32[23, 86, 287, 163, 50, 26, 24, 21]
2.32[23, 86, 287, 163, 50, 26, 24, 21]
2.32[23, 86, 287, 163, 50, 26, 24, 21]
2.32[22, 83, 281, 131, 43, 26, 25, 19]
2.34[22, 83, 281, 131, 43, 26, 25, 19]
2.34[22, 83, 281, 131, 43, 26, 25, 19]
2.34[22, 83, 281, 131, 43, 26, 25, 19]
2.34[22, 83, 281, 131, 43, 26, 25, 19]
2.34[22, 83, 281, 131, 43, 26, 25, 19]
2.34[22, 83, 281, 131, 43, 26, 25, 19]
2.34[22, 83, 281, 131, 43, 26, 25, 19]
2.34[24, 88, 270, 125, 45, 31, 26, 20]
2.36[24, 88, 270, 125, 45, 31, 26, 20]
2.36[24, 88, 270, 125, 45, 31, 26, 20]
2.36[24, 88, 270, 125, 45, 31, 26, 20]
2.36[24, 88, 270, 125, 45, 31, 26, 20]
2.36[24, 88, 270, 125, 45, 31, 26, 20]
2.36[24, 88, 270, 125, 45, 31, 26, 20]
2.36[24, 88, 270, 125, 45, 31, 26, 20]
2.36[21, 83, 261, 127, 42, 28, 24, 19]
2.38[21, 83, 261, 127, 42, 28, 24, 19]
2.38[21, 83, 261, 127, 42, 28, 24, 19]
2.38[21, 83, 261, 127, 42, 28, 24, 19]
2.38[21, 83, 261, 127, 42, 28, 24, 19]
2.38[21, 83, 261, 127, 42, 28, 24, 19]
2.38[21, 83, 261, 127, 42, 28, 24, 19]
2.38[21, 83, 261, 127, 42, 28, 24, 19]
2.38[21, 75, 249, 134, 42, 28, 24, 19]
2.4[21, 75, 249, 134, 42, 28, 24, 19]
2.4[21, 75, 249, 134, 42, 28, 24, 19]
2.4[21, 75, 249, 134, 42, 28, 24, 19]
2.4[21, 75, 249, 134, 42, 28, 24, 19]
2.4[21, 75, 249, 134, 42, 28, 24, 19]
2.4[21, 75, 249, 134, 42, 28, 24, 19]
2.4[21, 75, 249, 134, 42, 28, 24, 19]
2.4[22, 73, 225, 91, 32, 28, 25, 20]
2.44[22, 73, 225, 91, 32, 28, 25, 20]
2.44[22, 73, 225, 91, 32, 28, 25, 20]
2.44[22, 73, 225, 91, 32, 28, 25, 20]
2.44[22, 73, 225, 91, 32, 28, 25, 20]
2.44[22, 73, 225, 91, 32, 28, 25, 20]
2.44[22, 73, 225, 91, 32, 28, 25, 20]
2.44[22, 73, 225, 91, 32, 28, 25, 20]
2.44[22, 73, 211, 94, 35, 28, 25, 23]
2.44[22, 73, 211, 94, 35, 28, 25, 23]
2.44[22, 73, 211, 94, 35, 28, 25, 23]
2.44[22, 73, 211, 94, 35, 28, 25, 23]
2.44[22, 73, 211, 94, 35, 28, 25, 23]
2.44[22, 73, 211, 94, 35, 28, 25, 23]
2.44[22, 73, 211, 94, 35, 28, 25, 23]
2.44[22, 73, 211, 94, 35, 28, 25, 23]
2.44[19, 60, 188, 104, 38, 25, 23, 22]
2.46[19, 60, 188, 104, 38, 25, 23, 22]
2.46[19, 60, 188, 104, 38, 25, 23, 22]
2.46[19, 60, 188, 104, 38, 25, 23, 22]
2.46[19, 60, 188, 104, 38, 25, 23, 22]
2.46[19, 60, 188, 104, 38, 25, 23, 22]
2.46[19, 60, 188, 104, 38, 25, 23, 22]
2.46[19, 60, 188, 104, 38, 25, 23, 22]
2.46[20, 69, 219, 116, 39, 28, 22, 26]
2.48[20, 69, 219, 116, 39, 28, 22, 26]
2.48[20, 69, 219, 116, 39, 28, 22, 26]
2.48[20, 69, 219, 116, 39, 28, 22, 26]
2.48[20, 69, 219, 116, 39, 28, 22, 26]
2.48[20, 69, 219, 116, 39, 28, 22, 26]
2.48[20, 69, 219, 116, 39, 28, 22, 26]
2.48[20, 69, 219, 116, 39, 28, 22, 26]
2.48[20, 70, 222, 111, 39, 29, 21, 26]
2.5[20, 70, 222, 111, 39, 29, 21, 26]
2.5[20, 70, 222, 111, 39, 29, 21, 26]
2.5[20, 70, 222, 111, 39, 29, 21, 26]
2.5[20, 70, 222, 111, 39, 29, 21, 26]
2.5[20, 70, 222, 111, 39, 29, 21, 26]
2.5[20, 70, 222, 111, 39, 29, 21, 26]
2.5[20, 70, 222, 111, 39, 29, 21, 26]
2.5[20, 66, 222, 110, 40, 27, 20, 25]
2.52[20, 66, 222, 110, 40, 27, 20, 25]
2.52[20, 66, 222, 110, 40, 27, 20, 25]
2.52[20, 66, 222, 110, 40, 27, 20, 25]
2.52[20, 66, 222, 110, 40, 27, 20, 25]
2.52[20, 66, 222, 110, 40, 27, 20, 25]
2.52[20, 66, 222, 110, 40, 27, 20, 25]
2.52[20, 66, 222, 110, 40, 27, 20, 25]
2.52[20, 70, 226, 109, 38, 28, 20, 23]
2.54[20, 70, 226, 109, 38, 28, 20, 23]
2.54[20, 70, 226, 109, 38, 28, 20, 23]
2.54[20, 70, 226, 109, 38, 28, 20, 23]
2.54[20, 70, 226, 109, 38, 28, 20, 23]
2.54[20, 70, 226, 109, 38, 28, 20, 23]
2.54[20, 70, 226, 109, 38, 28, 20, 23]
2.54[20, 70, 226, 109, 38, 28, 20, 23]
2.54[22, 77, 257, 129, 37, 26, 22, 25]
2.56[22, 77, 257, 129, 37, 26, 22, 25]
2.56[22, 77, 257, 129, 37, 26, 22, 25]
2.56[22, 77, 257, 129, 37, 26, 22, 25]
2.56[22, 77, 257, 129, 37, 26, 22, 25]
2.56[22, 77, 257, 129, 37, 26, 22, 25]
2.56[22, 77, 257, 129, 37, 26, 22, 25]
2.56[22, 77, 257, 129, 37, 26, 22, 25]
2.56[23, 70, 253, 116, 35, 24, 22, 22]
2.58[23, 70, 253, 116, 35, 24, 22, 22]
2.58[23, 70, 253, 116, 35, 24, 22, 22]
2.58[23, 70, 253, 116, 35, 24, 22, 22]
2.58[23, 70, 253, 116, 35, 24, 22, 22]
2.58[23, 70, 253, 116, 35, 24, 22, 22]
2.58[23, 70, 253, 116, 35, 24, 22, 22]
2.58[23, 70, 253, 116, 35, 24, 22, 22]
2.58[23, 71, 255, 114, 36, 22, 23, 23]
2.6[23, 71, 255, 114, 36, 22, 23, 23]
2.6[23, 71, 255, 114, 36, 22, 23, 23]
2.6[23, 71, 255, 114, 36, 22, 23, 23]
2.6[23, 71, 255, 114, 36, 22, 23, 23]
2.6[23, 71, 255, 114, 36, 22, 23, 23]
2.6[23, 71, 255, 114, 36, 22, 23, 23]
2.6[23, 71, 255, 114, 36, 22, 23, 23]
2.6[24, 74, 250, 114, 37, 22, 23, 22]
2.62[24, 74, 250, 114, 37, 22, 23, 22]
2.62[24, 74, 250, 114, 37, 22, 23, 22]
2.62[24, 74, 250, 114, 37, 22, 23, 22]
2.62[24, 74, 250, 114, 37, 22, 23, 22]
2.62[24, 74, 250, 114, 37, 22, 23, 22]
2.62[24, 74, 250, 114, 37, 22, 23, 22]
2.62[24, 74, 250, 114, 37, 22, 23, 22]
2.62[25, 90, 291, 116, 36, 22, 23, 22]
2.64[25, 90, 291, 116, 36, 22, 23, 22]
2.64[25, 90, 291, 116, 36, 22, 23, 22]
2.64[25, 90, 291, 116, 36, 22, 23, 22]
2.64[25, 90, 291, 116, 36, 22, 23, 22]
2.64[25, 90, 291, 116, 36, 22, 23, 22]
2.64[25, 90, 291, 116, 36, 22, 23, 22]
2.64[25, 90, 291, 116, 36, 22, 23, 22]
2.64[23, 81, 246, 79, 39, 24, 22, 22]
2.66[23, 81, 246, 79, 39, 24, 22, 22]
2.66[23, 81, 246, 79, 39, 24, 22, 22]
2.66[23, 81, 246, 79, 39, 24, 22, 22]
2.66[23, 81, 246, 79, 39, 24, 22, 22]
2.66[23, 81, 246, 79, 39, 24, 22, 22]
2.66[23, 81, 246, 79, 39, 24, 22, 22]
2.66[23, 81, 246, 79, 39, 24, 22, 22]
2.66[23, 82, 231, 92, 46, 25, 24, 19]
2.68[23, 82, 231, 92, 46, 25, 24, 19]
2.68[23, 82, 231, 92, 46, 25, 24, 19]
2.68[23, 82, 231, 92, 46, 25, 24, 19]
2.68[23, 82, 231, 92, 46, 25, 24, 19]
2.68[23, 82, 231, 92, 46, 25, 24, 19]
2.68[23, 82, 231, 92, 46, 25, 24, 19]
2.68[23, 82, 231, 92, 46, 25, 24, 19]
2.68[25, 86, 284, 101, 46, 26, 23, 20]
2.7[25, 86, 284, 101, 46, 26, 23, 20]
2.7[25, 86, 284, 101, 46, 26, 23, 20]
2.7[25, 86, 284, 101, 46, 26, 23, 20]
2.7[25, 86, 284, 101, 46, 26, 23, 20]
2.7[25, 86, 284, 101, 46, 26, 23, 20]
2.7[25, 86, 284, 101, 46, 26, 23, 20]
2.7[25, 86, 284, 101, 46, 26, 23, 20]
2.7[23, 88, 296, 100, 47, 25, 24, 21]
2.72[23, 88, 296, 100, 47, 25, 24, 21]
2.72[23, 88, 296, 100, 47, 25, 24, 21]
2.72[23, 88, 296, 100, 47, 25, 24, 21]
2.72[23, 88, 296, 100, 47, 25, 24, 21]
2.72[23, 88, 296, 100, 47, 25, 24, 21]
2.72[23, 88, 296, 100, 47, 25, 24, 21]
2.72[23, 88, 296, 100, 47, 25, 24, 21]
2.72[24, 73, 264, 94, 48, 27, 24, 24]
2.74[24, 73, 264, 94, 48, 27, 24, 24]
2.74[24, 73, 264, 94, 48, 27, 24, 24]
2.74[24, 73, 264, 94, 48, 27, 24, 24]
2.74[24, 73, 264, 94, 48, 27, 24, 24]
2.74[24, 73, 264, 94, 48, 27, 24, 24]
2.74[24, 73, 264, 94, 48, 27, 24, 24]
2.74[24, 73, 264, 94, 48, 27, 24, 24]
2.74[23, 75, 285, 123, 51, 29, 22, 23]
2.76[23, 75, 285, 123, 51, 29, 22, 23]
2.76[23, 75, 285, 123, 51, 29, 22, 23]
2.76[23, 75, 285, 123, 51, 29, 22, 23]
2.76[23, 75, 285, 123, 51, 29, 22, 23]
2.76[23, 75, 285, 123, 51, 29, 22, 23]
2.76[23, 75, 285, 123, 51, 29, 22, 23]
2.76[23, 75, 285, 123, 51, 29, 22, 23]
2.76[23, 79, 302, 119, 45, 28, 22, 24]
2.79[23, 79, 302, 119, 45, 28, 22, 24]
2.79[23, 79, 302, 119, 45, 28, 22, 24]
2.79[23, 79, 302, 119, 45, 28, 22, 24]
2.79[23, 79, 302, 119, 45, 28, 22, 24]
2.79[23, 79, 302, 119, 45, 28, 22, 24]
2.79[23, 79, 302, 119, 45, 28, 22, 24]
2.79[23, 79, 302, 119, 45, 28, 22, 24]
2.79[22, 71, 242, 109, 42, 27, 21, 23]
2.8[22, 71, 242, 109, 42, 27, 21, 23]
2.8[22, 71, 242, 109, 42, 27, 21, 23]
2.8[22, 71, 242, 109, 42, 27, 21, 23]
2.8[22, 71, 242, 109, 42, 27, 21, 23]
2.8[22, 71, 242, 109, 42, 27, 21, 23]
2.8[22, 71, 242, 109, 42, 27, 21, 23]
2.8[22, 71, 242, 109, 42, 27, 21, 23]
2.8[24, 66, 225, 109, 41, 28, 22, 24]
2.82[24, 66, 225, 109, 41, 28, 22, 24]
2.82[24, 66, 225, 109, 41, 28, 22, 24]
2.82[24, 66, 225, 109, 41, 28, 22, 24]
2.82[24, 66, 225, 109, 41, 28, 22, 24]
2.82[24, 66, 225, 109, 41, 28, 22, 24]
2.82[24, 66, 225, 109, 41, 28, 22, 24]
2.82[24, 66, 225, 109, 41, 28, 22, 24]
2.82[21, 59, 202, 112, 40, 47, 24, 20]
2.84[21, 59, 202, 112, 40, 47, 24, 20]
2.84[21, 59, 202, 112, 40, 47, 24, 20]
2.84[21, 59, 202, 112, 40, 47, 24, 20]
2.84[21, 59, 202, 112, 40, 47, 24, 20]
2.84[21, 59, 202, 112, 40, 47, 24, 20]
2.84[21, 59, 202, 112, 40, 47, 24, 20]
2.84[21, 59, 202, 112, 40, 47, 24, 20]
2.84[22, 60, 220, 78, 31, 48, 27, 22]
2.86[22, 60, 220, 78, 31, 48, 27, 22]
2.86[22, 60, 220, 78, 31, 48, 27, 22]
2.86[22, 60, 220, 78, 31, 48, 27, 22]
2.86[22, 60, 220, 78, 31, 48, 27, 22]
2.86[22, 60, 220, 78, 31, 48, 27, 22]
2.86[22, 60, 220, 78, 31, 48, 27, 22]
2.86[22, 60, 220, 78, 31, 48, 27, 22]
2.86[21, 51, 191, 69, 32, 55, 29, 23]
2.88[21, 51, 191, 69, 32, 55, 29, 23]
2.88[21, 51, 191, 69, 32, 55, 29, 23]
2.88[21, 51, 191, 69, 32, 55, 29, 23]
2.88[21, 51, 191, 69, 32, 55, 29, 23]
2.88[21, 51, 191, 69, 32, 55, 29, 23]
2.88[21, 51, 191, 69, 32, 55, 29, 23]
2.88[21, 51, 191, 69, 32, 55, 29, 23]
2.88[22, 51, 191, 70, 40, 89, 32, 24]
2.9[22, 51, 191, 70, 40, 89, 32, 24]
2.9[22, 51, 191, 70, 40, 89, 32, 24]
2.9[22, 51, 191, 70, 40, 89, 32, 24]
2.9[22, 51, 191, 70, 40, 89, 32, 24]
2.9[22, 51, 191, 70, 40, 89, 32, 24]
2.9[22, 51, 191, 70, 40, 89, 32, 24]
2.9[22, 51, 191, 70, 40, 89, 32, 24]
2.9[22, 49, 188, 69, 57, 106, 35, 25]
2.92[22, 49, 188, 69, 57, 106, 35, 25]
2.92[22, 49, 188, 69, 57, 106, 35, 25]
2.92[22, 49, 188, 69, 57, 106, 35, 25]
2.92[22, 49, 188, 69, 57, 106, 35, 25]
2.92[22, 49, 188, 69, 57, 106, 35, 25]
2.92[22, 49, 188, 69, 57, 106, 35, 25]
2.92[22, 49, 188, 69, 57, 106, 35, 25]
2.92[21, 44, 172, 65, 64, 113, 37, 27]
2.94[21, 44, 172, 65, 64, 113, 37, 27]
2.94[21, 44, 172, 65, 64, 113, 37, 27]
2.94[21, 44, 172, 65, 64, 113, 37, 27]
2.94[21, 44, 172, 65, 64, 113, 37, 27]
2.94[21, 44, 172, 65, 64, 113, 37, 27]
2.94[21, 44, 172, 65, 64, 113, 37, 27]
2.94[21, 44, 172, 65, 64, 113, 37, 27]
2.94[24, 26, 73, 69, 64, 117, 35, 25]
2.96[24, 26, 73, 69, 64, 117, 35, 25]
2.96[24, 26, 73, 69, 64, 117, 35, 25]
2.96[24, 26, 73, 69, 64, 117, 35, 25]
2.96[24, 26, 73, 69, 64, 117, 35, 25]
2.96[24, 26, 73, 69, 64, 117, 35, 25]
2.96[24, 26, 73, 69, 64, 117, 35, 25]
2.96[24, 26, 73, 69, 64, 117, 35, 25]
2.96[23, 25, 55, 68, 72, 149, 41, 24]
2.98[23, 25, 55, 68, 72, 149, 41, 24]
2.98[23, 25, 55, 68, 72, 149, 41, 24]
2.98[23, 25, 55, 68, 72, 149, 41, 24]
2.98[23, 25, 55, 68, 72, 149, 41, 24]
2.98[23, 25, 55, 68, 72, 149, 41, 24]
2.98[23, 25, 55, 68, 72, 149, 41, 24]
2.98[23, 25, 55, 68, 72, 149, 41, 24]
2.98[22, 26, 49, 74, 103, 185, 52, 26]
3.0[22, 26, 49, 74, 103, 185, 52, 26]
3.0[22, 26, 49, 74, 103, 185, 52, 26]
3.0[22, 26, 49, 74, 103, 185, 52, 26]
3.0[22, 26, 49, 74, 103, 185, 52, 26]
3.0[22, 26, 49, 74, 103, 185, 52, 26]
3.0[22, 26, 49, 74, 103, 185, 52, 26]
3.0[22, 26, 49, 74, 103, 185, 52, 26]
3.0[24, 25, 41, 71, 104, 203, 59, 26]
3.02[24, 25, 41, 71, 104, 203, 59, 26]
3.02[24, 25, 41, 71, 104, 203, 59, 26]
3.02[24, 25, 41, 71, 104, 203, 59, 26]
3.02[24, 25, 41, 71, 104, 203, 59, 26]
3.02[24, 25, 41, 71, 104, 203, 59, 26]
3.02[24, 25, 41, 71, 104, 203, 59, 26]
3.02[24, 25, 41, 71, 104, 203, 59, 26]
3.02[29, 27, 49, 131, 112, 213, 61, 29]
3.04[29, 27, 49, 131, 112, 213, 61, 29]
3.04[29, 27, 49, 131, 112, 213, 61, 29]
3.04[29, 27, 49, 131, 112, 213, 61, 29]
3.04[29, 27, 49, 131, 112, 213, 61, 29]
3.04[29, 27, 49, 131, 112, 213, 61, 29]
3.04[29, 27, 49, 131, 112, 213, 61, 29]
3.04[29, 27, 49, 131, 112, 213, 61, 29]
3.04[29, 29, 50, 147, 134, 245, 68, 33]
3.07[29, 29, 50, 147, 134, 245, 68, 33]
3.07[29, 29, 50, 147, 134, 245, 68, 33]
3.07[29, 29, 50, 147, 134, 245, 68, 33]
3.07[29, 29, 50, 147, 134, 245, 68, 33]
3.07[29, 29, 50, 147, 134, 245, 68, 33]
3.07[29, 29, 50, 147, 134, 245, 68, 33]
3.07[29, 29, 50, 147, 134, 245, 68, 33]
3.07[33, 32, 49, 148, 139, 265, 73, 34]
3.08[33, 32, 49, 148, 139, 265, 73, 34]
3.08[33, 32, 49, 148, 139, 265, 73, 34]
3.08[33, 32, 49, 148, 139, 265, 73, 34]
3.08[33, 32, 49, 148, 139, 265, 73, 34]
3.08[33, 32, 49, 148, 139, 265, 73, 34]
3.08[33, 32, 49, 148, 139, 265, 73, 34]
3.08[33, 32, 49, 148, 139, 265, 73, 34]
3.08[42, 33, 48, 150, 138, 247, 67, 37]
3.1[42, 33, 48, 150, 138, 247, 67, 37]
3.1[42, 33, 48, 150, 138, 247, 67, 37]
3.1[42, 33, 48, 150, 138, 247, 67, 37]
3.1[42, 33, 48, 150, 138, 247, 67, 37]
3.1[42, 33, 48, 150, 138, 247, 67, 37]
3.1[42, 33, 48, 150, 138, 247, 67, 37]
3.1[42, 33, 48, 150, 138, 247, 67, 37]
3.1[49, 32, 50, 152, 148, 325, 80, 40]
3.12[49, 32, 50, 152, 148, 325, 80, 40]
3.12[49, 32, 50, 152, 148, 325, 80, 40]
3.12[49, 32, 50, 152, 148, 325, 80, 40]
3.12[49, 32, 50, 152, 148, 325, 80, 40]
3.12[49, 32, 50, 152, 148, 325, 80, 40]
3.12[49, 32, 50, 152, 148, 325, 80, 40]
3.12[49, 32, 50, 152, 148, 325, 80, 40]
3.12[48, 33, 47, 128, 146, 334, 81, 37]
3.14[48, 33, 47, 128, 146, 334, 81, 37]
3.14[48, 33, 47, 128, 146, 334, 81, 37]
3.14[48, 33, 47, 128, 146, 334, 81, 37]
3.14[48, 33, 47, 128, 146, 334, 81, 37]
3.14[48, 33, 47, 128, 146, 334, 81, 37]
3.14[48, 33, 47, 128, 146, 334, 81, 37]
3.14[48, 33, 47, 128, 146, 334, 81, 37]
3.14[57, 34, 63, 147, 133, 312, 79, 37]
3.16[57, 34, 63, 147, 133, 312, 79, 37]
3.16[57, 34, 63, 147, 133, 312, 79, 37]
3.16[57, 34, 63, 147, 133, 312, 79, 37]
3.16[57, 34, 63, 147, 133, 312, 79, 37]
3.16[57, 34, 63, 147, 133, 312, 79, 37]
3.16[57, 34, 63, 147, 133, 312, 79, 37]
3.16[57, 34, 63, 147, 133, 312, 79, 37]
3.16[74, 34, 60, 148, 134, 298, 76, 43]
3.18[74, 34, 60, 148, 134, 298, 76, 43]
3.18[74, 34, 60, 148, 134, 298, 76, 43]
3.18[74, 34, 60, 148, 134, 298, 76, 43]
3.18[74, 34, 60, 148, 134, 298, 76, 43]
3.18[74, 34, 60, 148, 134, 298, 76, 43]
3.18[74, 34, 60, 148, 134, 298, 76, 43]
3.18[74, 34, 60, 148, 134, 298, 76, 43]
3.18[90, 35, 61, 147, 130, 353, 91, 40]
3.2[90, 35, 61, 147, 130, 353, 91, 40]
3.2[90, 35, 61, 147, 130, 353, 91, 40]
3.2[90, 35, 61, 147, 130, 353, 91, 40]
3.2[90, 35, 61, 147, 130, 353, 91, 40]
3.2[90, 35, 61, 147, 130, 353, 91, 40]
3.2[90, 35, 61, 147, 130, 353, 91, 40]
3.2[90, 35, 61, 147, 130, 353, 91, 40]
3.2[97, 36, 59, 145, 122, 296, 81, 44]
3.22[97, 36, 59, 145, 122, 296, 81, 44]
3.22[97, 36, 59, 145, 122, 296, 81, 44]
3.22[97, 36, 59, 145, 122, 296, 81, 44]
3.22[97, 36, 59, 145, 122, 296, 81, 44]
3.22[97, 36, 59, 145, 122, 296, 81, 44]
3.22[97, 36, 59, 145, 122, 296, 81, 44]
3.22[97, 36, 59, 145, 122, 296, 81, 44]
3.22[98, 38, 59, 127, 132, 326, 92, 47]
3.24[98, 38, 59, 127, 132, 326, 92, 47]
3.24[98, 38, 59, 127, 132, 326, 92, 47]
3.24[98, 38, 59, 127, 132, 326, 92, 47]
3.24[98, 38, 59, 127, 132, 326, 92, 47]
3.24[98, 38, 59, 127, 132, 326, 92, 47]
3.24[98, 38, 59, 127, 132, 326, 92, 47]
3.24[98, 38, 59, 127, 132, 326, 92, 47]
3.24[96, 37, 42, 82, 133, 340, 96, 47]
3.26[96, 37, 42, 82, 133, 340, 96, 47]
3.26[96, 37, 42, 82, 133, 340, 96, 47]
3.26[96, 37, 42, 82, 133, 340, 96, 47]
3.26[96, 37, 42, 82, 133, 340, 96, 47]
3.26[96, 37, 42, 82, 133, 340, 96, 47]
3.26[96, 37, 42, 82, 133, 340, 96, 47]
3.26[96, 37, 42, 82, 133, 340, 96, 47]
3.26[93, 37, 50, 85, 170, 515, 142, 46]
3.29[93, 37, 50, 85, 170, 515, 142, 46]
3.29[93, 37, 50, 85, 170, 515, 142, 46]
3.29[93, 37, 50, 85, 170, 515, 142, 46]
3.29[93, 37, 50, 85, 170, 515, 142, 46]
3.29[93, 37, 50, 85, 170, 515, 142, 46]
3.29[93, 37, 50, 85, 170, 515, 142, 46]
3.29[93, 37, 50, 85, 170, 515, 142, 46]
3.29[97, 56, 67, 86, 186, 547, 151, 48]
3.3[97, 56, 67, 86, 186, 547, 151, 48]
3.3[97, 56, 67, 86, 186, 547, 151, 48]
3.3[97, 56, 67, 86, 186, 547, 151, 48]
3.3[97, 56, 67, 86, 186, 547, 151, 48]
3.3[97, 56, 67, 86, 186, 547, 151, 48]
3.3[97, 56, 67, 86, 186, 547, 151, 48]
3.3[97, 56, 67, 86, 186, 547, 151, 48]
3.3[94, 57, 70, 85, 184, 548, 153, 43]
3.32[94, 57, 70, 85, 184, 548, 153, 43]
3.32[94, 57, 70, 85, 184, 548, 153, 43]
3.32[94, 57, 70, 85, 184, 548, 153, 43]
3.32[94, 57, 70, 85, 184, 548, 153, 43]
3.32[94, 57, 70, 85, 184, 548, 153, 43]
3.32[94, 57, 70, 85, 184, 548, 153, 43]
3.32[94, 57, 70, 85, 184, 548, 153, 43]
3.32[93, 57, 65, 76, 177, 536, 149, 40]
3.34[93, 57, 65, 76, 177, 536, 149, 40]
3.34[93, 57, 65, 76, 177, 536, 149, 40]
3.34[93, 57, 65, 76, 177, 536, 149, 40]
3.34[93, 57, 65, 76, 177, 536, 149, 40]
3.34[93, 57, 65, 76, 177, 536, 149, 40]
3.34[93, 57, 65, 76, 177, 536, 149, 40]
3.34[93, 57, 65, 76, 177, 536, 149, 40]
3.34[92, 57, 66, 67, 196, 579, 159, 42]
3.36[92, 57, 66, 67, 196, 579, 159, 42]
3.36[92, 57, 66, 67, 196, 579, 159, 42]
3.36[92, 57, 66, 67, 196, 579, 159, 42]
3.36[92, 57, 66, 67, 196, 579, 159, 42]
3.36[92, 57, 66, 67, 196, 579, 159, 42]
3.36[92, 57, 66, 67, 196, 579, 159, 42]
3.36[92, 57, 66, 67, 196, 579, 159, 42]
3.36[100, 58, 64, 57, 166, 442, 123, 37]
3.38[100, 58, 64, 57, 166, 442, 123, 37]
3.38[100, 58, 64, 57, 166, 442, 123, 37]
3.38[100, 58, 64, 57, 166, 442, 123, 37]
3.38[100, 58, 64, 57, 166, 442, 123, 37]
3.38[100, 58, 64, 57, 166, 442, 123, 37]
3.38[100, 58, 64, 57, 166, 442, 123, 37]
3.38[100, 58, 64, 57, 166, 442, 123, 37]
3.38[90, 44, 47, 50, 151, 436, 133, 45]
3.4[90, 44, 47, 50, 151, 436, 133, 45]
3.4[90, 44, 47, 50, 151, 436, 133, 45]
3.4[90, 44, 47, 50, 151, 436, 133, 45]
3.4[90, 44, 47, 50, 151, 436, 133, 45]
3.4[90, 44, 47, 50, 151, 436, 133, 45]
3.4[90, 44, 47, 50, 151, 436, 133, 45]
3.4[90, 44, 47, 50, 151, 436, 133, 45]
3.4[87, 43, 46, 53, 156, 449, 137, 47]
3.42[87, 43, 46, 53, 156, 449, 137, 47]
3.42[87, 43, 46, 53, 156, 449, 137, 47]
3.42[87, 43, 46, 53, 156, 449, 137, 47]
3.42[87, 43, 46, 53, 156, 449, 137, 47]
3.42[87, 43, 46, 53, 156, 449, 137, 47]
3.42[87, 43, 46, 53, 156, 449, 137, 47]
3.42[87, 43, 46, 53, 156, 449, 137, 47]
3.42[88, 44, 48, 57, 169, 503, 156, 51]
3.44[88, 44, 48, 57, 169, 503, 156, 51]
3.44[88, 44, 48, 57, 169, 503, 156, 51]
3.44[88, 44, 48, 57, 169, 503, 156, 51]
3.44[88, 44, 48, 57, 169, 503, 156, 51]
3.44[88, 44, 48, 57, 169, 503, 156, 51]
3.44[88, 44, 48, 57, 169, 503, 156, 51]
3.44[88, 44, 48, 57, 169, 503, 156, 51]
3.44[92, 43, 45, 57, 153, 474, 151, 47]
3.46[92, 43, 45, 57, 153, 474, 151, 47]
3.46[92, 43, 45, 57, 153, 474, 151, 47]
3.46[92, 43, 45, 57, 153, 474, 151, 47]
3.46[92, 43, 45, 57, 153, 474, 151, 47]
3.46[92, 43, 45, 57, 153, 474, 151, 47]
3.46[92, 43, 45, 57, 153, 474, 151, 47]
3.46[92, 43, 45, 57, 153, 474, 151, 47]
3.46[91, 79, 58, 58, 149, 496, 153, 48]
3.48[91, 79, 58, 58, 149, 496, 153, 48]
3.48[91, 79, 58, 58, 149, 496, 153, 48]
3.48[91, 79, 58, 58, 149, 496, 153, 48]
3.48[91, 79, 58, 58, 149, 496, 153, 48]
3.48[91, 79, 58, 58, 149, 496, 153, 48]
3.48[91, 79, 58, 58, 149, 496, 153, 48]
3.48[91, 79, 58, 58, 149, 496, 153, 48]
3.48[83, 80, 58, 62, 147, 489, 149, 42]
3.5[83, 80, 58, 62, 147, 489, 149, 42]
3.5[83, 80, 58, 62, 147, 489, 149, 42]
3.5[83, 80, 58, 62, 147, 489, 149, 42]
3.5[83, 80, 58, 62, 147, 489, 149, 42]
3.5[83, 80, 58, 62, 147, 489, 149, 42]
3.5[83, 80, 58, 62, 147, 489, 149, 42]
3.5[83, 80, 58, 62, 147, 489, 149, 42]
3.5[85, 81, 60, 63, 147, 519, 156, 41]
3.52[85, 81, 60, 63, 147, 519, 156, 41]
3.52[85, 81, 60, 63, 147, 519, 156, 41]
3.52[85, 81, 60, 63, 147, 519, 156, 41]
3.52[85, 81, 60, 63, 147, 519, 156, 41]
3.52[85, 81, 60, 63, 147, 519, 156, 41]
3.52[85, 81, 60, 63, 147, 519, 156, 41]
3.52[85, 81, 60, 63, 147, 519, 156, 41]
3.52[101, 86, 62, 62, 147, 554, 157, 42]
3.54[101, 86, 62, 62, 147, 554, 157, 42]
3.54[101, 86, 62, 62, 147, 554, 157, 42]
3.54[101, 86, 62, 62, 147, 554, 157, 42]
3.54[101, 86, 62, 62, 147, 554, 157, 42]
3.54[101, 86, 62, 62, 147, 554, 157, 42]
3.54[101, 86, 62, 62, 147, 554, 157, 42]
3.54[101, 86, 62, 62, 147, 554, 157, 42]
3.54[104, 88, 62, 62, 154, 564, 155, 44]
3.57[104, 88, 62, 62, 154, 564, 155, 44]
3.57[104, 88, 62, 62, 154, 564, 155, 44]
3.57[104, 88, 62, 62, 154, 564, 155, 44]
3.57[104, 88, 62, 62, 154, 564, 155, 44]
3.57[104, 88, 62, 62, 154, 564, 155, 44]
3.57[104, 88, 62, 62, 154, 564, 155, 44]
3.57[104, 88, 62, 62, 154, 564, 155, 44]
3.57[97, 56, 54, 62, 159, 561, 159, 45]
3.58[97, 56, 54, 62, 159, 561, 159, 45]
3.58[97, 56, 54, 62, 159, 561, 159, 45]
3.58[97, 56, 54, 62, 159, 561, 159, 45]
3.58[97, 56, 54, 62, 159, 561, 159, 45]
3.58[97, 56, 54, 62, 159, 561, 159, 45]
3.58[97, 56, 54, 62, 159, 561, 159, 45]
3.58[97, 56, 54, 62, 159, 561, 159, 45]
3.58[97, 63, 64, 54, 149, 521, 146, 41]
3.6[97, 63, 64, 54, 149, 521, 146, 41]
3.6[97, 63, 64, 54, 149, 521, 146, 41]
3.6[97, 63, 64, 54, 149, 521, 146, 41]
3.6[97, 63, 64, 54, 149, 521, 146, 41]
3.6[97, 63, 64, 54, 149, 521, 146, 41]
3.6[97, 63, 64, 54, 149, 521, 146, 41]
3.6[97, 63, 64, 54, 149, 521, 146, 41]
3.6[111, 65, 65, 54, 154, 520, 142, 39]
3.62[111, 65, 65, 54, 154, 520, 142, 39]
3.62[111, 65, 65, 54, 154, 520, 142, 39]
3.62[111, 65, 65, 54, 154, 520, 142, 39]
3.62[111, 65, 65, 54, 154, 520, 142, 39]
3.62[111, 65, 65, 54, 154, 520, 142, 39]
3.62[111, 65, 65, 54, 154, 520, 142, 39]
3.62[111, 65, 65, 54, 154, 520, 142, 39]
3.62[97, 63, 67, 52, 142, 446, 131, 37]
3.65[97, 63, 67, 52, 142, 446, 131, 37]
3.65[97, 63, 67, 52, 142, 446, 131, 37]
3.65[97, 63, 67, 52, 142, 446, 131, 37]
3.65[97, 63, 67, 52, 142, 446, 131, 37]
3.65[97, 63, 67, 52, 142, 446, 131, 37]
3.65[97, 63, 67, 52, 142, 446, 131, 37]
3.65[97, 63, 67, 52, 142, 446, 131, 37]
3.65[96, 65, 72, 56, 156, 488, 154, 42]
3.66[96, 65, 72, 56, 156, 488, 154, 42]
3.66[96, 65, 72, 56, 156, 488, 154, 42]
3.66[96, 65, 72, 56, 156, 488, 154, 42]
3.66[96, 65, 72, 56, 156, 488, 154, 42]
3.66[96, 65, 72, 56, 156, 488, 154, 42]
3.66[96, 65, 72, 56, 156, 488, 154, 42]
3.66[96, 65, 72, 56, 156, 488, 154, 42]
3.66[95, 66, 67, 54, 155, 481, 152, 43]
3.68[95, 66, 67, 54, 155, 481, 152, 43]
3.68[95, 66, 67, 54, 155, 481, 152, 43]
3.68[95, 66, 67, 54, 155, 481, 152, 43]
3.68[95, 66, 67, 54, 155, 481, 152, 43]
3.68[95, 66, 67, 54, 155, 481, 152, 43]
3.68[95, 66, 67, 54, 155, 481, 152, 43]
3.68[95, 66, 67, 54, 155, 481, 152, 43]
3.68[107, 71, 58, 58, 160, 500, 153, 43]
3.7[107, 71, 58, 58, 160, 500, 153, 43]
3.7[107, 71, 58, 58, 160, 500, 153, 43]
3.7[107, 71, 58, 58, 160, 500, 153, 43]
3.7[107, 71, 58, 58, 160, 500, 153, 43]
3.7[107, 71, 58, 58, 160, 500, 153, 43]
3.7[107, 71, 58, 58, 160, 500, 153, 43]
3.7[107, 71, 58, 58, 160, 500, 153, 43]
3.7[103, 72, 61, 57, 153, 530, 168, 47]
3.72[103, 72, 61, 57, 153, 530, 168, 47]
3.72[103, 72, 61, 57, 153, 530, 168, 47]
3.72[103, 72, 61, 57, 153, 530, 168, 47]
3.72[103, 72, 61, 57, 153, 530, 168, 47]
3.72[103, 72, 61, 57, 153, 530, 168, 47]
3.72[103, 72, 61, 57, 153, 530, 168, 47]
3.72[103, 72, 61, 57, 153, 530, 168, 47]
3.72[111, 70, 58, 57, 148, 531, 168, 48]
3.74[111, 70, 58, 57, 148, 531, 168, 48]
3.74[111, 70, 58, 57, 148, 531, 168, 48]
3.74[111, 70, 58, 57, 148, 531, 168, 48]
3.74[111, 70, 58, 57, 148, 531, 168, 48]
3.74[111, 70, 58, 57, 148, 531, 168, 48]
3.74[111, 70, 58, 57, 148, 531, 168, 48]
3.74[111, 70, 58, 57, 148, 531, 168, 48]
3.74[109, 70, 58, 52, 125, 518, 166, 45]
3.76[109, 70, 58, 52, 125, 518, 166, 45]
3.76[109, 70, 58, 52, 125, 518, 166, 45]
3.76[109, 70, 58, 52, 125, 518, 166, 45]
3.76[109, 70, 58, 52, 125, 518, 166, 45]
3.76[109, 70, 58, 52, 125, 518, 166, 45]
3.76[109, 70, 58, 52, 125, 518, 166, 45]
3.76[109, 70, 58, 52, 125, 518, 166, 45]
3.76[125, 71, 60, 51, 121, 521, 164, 44]
3.78[125, 71, 60, 51, 121, 521, 164, 44]
3.78[125, 71, 60, 51, 121, 521, 164, 44]
3.78[125, 71, 60, 51, 121, 521, 164, 44]
3.78[125, 71, 60, 51, 121, 521, 164, 44]
3.78[125, 71, 60, 51, 121, 521, 164, 44]
3.78[125, 71, 60, 51, 121, 521, 164, 44]
3.78[125, 71, 60, 51, 121, 521, 164, 44]
3.78[119, 61, 61, 56, 129, 569, 169, 54]
3.8[119, 61, 61, 56, 129, 569, 169, 54]
3.8[119, 61, 61, 56, 129, 569, 169, 54]
3.8[119, 61, 61, 56, 129, 569, 169, 54]
3.8[119, 61, 61, 56, 129, 569, 169, 54]
3.8[119, 61, 61, 56, 129, 569, 169, 54]
3.8[119, 61, 61, 56, 129, 569, 169, 54]
3.8[119, 61, 61, 56, 129, 569, 169, 54]
3.8[109, 57, 59, 56, 136, 554, 155, 54]
3.82[109, 57, 59, 56, 136, 554, 155, 54]
3.82[109, 57, 59, 56, 136, 554, 155, 54]
3.82[109, 57, 59, 56, 136, 554, 155, 54]
3.82[109, 57, 59, 56, 136, 554, 155, 54]
3.82[109, 57, 59, 56, 136, 554, 155, 54]
3.82[109, 57, 59, 56, 136, 554, 155, 54]
3.82[109, 57, 59, 56, 136, 554, 155, 54]
3.82[118, 60, 61, 61, 143, 538, 151, 52]
3.84[118, 60, 61, 61, 143, 538, 151, 52]
3.84[118, 60, 61, 61, 143, 538, 151, 52]
3.84[118, 60, 61, 61, 143, 538, 151, 52]
3.84[118, 60, 61, 61, 143, 538, 151, 52]
3.84[118, 60, 61, 61, 143, 538, 151, 52]
3.84[118, 60, 61, 61, 143, 538, 151, 52]
3.84[118, 60, 61, 61, 143, 538, 151, 52]
3.84[114, 58, 57, 58, 134, 479, 128, 51]
3.86[114, 58, 57, 58, 134, 479, 128, 51]
3.86[114, 58, 57, 58, 134, 479, 128, 51]
3.86[114, 58, 57, 58, 134, 479, 128, 51]
3.86[114, 58, 57, 58, 134, 479, 128, 51]
3.86[114, 58, 57, 58, 134, 479, 128, 51]
3.86[114, 58, 57, 58, 134, 479, 128, 51]
3.86[114, 58, 57, 58, 134, 479, 128, 51]
3.86[92, 55, 57, 58, 136, 478, 132, 52]
3.88[92, 55, 57, 58, 136, 478, 132, 52]
3.88[92, 55, 57, 58, 136, 478, 132, 52]
3.88[92, 55, 57, 58, 136, 478, 132, 52]
3.88[92, 55, 57, 58, 136, 478, 132, 52]
3.88[92, 55, 57, 58, 136, 478, 132, 52]
3.88[92, 55, 57, 58, 136, 478, 132, 52]
3.88[92, 55, 57, 58, 136, 478, 132, 52]
3.88[93, 63, 54, 52, 137, 457, 139, 45]
3.9[93, 63, 54, 52, 137, 457, 139, 45]
3.9[93, 63, 54, 52, 137, 457, 139, 45]
3.9[93, 63, 54, 52, 137, 457, 139, 45]
3.9[93, 63, 54, 52, 137, 457, 139, 45]
3.9[93, 63, 54, 52, 137, 457, 139, 45]
3.9[93, 63, 54, 52, 137, 457, 139, 45]
3.9[93, 63, 54, 52, 137, 457, 139, 45]
3.9[106, 69, 48, 49, 124, 399, 134, 41]
3.92[106, 69, 48, 49, 124, 399, 134, 41]
3.92[106, 69, 48, 49, 124, 399, 134, 41]
3.92[106, 69, 48, 49, 124, 399, 134, 41]
3.92[106, 69, 48, 49, 124, 399, 134, 41]
3.92[106, 69, 48, 49, 124, 399, 134, 41]
3.92[106, 69, 48, 49, 124, 399, 134, 41]
3.92[106, 69, 48, 49, 124, 399, 134, 41]
3.92[86, 67, 49, 47, 112, 382, 125, 41]
3.94[86, 67, 49, 47, 112, 382, 125, 41]
3.94[86, 67, 49, 47, 112, 382, 125, 41]
3.94[86, 67, 49, 47, 112, 382, 125, 41]
3.94[86, 67, 49, 47, 112, 382, 125, 41]
3.94[86, 67, 49, 47, 112, 382, 125, 41]
3.94[86, 67, 49, 47, 112, 382, 125, 41]
3.94[86, 67, 49, 47, 112, 382, 125, 41]
3.94[92, 70, 51, 48, 114, 419, 130, 42]
3.96[92, 70, 51, 48, 114, 419, 130, 42]
3.96[92, 70, 51, 48, 114, 419, 130, 42]
3.96[92, 70, 51, 48, 114, 419, 130, 42]
3.96[92, 70, 51, 48, 114, 419, 130, 42]
3.96[92, 70, 51, 48, 114, 419, 130, 42]
3.96[92, 70, 51, 48, 114, 419, 130, 42]
3.96[92, 70, 51, 48, 114, 419, 130, 42]
3.96[89, 73, 52, 51, 119, 425, 127, 41]
3.98[89, 73, 52, 51, 119, 425, 127, 41]
3.98[89, 73, 52, 51, 119, 425, 127, 41]
3.98[89, 73, 52, 51, 119, 425, 127, 41]
3.98[89, 73, 52, 51, 119, 425, 127, 41]
3.98[89, 73, 52, 51, 119, 425, 127, 41]
3.98[89, 73, 52, 51, 119, 425, 127, 41]
3.98[89, 73, 52, 51, 119, 425, 127, 41]
3.98[110, 62, 50, 47, 101, 387, 115, 38]
4.0[110, 62, 50, 47, 101, 387, 115, 38]
4.0[110, 62, 50, 47, 101, 387, 115, 38]
4.0[110, 62, 50, 47, 101, 387, 115, 38]
4.0[110, 62, 50, 47, 101, 387, 115, 38]
4.0[110, 62, 50, 47, 101, 387, 115, 38]
4.0[110, 62, 50, 47, 101, 387, 115, 38]
4.0[110, 62, 50, 47, 101, 387, 115, 38]
4.0[95, 61, 60, 56, 118, 460, 125, 41]
4.02[95, 61, 60, 56, 118, 460, 125, 41]
4.02[95, 61, 60, 56, 118, 460, 125, 41]
4.02[95, 61, 60, 56, 118, 460, 125, 41]
4.02[95, 61, 60, 56, 118, 460, 125, 41]
4.02[95, 61, 60, 56, 118, 460, 125, 41]
4.02[95, 61, 60, 56, 118, 460, 125, 41]
4.02[95, 61, 60, 56, 118, 460, 125, 41]
4.02[97, 59, 56, 56, 127, 487, 135, 40]
4.05[97, 59, 56, 56, 127, 487, 135, 40]
4.05[97, 59, 56, 56, 127, 487, 135, 40]
4.05[97, 59, 56, 56, 127, 487, 135, 40]
4.05[97, 59, 56, 56, 127, 487, 135, 40]
4.05[97, 59, 56, 56, 127, 487, 135, 40]
4.05[97, 59, 56, 56, 127, 487, 135, 40]
4.05[97, 59, 56, 56, 127, 487, 135, 40]
4.05[109, 63, 55, 61, 133, 469, 135, 37]
4.06[109, 63, 55, 61, 133, 469, 135, 37]
4.06[109, 63, 55, 61, 133, 469, 135, 37]
4.06[109, 63, 55, 61, 133, 469, 135, 37]
4.06[109, 63, 55, 61, 133, 469, 135, 37]
4.06[109, 63, 55, 61, 133, 469, 135, 37]
4.06[109, 63, 55, 61, 133, 469, 135, 37]
4.06[109, 63, 55, 61, 133, 469, 135, 37]
4.06[117, 77, 58, 61, 132, 491, 142, 41]
4.08[117, 77, 58, 61, 132, 491, 142, 41]
4.08[117, 77, 58, 61, 132, 491, 142, 41]
4.08[117, 77, 58, 61, 132, 491, 142, 41]
4.08[117, 77, 58, 61, 132, 491, 142, 41]
4.08[117, 77, 58, 61, 132, 491, 142, 41]
4.08[117, 77, 58, 61, 132, 491, 142, 41]
4.08[117, 77, 58, 61, 132, 491, 142, 41]
4.08[90, 79, 61, 65, 150, 552, 164, 42]
4.1[90, 79, 61, 65, 150, 552, 164, 42]
4.1[90, 79, 61, 65, 150, 552, 164, 42]
4.1[90, 79, 61, 65, 150, 552, 164, 42]
4.1[90, 79, 61, 65, 150, 552, 164, 42]
4.1[90, 79, 61, 65, 150, 552, 164, 42]
4.1[90, 79, 61, 65, 150, 552, 164, 42]
4.1[90, 79, 61, 65, 150, 552, 164, 42]
4.1[98, 78, 54, 59, 133, 481, 154, 42]
4.12[98, 78, 54, 59, 133, 481, 154, 42]
4.12[98, 78, 54, 59, 133, 481, 154, 42]
4.12[98, 78, 54, 59, 133, 481, 154, 42]
4.12[98, 78, 54, 59, 133, 481, 154, 42]
4.12[98, 78, 54, 59, 133, 481, 154, 42]
4.12[98, 78, 54, 59, 133, 481, 154, 42]
4.12[98, 78, 54, 59, 133, 481, 154, 42]
4.12[106, 79, 62, 58, 134, 509, 162, 47]
4.15[106, 79, 62, 58, 134, 509, 162, 47]
4.15[106, 79, 62, 58, 134, 509, 162, 47]
4.15[106, 79, 62, 58, 134, 509, 162, 47]
4.15[106, 79, 62, 58, 134, 509, 162, 47]
4.15[106, 79, 62, 58, 134, 509, 162, 47]
4.15[106, 79, 62, 58, 134, 509, 162, 47]
4.15[106, 79, 62, 58, 134, 509, 162, 47]
4.15[115, 76, 64, 56, 132, 511, 167, 49]
4.16[115, 76, 64, 56, 132, 511, 167, 49]
4.16[115, 76, 64, 56, 132, 511, 167, 49]
4.16[115, 76, 64, 56, 132, 511, 167, 49]
4.16[115, 76, 64, 56, 132, 511, 167, 49]
4.16[115, 76, 64, 56, 132, 511, 167, 49]
4.16[115, 76, 64, 56, 132, 511, 167, 49]
4.16[115, 76, 64, 56, 132, 511, 167, 49]
4.16[109, 60, 61, 56, 132, 484, 158, 46]
4.18[109, 60, 61, 56, 132, 484, 158, 46]
4.18[109, 60, 61, 56, 132, 484, 158, 46]
4.18[109, 60, 61, 56, 132, 484, 158, 46]
4.18[109, 60, 61, 56, 132, 484, 158, 46]
4.18[109, 60, 61, 56, 132, 484, 158, 46]
4.18[109, 60, 61, 56, 132, 484, 158, 46]
4.18[109, 60, 61, 56, 132, 484, 158, 46]
4.18[117, 66, 59, 52, 118, 412, 125, 43]
4.21[117, 66, 59, 52, 118, 412, 125, 43]
4.21[117, 66, 59, 52, 118, 412, 125, 43]
4.21[117, 66, 59, 52, 118, 412, 125, 43]
4.21[117, 66, 59, 52, 118, 412, 125, 43]
4.21[117, 66, 59, 52, 118, 412, 125, 43]
4.21[117, 66, 59, 52, 118, 412, 125, 43]
4.21[117, 66, 59, 52, 118, 412, 125, 43]
4.21[119, 62, 59, 53, 121, 423, 129, 43]
4.22[119, 62, 59, 53, 121, 423, 129, 43]
4.22[119, 62, 59, 53, 121, 423, 129, 43]
4.22[119, 62, 59, 53, 121, 423, 129, 43]
4.22[119, 62, 59, 53, 121, 423, 129, 43]
4.22[119, 62, 59, 53, 121, 423, 129, 43]
4.22[119, 62, 59, 53, 121, 423, 129, 43]
4.22[119, 62, 59, 53, 121, 423, 129, 43]
4.22[111, 64, 50, 51, 112, 372, 123, 38]
4.24[111, 64, 50, 51, 112, 372, 123, 38]
4.24[111, 64, 50, 51, 112, 372, 123, 38]
4.24[111, 64, 50, 51, 112, 372, 123, 38]
4.24[111, 64, 50, 51, 112, 372, 123, 38]
4.24[111, 64, 50, 51, 112, 372, 123, 38]
4.24[111, 64, 50, 51, 112, 372, 123, 38]
4.24[111, 64, 50, 51, 112, 372, 123, 38]
4.24[106, 68, 51, 57, 123, 416, 122, 37]
4.27[106, 68, 51, 57, 123, 416, 122, 37]
4.27[106, 68, 51, 57, 123, 416, 122, 37]
4.27[106, 68, 51, 57, 123, 416, 122, 37]
4.27[106, 68, 51, 57, 123, 416, 122, 37]
4.27[106, 68, 51, 57, 123, 416, 122, 37]
4.27[106, 68, 51, 57, 123, 416, 122, 37]
4.27[106, 68, 51, 57, 123, 416, 122, 37]
4.27[108, 64, 49, 52, 114, 410, 129, 37]
4.29[108, 64, 49, 52, 114, 410, 129, 37]
4.29[108, 64, 49, 52, 114, 410, 129, 37]
4.29[108, 64, 49, 52, 114, 410, 129, 37]
4.29[108, 64, 49, 52, 114, 410, 129, 37]
4.29[108, 64, 49, 52, 114, 410, 129, 37]
4.29[108, 64, 49, 52, 114, 410, 129, 37]
4.29[108, 64, 49, 52, 114, 410, 129, 37]
4.29[101, 55, 53, 55, 110, 396, 135, 37]
4.3[101, 55, 53, 55, 110, 396, 135, 37]
4.3[101, 55, 53, 55, 110, 396, 135, 37]
4.3[101, 55, 53, 55, 110, 396, 135, 37]
4.3[101, 55, 53, 55, 110, 396, 135, 37]
4.3[101, 55, 53, 55, 110, 396, 135, 37]
4.3[101, 55, 53, 55, 110, 396, 135, 37]
4.3[101, 55, 53, 55, 110, 396, 135, 37]
4.3[99, 59, 57, 59, 128, 481, 138, 38]
4.33[99, 59, 57, 59, 128, 481, 138, 38]
4.33[99, 59, 57, 59, 128, 481, 138, 38]
4.33[99, 59, 57, 59, 128, 481, 138, 38]
4.33[99, 59, 57, 59, 128, 481, 138, 38]
4.33[99, 59, 57, 59, 128, 481, 138, 38]
4.33[99, 59, 57, 59, 128, 481, 138, 38]
4.33[99, 59, 57, 59, 128, 481, 138, 38]
4.33[128, 76, 58, 60, 127, 483, 136, 40]
4.34[128, 76, 58, 60, 127, 483, 136, 40]
4.34[128, 76, 58, 60, 127, 483, 136, 40]
4.34[128, 76, 58, 60, 127, 483, 136, 40]
4.34[128, 76, 58, 60, 127, 483, 136, 40]
4.34[128, 76, 58, 60, 127, 483, 136, 40]
4.34[128, 76, 58, 60, 127, 483, 136, 40]
4.34[128, 76, 58, 60, 127, 483, 136, 40]
4.34[114, 74, 62, 53, 115, 457, 132, 37]
4.36[114, 74, 62, 53, 115, 457, 132, 37]
4.37[114, 74, 62, 53, 115, 457, 132, 37]
4.37[114, 74, 62, 53, 115, 457, 132, 37]
4.37[114, 74, 62, 53, 115, 457, 132, 37]
4.37[114, 74, 62, 53, 115, 457, 132, 37]
4.37[114, 74, 62, 53, 115, 457, 132, 37]
4.37[114, 74, 62, 53, 115, 457, 132, 37]
4.37[114, 78, 67, 63, 135, 512, 137, 41]
4.39[114, 78, 67, 63, 135, 512, 137, 41]
4.39[114, 78, 67, 63, 135, 512, 137, 41]
4.39[114, 78, 67, 63, 135, 512, 137, 41]
4.39[114, 78, 67, 63, 135, 512, 137, 41]
4.39[114, 78, 67, 63, 135, 512, 137, 41]
4.39[114, 78, 67, 63, 135, 512, 137, 41]
4.39[114, 78, 67, 63, 135, 512, 137, 41]
4.39[122, 79, 66, 59, 134, 508, 139, 42]
4.4[122, 79, 66, 59, 134, 508, 139, 42]
4.4[122, 79, 66, 59, 134, 508, 139, 42]
4.4[122, 79, 66, 59, 134, 508, 139, 42]
4.4[122, 79, 66, 59, 134, 508, 139, 42]
4.4[122, 79, 66, 59, 134, 508, 139, 42]
4.4[122, 79, 66, 59, 134, 508, 139, 42]
4.4[122, 79, 66, 59, 134, 508, 139, 42]
4.4[128, 82, 60, 52, 117, 413, 130, 42]
4.42[128, 82, 60, 52, 117, 413, 130, 42]
4.42[128, 82, 60, 52, 117, 413, 130, 42]
4.42[128, 82, 60, 52, 117, 413, 130, 42]
4.42[128, 82, 60, 52, 117, 413, 130, 42]
4.42[128, 82, 60, 52, 117, 413, 130, 42]
4.42[128, 82, 60, 52, 117, 413, 130, 42]
4.42[128, 82, 60, 52, 117, 413, 130, 42]
4.42[107, 68, 60, 54, 122, 432, 121, 41]
4.45[107, 68, 60, 54, 122, 432, 121, 41]
4.45[107, 68, 60, 54, 122, 432, 121, 41]
4.45[107, 68, 60, 54, 122, 432, 121, 41]
4.45[107, 68, 60, 54, 122, 432, 121, 41]
4.45[107, 68, 60, 54, 122, 432, 121, 41]
4.45[107, 68, 60, 54, 122, 432, 121, 41]
4.45[107, 68, 60, 54, 122, 432, 121, 41]
4.45[111, 65, 61, 57, 128, 444, 129, 43]
4.46[111, 65, 61, 57, 128, 444, 129, 43]
4.46[111, 65, 61, 57, 128, 444, 129, 43]
4.46[111, 65, 61, 57, 128, 444, 129, 43]
4.46[111, 65, 61, 57, 128, 444, 129, 43]
4.46[111, 65, 61, 57, 128, 444, 129, 43]
4.46[111, 65, 61, 57, 128, 444, 129, 43]
4.46[111, 65, 61, 57, 128, 444, 129, 43]
4.46[108, 68, 57, 50, 118, 429, 141, 41]
4.48[108, 68, 57, 50, 118, 429, 141, 41]
4.48[108, 68, 57, 50, 118, 429, 141, 41]
4.48[108, 68, 57, 50, 118, 429, 141, 41]
4.48[108, 68, 57, 50, 118, 429, 141, 41]
4.48[108, 68, 57, 50, 118, 429, 141, 41]
4.48[108, 68, 57, 50, 118, 429, 141, 41]
4.48[108, 68, 57, 50, 118, 429, 141, 41]
4.48[108, 73, 70, 58, 125, 433, 150, 44]
4.51[108, 73, 70, 58, 125, 433, 150, 44]
4.51[108, 73, 70, 58, 125, 433, 150, 44]
4.51[108, 73, 70, 58, 125, 433, 150, 44]
4.51[108, 73, 70, 58, 125, 433, 150, 44]
4.51[108, 73, 70, 58, 125, 433, 150, 44]
4.51[108, 73, 70, 58, 125, 433, 150, 44]
4.51[108, 73, 70, 58, 125, 433, 150, 44]
4.51[106, 73, 77, 61, 126, 450, 156, 44]
4.52[106, 73, 77, 61, 126, 450, 156, 44]
4.52[106, 73, 77, 61, 126, 450, 156, 44]
4.52[106, 73, 77, 61, 126, 450, 156, 44]
4.52[106, 73, 77, 61, 126, 450, 156, 44]
4.52[106, 73, 77, 61, 126, 450, 156, 44]
4.52[106, 73, 77, 61, 126, 450, 156, 44]
4.52[106, 73, 77, 61, 126, 450, 156, 44]
4.52[96, 78, 78, 57, 118, 420, 154, 43]
4.54[96, 78, 78, 57, 118, 420, 154, 43]
4.54[96, 78, 78, 57, 118, 420, 154, 43]
4.54[96, 78, 78, 57, 118, 420, 154, 43]
4.54[96, 78, 78, 57, 118, 420, 154, 43]
4.54[96, 78, 78, 57, 118, 420, 154, 43]
4.54[96, 78, 78, 57, 118, 420, 154, 43]
4.54[96, 78, 78, 57, 118, 420, 154, 43]
4.54[97, 79, 73, 55, 109, 392, 145, 42]
4.57[97, 79, 73, 55, 109, 392, 145, 42]
4.57[97, 79, 73, 55, 109, 392, 145, 42]
4.57[97, 79, 73, 55, 109, 392, 145, 42]
4.57[97, 79, 73, 55, 109, 392, 145, 42]
4.57[97, 79, 73, 55, 109, 392, 145, 42]
4.57[97, 79, 73, 55, 109, 392, 145, 42]
4.57[97, 79, 73, 55, 109, 392, 145, 42]
4.57[95, 76, 77, 58, 101, 331, 125, 44]
4.58[95, 76, 77, 58, 101, 331, 125, 44]
4.58[95, 76, 77, 58, 101, 331, 125, 44]
4.58[95, 76, 77, 58, 101, 331, 125, 44]
4.58[95, 76, 77, 58, 101, 331, 125, 44]
4.58[95, 76, 77, 58, 101, 331, 125, 44]
4.58[95, 76, 77, 58, 101, 331, 125, 44]
4.58[95, 76, 77, 58, 101, 331, 125, 44]
4.58[103, 78, 65, 51, 91, 314, 114, 41]
4.6[103, 78, 65, 51, 91, 314, 114, 41]
4.6[103, 78, 65, 51, 91, 314, 114, 41]
4.6[103, 78, 65, 51, 91, 314, 114, 41]
4.6[103, 78, 65, 51, 91, 314, 114, 41]
4.6[103, 78, 65, 51, 91, 314, 114, 41]
4.6[103, 78, 65, 51, 91, 314, 114, 41]
4.6[103, 78, 65, 51, 91, 314, 114, 41]
4.6[93, 73, 58, 49, 102, 321, 113, 39]
4.63[93, 73, 58, 49, 102, 321, 113, 39]
4.63[93, 73, 58, 49, 102, 321, 113, 39]
4.63[93, 73, 58, 49, 102, 321, 113, 39]
4.63[93, 73, 58, 49, 102, 321, 113, 39]
4.63[93, 73, 58, 49, 102, 321, 113, 39]
4.63[93, 73, 58, 49, 102, 321, 113, 39]
4.63[93, 73, 58, 49, 102, 321, 113, 39]
4.63[97, 63, 55, 51, 116, 426, 148, 43]
4.64[97, 63, 55, 51, 116, 426, 148, 43]
4.64[97, 63, 55, 51, 116, 426, 148, 43]
4.64[97, 63, 55, 51, 116, 426, 148, 43]
4.64[97, 63, 55, 51, 116, 426, 148, 43]
4.64[97, 63, 55, 51, 116, 426, 148, 43]
4.64[97, 63, 55, 51, 116, 426, 148, 43]
4.64[97, 63, 55, 51, 116, 426, 148, 43]
4.64[126, 62, 55, 51, 118, 443, 155, 44]
4.66[126, 62, 55, 51, 118, 443, 155, 44]
4.66[126, 62, 55, 51, 118, 443, 155, 44]
4.66[126, 62, 55, 51, 118, 443, 155, 44]
4.66[126, 62, 55, 51, 118, 443, 155, 44]
4.66[126, 62, 55, 51, 118, 443, 155, 44]
4.66[126, 62, 55, 51, 118, 443, 155, 44]
4.66[126, 62, 55, 51, 118, 443, 155, 44]
4.66[138, 63, 47, 48, 119, 474, 159, 40]
4.69[138, 63, 47, 48, 119, 474, 159, 40]
4.69[138, 63, 47, 48, 119, 474, 159, 40]
4.69[138, 63, 47, 48, 119, 474, 159, 40]
4.69[138, 63, 47, 48, 119, 474, 159, 40]
4.69[138, 63, 47, 48, 119, 474, 159, 40]
4.69[138, 63, 47, 48, 119, 474, 159, 40]
4.69[138, 63, 47, 48, 119, 474, 159, 40]
4.69[126, 57, 58, 47, 117, 481, 161, 39]
4.7[126, 57, 58, 47, 117, 481, 161, 39]
4.7[126, 57, 58, 47, 117, 481, 161, 39]
4.7[126, 57, 58, 47, 117, 481, 161, 39]
4.7[126, 57, 58, 47, 117, 481, 161, 39]
4.7[126, 57, 58, 47, 117, 481, 161, 39]
4.7[126, 57, 58, 47, 117, 481, 161, 39]
4.7[126, 57, 58, 47, 117, 481, 161, 39]
4.7[129, 56, 59, 48, 110, 498, 157, 40]
4.72[129, 56, 59, 48, 110, 498, 157, 40]
4.72[129, 56, 59, 48, 110, 498, 157, 40]
4.72[129, 56, 59, 48, 110, 498, 157, 40]
4.72[129, 56, 59, 48, 110, 498, 157, 40]
4.72[129, 56, 59, 48, 110, 498, 157, 40]
4.72[129, 56, 59, 48, 110, 498, 157, 40]
4.72[129, 56, 59, 48, 110, 498, 157, 40]
4.72[136, 58, 58, 49, 112, 467, 136, 36]
4.75[136, 58, 58, 49, 112, 467, 136, 36]
4.75[136, 58, 58, 49, 112, 467, 136, 36]
4.75[136, 58, 58, 49, 112, 467, 136, 36]
4.75[136, 58, 58, 49, 112, 467, 136, 36]
4.75[136, 58, 58, 49, 112, 467, 136, 36]
4.75[136, 58, 58, 49, 112, 467, 136, 36]
4.75[136, 58, 58, 49, 112, 467, 136, 36]
4.75[104, 56, 60, 49, 116, 469, 135, 35]
4.77[104, 56, 60, 49, 116, 469, 135, 35]
4.77[104, 56, 60, 49, 116, 469, 135, 35]
4.77[104, 56, 60, 49, 116, 469, 135, 35]
4.77[104, 56, 60, 49, 116, 469, 135, 35]
4.77[104, 56, 60, 49, 116, 469, 135, 35]
4.77[104, 56, 60, 49, 116, 469, 135, 35]
4.77[104, 56, 60, 49, 116, 469, 135, 35]
4.77[93, 73, 81, 52, 109, 427, 123, 37]
4.78[93, 73, 81, 52, 109, 427, 123, 37]
4.78[93, 73, 81, 52, 109, 427, 123, 37]
4.78[93, 73, 81, 52, 109, 427, 123, 37]
4.78[93, 73, 81, 52, 109, 427, 123, 37]
4.78[93, 73, 81, 52, 109, 427, 123, 37]
4.78[93, 73, 81, 52, 109, 427, 123, 37]
4.78[93, 73, 81, 52, 109, 427, 123, 37]
4.78[109, 73, 71, 54, 111, 422, 124, 39]
4.81[109, 73, 71, 54, 111, 422, 124, 39]
4.81[109, 73, 71, 54, 111, 422, 124, 39]
4.81[109, 73, 71, 54, 111, 422, 124, 39]
4.81[109, 73, 71, 54, 111, 422, 124, 39]
4.81[109, 73, 71, 54, 111, 422, 124, 39]
4.81[109, 73, 71, 54, 111, 422, 124, 39]
4.81[109, 73, 71, 54, 111, 422, 124, 39]
4.81[110, 74, 72, 53, 120, 416, 144, 41]
4.83[110, 74, 72, 53, 120, 416, 144, 41]
4.83[110, 74, 72, 53, 120, 416, 144, 41]
4.83[110, 74, 72, 53, 120, 416, 144, 41]
4.83[110, 74, 72, 53, 120, 416, 144, 41]
4.83[110, 74, 72, 53, 120, 416, 144, 41]
4.83[110, 74, 72, 53, 120, 416, 144, 41]
4.83[110, 74, 72, 53, 120, 416, 144, 41]
4.83[105, 75, 74, 54, 126, 426, 157, 45]
4.84[105, 75, 74, 54, 126, 426, 157, 45]
4.84[105, 75, 74, 54, 126, 426, 157, 45]
4.84[105, 75, 74, 54, 126, 426, 157, 45]
4.84[105, 75, 74, 54, 126, 426, 157, 45]
4.84[105, 75, 74, 54, 126, 426, 157, 45]
4.84[105, 75, 74, 54, 126, 426, 157, 45]
4.84[105, 75, 74, 54, 126, 426, 157, 45]
4.84[106, 75, 71, 50, 121, 414, 156, 42]
4.87[106, 75, 71, 50, 121, 414, 156, 42]
4.87[106, 75, 71, 50, 121, 414, 156, 42]
4.87[106, 75, 71, 50, 121, 414, 156, 42]
4.87[106, 75, 71, 50, 121, 414, 156, 42]
4.87[106, 75, 71, 50, 121, 414, 156, 42]
4.87[106, 75, 71, 50, 121, 414, 156, 42]
4.87[106, 75, 71, 50, 121, 414, 156, 42]
4.87[145, 65, 52, 49, 122, 429, 164, 41]
4.89[145, 65, 52, 49, 122, 429, 164, 41]
4.89[145, 65, 52, 49, 122, 429, 164, 41]
4.89[145, 65, 52, 49, 122, 429, 164, 41]
4.89[145, 65, 52, 49, 122, 429, 164, 41]
4.89[145, 65, 52, 49, 122, 429, 164, 41]
4.89[145, 65, 52, 49, 122, 429, 164, 41]
4.89[145, 65, 52, 49, 122, 429, 164, 41]
4.89[134, 61, 53, 49, 136, 457, 168, 43]
4.9[134, 61, 53, 49, 136, 457, 168, 43]
4.9[134, 61, 53, 49, 136, 457, 168, 43]
4.9[134, 61, 53, 49, 136, 457, 168, 43]
4.9[134, 61, 53, 49, 136, 457, 168, 43]
4.9[134, 61, 53, 49, 136, 457, 168, 43]
4.9[134, 61, 53, 49, 136, 457, 168, 43]
4.9[134, 61, 53, 49, 136, 457, 168, 43]
4.9[133, 57, 49, 50, 134, 463, 163, 42]
4.93[133, 57, 49, 50, 134, 463, 163, 42]
4.93[133, 57, 49, 50, 134, 463, 163, 42]
4.93[133, 57, 49, 50, 134, 463, 163, 42]
4.93[133, 57, 49, 50, 134, 463, 163, 42]
4.93[133, 57, 49, 50, 134, 463, 163, 42]
4.93[133, 57, 49, 50, 134, 463, 163, 42]
4.93[133, 57, 49, 50, 134, 463, 163, 42]
4.93[135, 59, 54, 47, 116, 401, 152, 39]
4.95[135, 59, 54, 47, 116, 401, 152, 39]
4.95[135, 59, 54, 47, 116, 401, 152, 39]
4.95[135, 59, 54, 47, 116, 401, 152, 39]
4.95[135, 59, 54, 47, 116, 401, 152, 39]
4.95[135, 59, 54, 47, 116, 401, 152, 39]
4.95[135, 59, 54, 47, 116, 401, 152, 39]
4.95[135, 59, 54, 47, 116, 401, 152, 39]
4.95[138, 63, 57, 55, 137, 472, 166, 47]
4.96[138, 63, 57, 55, 137, 472, 166, 47]
4.96[138, 63, 57, 55, 137, 472, 166, 47]
4.96[138, 63, 57, 55, 137, 472, 166, 47]
4.96[138, 63, 57, 55, 137, 472, 166, 47]
4.96[138, 63, 57, 55, 137, 472, 166, 47]
4.96[138, 63, 57, 55, 137, 472, 166, 47]
4.96[138, 63, 57, 55, 137, 472, 166, 47]
4.96[96, 56, 56, 55, 147, 502, 168, 49]
4.99[96, 56, 56, 55, 147, 502, 168, 49]
4.99[96, 56, 56, 55, 147, 502, 168, 49]
4.99[96, 56, 56, 55, 147, 502, 168, 49]
4.99[96, 56, 56, 55, 147, 502, 168, 49]
4.99[96, 56, 56, 55, 147, 502, 168, 49]
4.99[96, 56, 56, 55, 147, 502, 168, 49]
4.99[96, 56, 56, 55, 147, 502, 168, 49]
4.99[91, 59, 61, 55, 138, 491, 168, 46]
5.02[91, 59, 61, 55, 138, 491, 168, 46]
5.02[91, 59, 61, 55, 138, 491, 168, 46]
5.02[91, 59, 61, 55, 138, 491, 168, 46]
5.02[91, 59, 61, 55, 138, 491, 168, 46]
5.02[91, 59, 61, 55, 138, 491, 168, 46]
5.02[91, 59, 61, 55, 138, 491, 168, 46]
5.02[91, 59, 61, 55, 138, 491, 168, 46]
5.02[91, 63, 59, 51, 129, 457, 165, 48]
5.02[91, 63, 59, 51, 129, 457, 165, 48]
5.02[91, 63, 59, 51, 129, 457, 165, 48]
5.02[91, 63, 59, 51, 129, 457, 165, 48]
5.02[91, 63, 59, 51, 129, 457, 165, 48]
5.02[91, 63, 59, 51, 129, 457, 165, 48]
5.02[91, 63, 59, 51, 129, 457, 165, 48]
5.02[91, 63, 59, 51, 129, 457, 165, 48]
5.02[89, 64, 53, 51, 128, 451, 168, 48]
5.05[89, 64, 53, 51, 128, 451, 168, 48]
5.05[89, 64, 53, 51, 128, 451, 168, 48]
5.05[89, 64, 53, 51, 128, 451, 168, 48]
5.05[89, 64, 53, 51, 128, 451, 168, 48]
5.05[89, 64, 53, 51, 128, 451, 168, 48]
5.05[89, 64, 53, 51, 128, 451, 168, 48]
5.05[89, 64, 53, 51, 128, 451, 168, 48]
5.05[83, 78, 54, 42, 105, 401, 169, 41]
5.07[83, 78, 54, 42, 105, 401, 169, 41]
5.07[83, 78, 54, 42, 105, 401, 169, 41]
5.07[83, 78, 54, 42, 105, 401, 169, 41]
5.07[83, 78, 54, 42, 105, 401, 169, 41]
5.07[83, 78, 54, 42, 105, 401, 169, 41]
5.07[83, 78, 54, 42, 105, 401, 169, 41]
5.07[83, 78, 54, 42, 105, 401, 169, 41]
5.07[107, 80, 53, 39, 96, 369, 164, 42]
5.08[107, 80, 53, 39, 96, 369, 164, 42]
5.08[107, 80, 53, 39, 96, 369, 164, 42]
5.08[107, 80, 53, 39, 96, 369, 164, 42]
5.08[107, 80, 53, 39, 96, 369, 164, 42]
5.08[107, 80, 53, 39, 96, 369, 164, 42]
5.08[107, 80, 53, 39, 96, 369, 164, 42]
5.08[107, 80, 53, 39, 96, 369, 164, 42]
5.08[107, 78, 48, 34, 83, 337, 155, 40]
5.11[107, 78, 48, 34, 83, 337, 155, 40]
5.11[107, 78, 48, 34, 83, 337, 155, 40]
5.11[107, 78, 48, 34, 83, 337, 155, 40]
5.11[107, 78, 48, 34, 83, 337, 155, 40]
5.11[107, 78, 48, 34, 83, 337, 155, 40]
5.11[107, 78, 48, 34, 83, 337, 155, 40]
5.11[107, 78, 48, 34, 83, 337, 155, 40]
5.11[114, 79, 48, 37, 98, 371, 150, 41]
5.13[114, 79, 48, 37, 98, 371, 150, 41]
5.13[114, 79, 48, 37, 98, 371, 150, 41]
5.13[114, 79, 48, 37, 98, 371, 150, 41]
5.13[114, 79, 48, 37, 98, 371, 150, 41]
5.13[114, 79, 48, 37, 98, 371, 150, 41]
5.13[114, 79, 48, 37, 98, 371, 150, 41]
5.13[114, 79, 48, 37, 98, 371, 150, 41]
5.13[116, 85, 54, 39, 103, 387, 140, 37]
5.14[116, 85, 54, 39, 103, 387, 140, 37]
5.14[116, 85, 54, 39, 103, 387, 140, 37]
5.14[116, 85, 54, 39, 103, 387, 140, 37]
5.14[116, 85, 54, 39, 103, 387, 140, 37]
5.14[116, 85, 54, 39, 103, 387, 140, 37]
5.14[116, 85, 54, 39, 103, 387, 140, 37]
5.14[116, 85, 54, 39, 103, 387, 140, 37]
5.14[114, 70, 50, 44, 102, 345, 113, 35]
5.17[114, 70, 50, 44, 102, 345, 113, 35]
5.17[114, 70, 50, 44, 102, 345, 113, 35]
5.17[114, 70, 50, 44, 102, 345, 113, 35]
5.17[114, 70, 50, 44, 102, 345, 113, 35]
5.17[114, 70, 50, 44, 102, 345, 113, 35]
5.17[114, 70, 50, 44, 102, 345, 113, 35]
5.17[114, 70, 50, 44, 102, 345, 113, 35]
5.17[95, 63, 50, 43, 98, 359, 127, 37]
5.19[95, 63, 50, 43, 98, 359, 127, 37]
5.19[95, 63, 50, 43, 98, 359, 127, 37]
5.19[95, 63, 50, 43, 98, 359, 127, 37]
5.19[95, 63, 50, 43, 98, 359, 127, 37]
5.19[95, 63, 50, 43, 98, 359, 127, 37]
5.19[95, 63, 50, 43, 98, 359, 127, 37]
5.19[95, 63, 50, 43, 98, 359, 127, 37]
5.19[94, 68, 52, 46, 107, 392, 133, 39]
5.2[94, 68, 52, 46, 107, 392, 133, 39]
5.2[94, 68, 52, 46, 107, 392, 133, 39]
5.2[94, 68, 52, 46, 107, 392, 133, 39]
5.2[94, 68, 52, 46, 107, 392, 133, 39]
5.2[94, 68, 52, 46, 107, 392, 133, 39]
5.2[94, 68, 52, 46, 107, 392, 133, 39]
5.2[94, 68, 52, 46, 107, 392, 133, 39]
5.2[101, 74, 73, 47, 98, 395, 138, 37]
5.23[101, 74, 73, 47, 98, 395, 138, 37]
5.23[101, 74, 73, 47, 98, 395, 138, 37]
5.23[101, 74, 73, 47, 98, 395, 138, 37]
5.23[101, 74, 73, 47, 98, 395, 138, 37]
5.23[101, 74, 73, 47, 98, 395, 138, 37]
5.23[101, 74, 73, 47, 98, 395, 138, 37]
5.23[101, 74, 73, 47, 98, 395, 138, 37]
5.23[94, 75, 72, 44, 93, 390, 141, 41]
5.25[94, 75, 72, 44, 93, 390, 141, 41]
5.25[94, 75, 72, 44, 93, 390, 141, 41]
5.25[94, 75, 72, 44, 93, 390, 141, 41]
5.25[94, 75, 72, 44, 93, 390, 141, 41]
5.25[94, 75, 72, 44, 93, 390, 141, 41]
5.25[94, 75, 72, 44, 93, 390, 141, 41]
5.25[94, 75, 72, 44, 93, 390, 141, 41]
5.25[113, 74, 76, 41, 92, 388, 140, 48]
5.26[113, 74, 76, 41, 92, 388, 140, 48]
5.26[113, 74, 76, 41, 92, 388, 140, 48]
5.26[113, 74, 76, 41, 92, 388, 140, 48]
5.26[113, 74, 76, 41, 92, 388, 140, 48]
5.26[113, 74, 76, 41, 92, 388, 140, 48]
5.26[113, 74, 76, 41, 92, 388, 140, 48]
5.26[113, 74, 76, 41, 92, 388, 140, 48]
5.26[118, 74, 74, 41, 99, 386, 156, 47]
5.29[118, 74, 74, 41, 99, 386, 156, 47]
5.29[118, 74, 74, 41, 99, 386, 156, 47]
5.29[118, 74, 74, 41, 99, 386, 156, 47]
5.29[118, 74, 74, 41, 99, 386, 156, 47]
5.29[118, 74, 74, 41, 99, 386, 156, 47]
5.29[118, 74, 74, 41, 99, 386, 156, 47]
5.29[118, 74, 74, 41, 99, 386, 156, 47]
5.29[118, 76, 70, 42, 101, 413, 160, 47]
5.31[118, 76, 70, 42, 101, 413, 160, 47]
5.31[118, 76, 70, 42, 101, 413, 160, 47]
5.31[118, 76, 70, 42, 101, 413, 160, 47]
5.31[118, 76, 70, 42, 101, 413, 160, 47]
5.31[118, 76, 70, 42, 101, 413, 160, 47]
5.31[118, 76, 70, 42, 101, 413, 160, 47]
5.31[118, 76, 70, 42, 101, 413, 160, 47]
5.31[112, 80, 53, 40, 96, 375, 154, 47]
5.32[112, 80, 53, 40, 96, 375, 154, 47]
5.32[112, 80, 53, 40, 96, 375, 154, 47]
5.32[112, 80, 53, 40, 96, 375, 154, 47]
5.32[112, 80, 53, 40, 96, 375, 154, 47]
5.32[112, 80, 53, 40, 96, 375, 154, 47]
5.32[112, 80, 53, 40, 96, 375, 154, 47]
5.32[112, 80, 53, 40, 96, 375, 154, 47]
5.32[121, 72, 49, 41, 93, 352, 152, 43]
5.35[121, 72, 49, 41, 93, 352, 152, 43]
5.35[121, 72, 49, 41, 93, 352, 152, 43]
5.35[121, 72, 49, 41, 93, 352, 152, 43]
5.35[121, 72, 49, 41, 93, 352, 152, 43]
5.35[121, 72, 49, 41, 93, 352, 152, 43]
5.35[121, 72, 49, 41, 93, 352, 152, 43]
5.35[121, 72, 49, 41, 93, 352, 152, 43]
5.35[106, 73, 47, 38, 89, 337, 150, 40]
5.37[106, 73, 47, 38, 89, 337, 150, 40]
5.37[106, 73, 47, 38, 89, 337, 150, 40]
5.37[106, 73, 47, 38, 89, 337, 150, 40]
5.37[106, 73, 47, 38, 89, 337, 150, 40]
5.37[106, 73, 47, 38, 89, 337, 150, 40]
5.37[106, 73, 47, 38, 89, 337, 150, 40]
5.37[106, 73, 47, 38, 89, 337, 150, 40]
5.37[112, 80, 51, 36, 81, 326, 117, 46]
5.38[112, 80, 51, 36, 81, 326, 117, 46]
5.38[112, 80, 51, 36, 81, 326, 117, 46]
5.38[112, 80, 51, 36, 81, 326, 117, 46]
5.38[112, 80, 51, 36, 81, 326, 117, 46]
5.38[112, 80, 51, 36, 81, 326, 117, 46]
5.38[112, 80, 51, 36, 81, 326, 117, 46]
5.38[112, 80, 51, 36, 81, 326, 117, 46]
5.38[115, 75, 51, 33, 67, 235, 101, 48]
5.41[115, 75, 51, 33, 67, 235, 101, 48]
5.41[115, 75, 51, 33, 67, 235, 101, 48]
5.41[115, 75, 51, 33, 67, 235, 101, 48]
5.41[115, 75, 51, 33, 67, 235, 101, 48]
5.41[115, 75, 51, 33, 67, 235, 101, 48]
5.41[115, 75, 51, 33, 67, 235, 101, 48]
5.41[115, 75, 51, 33, 67, 235, 101, 48]
5.41[120, 62, 49, 33, 66, 243, 98, 46]
5.44[120, 62, 49, 33, 66, 243, 98, 46]
5.44[120, 62, 49, 33, 66, 243, 98, 46]
5.44[120, 62, 49, 33, 66, 243, 98, 46]
5.44[120, 62, 49, 33, 66, 243, 98, 46]
5.44[120, 62, 49, 33, 66, 243, 98, 46]
5.44[120, 62, 49, 33, 66, 243, 98, 46]
5.44[120, 62, 49, 33, 66, 243, 98, 46]
5.44[108, 61, 47, 33, 83, 335, 125, 48]
5.44[108, 61, 47, 33, 83, 335, 125, 48]
5.44[108, 61, 47, 33, 83, 335, 125, 48]
5.44[108, 61, 47, 33, 83, 335, 125, 48]
5.44[108, 61, 47, 33, 83, 335, 125, 48]
5.44[108, 61, 47, 33, 83, 335, 125, 48]
5.44[108, 61, 47, 33, 83, 335, 125, 48]
5.44[108, 61, 47, 33, 83, 335, 125, 48]
5.44[108, 68, 45, 34, 84, 350, 126, 45]
5.47[108, 68, 45, 34, 84, 350, 126, 45]
5.47[108, 68, 45, 34, 84, 350, 126, 45]
5.47[108, 68, 45, 34, 84, 350, 126, 45]
5.47[108, 68, 45, 34, 84, 350, 126, 45]
5.47[108, 68, 45, 34, 84, 350, 126, 45]
5.47[108, 68, 45, 34, 84, 350, 126, 45]
5.47[108, 68, 45, 34, 84, 350, 126, 45]
5.47[103, 65, 43, 34, 84, 330, 127, 38]
5.49[103, 65, 43, 34, 84, 330, 127, 38]
5.49[103, 65, 43, 34, 84, 330, 127, 38]
5.49[103, 65, 43, 34, 84, 330, 127, 38]
5.49[103, 65, 43, 34, 84, 330, 127, 38]
5.49[103, 65, 43, 34, 84, 330, 127, 38]
5.49[103, 65, 43, 34, 84, 330, 127, 38]
5.49[103, 65, 43, 34, 84, 330, 127, 38]
5.49[107, 68, 45, 34, 85, 338, 129, 36]
5.5[107, 68, 45, 34, 85, 338, 129, 36]
5.5[107, 68, 45, 34, 85, 338, 129, 36]
5.5[107, 68, 45, 34, 85, 338, 129, 36]
5.5[107, 68, 45, 34, 85, 338, 129, 36]
5.5[107, 68, 45, 34, 85, 338, 129, 36]
5.5[107, 68, 45, 34, 85, 338, 129, 36]
5.5[107, 68, 45, 34, 85, 338, 129, 36]
5.5[87, 65, 44, 36, 88, 333, 129, 38]
5.53[87, 65, 44, 36, 88, 333, 129, 38]
5.53[87, 65, 44, 36, 88, 333, 129, 38]
5.53[87, 65, 44, 36, 88, 333, 129, 38]
5.53[87, 65, 44, 36, 88, 333, 129, 38]
5.53[87, 65, 44, 36, 88, 333, 129, 38]
5.53[87, 65, 44, 36, 88, 333, 129, 38]
5.53[87, 65, 44, 36, 88, 333, 129, 38]
5.53[85, 66, 52, 38, 78, 303, 121, 39]
5.55[85, 66, 52, 38, 78, 303, 121, 39]
5.55[85, 66, 52, 38, 78, 303, 121, 39]
5.55[85, 66, 52, 38, 78, 303, 121, 39]
5.55[85, 66, 52, 38, 78, 303, 121, 39]
5.55[85, 66, 52, 38, 78, 303, 121, 39]
5.55[85, 66, 52, 38, 78, 303, 121, 39]
5.55[85, 66, 52, 38, 78, 303, 121, 39]
5.55[110, 69, 51, 39, 86, 321, 125, 38]
5.56[110, 69, 51, 39, 86, 321, 125, 38]
5.56[110, 69, 51, 39, 86, 321, 125, 38]
5.56[110, 69, 51, 39, 86, 321, 125, 38]
5.56[110, 69, 51, 39, 86, 321, 125, 38]
5.56[110, 69, 51, 39, 86, 321, 125, 38]
5.56[110, 69, 51, 39, 86, 321, 125, 38]
5.56[110, 69, 51, 39, 86, 321, 125, 38]
5.56[103, 69, 53, 40, 82, 308, 123, 35]
5.59[103, 69, 53, 40, 82, 308, 123, 35]
5.59[103, 69, 53, 40, 82, 308, 123, 35]
5.59[103, 69, 53, 40, 82, 308, 123, 35]
5.59[103, 69, 53, 40, 82, 308, 123, 35]
5.59[103, 69, 53, 40, 82, 308, 123, 35]
5.59[103, 69, 53, 40, 82, 308, 123, 35]
5.59[103, 69, 53, 40, 82, 308, 123, 35]
5.59[102, 67, 54, 40, 90, 341, 139, 34]
5.61[102, 67, 54, 40, 90, 341, 139, 34]
5.61[102, 67, 54, 40, 90, 341, 139, 34]
5.61[102, 67, 54, 40, 90, 341, 139, 34]
5.61[102, 67, 54, 40, 90, 341, 139, 34]
5.61[102, 67, 54, 40, 90, 341, 139, 34]
5.61[102, 67, 54, 40, 90, 341, 139, 34]
5.61[102, 67, 54, 40, 90, 341, 139, 34]
5.61[112, 75, 51, 36, 85, 344, 143, 32]
5.62[112, 75, 51, 36, 85, 344, 143, 32]
5.62[112, 75, 51, 36, 85, 344, 143, 32]
5.62[112, 75, 51, 36, 85, 344, 143, 32]
5.62[112, 75, 51, 36, 85, 344, 143, 32]
5.62[112, 75, 51, 36, 85, 344, 143, 32]
5.62[112, 75, 51, 36, 85, 344, 143, 32]
5.62[112, 75, 51, 36, 85, 344, 143, 32]
5.62[113, 80, 47, 35, 81, 308, 128, 32]
5.65[113, 80, 47, 35, 81, 308, 128, 32]
5.65[113, 80, 47, 35, 81, 308, 128, 32]
5.65[113, 80, 47, 35, 81, 308, 128, 32]
5.65[113, 80, 47, 35, 81, 308, 128, 32]
5.65[113, 80, 47, 35, 81, 308, 128, 32]
5.65[113, 80, 47, 35, 81, 308, 128, 32]
5.65[113, 80, 47, 35, 81, 308, 128, 32]
5.65[88, 72, 60, 34, 75, 287, 124, 32]
5.67[88, 72, 60, 34, 75, 287, 124, 32]
5.67[88, 72, 60, 34, 75, 287, 124, 32]
5.67[88, 72, 60, 34, 75, 287, 124, 32]
5.67[88, 72, 60, 34, 75, 287, 124, 32]
5.67[88, 72, 60, 34, 75, 287, 124, 32]
5.67[88, 72, 60, 34, 75, 287, 124, 32]
5.67[88, 72, 60, 34, 75, 287, 124, 32]
5.67[101, 70, 60, 39, 92, 352, 154, 36]
5.68[101, 70, 60, 39, 92, 352, 154, 36]
5.68[101, 70, 60, 39, 92, 352, 154, 36]
5.68[101, 70, 60, 39, 92, 352, 154, 36]
5.68[101, 70, 60, 39, 92, 352, 154, 36]
5.68[101, 70, 60, 39, 92, 352, 154, 36]
5.68[101, 70, 60, 39, 92, 352, 154, 36]
5.68[101, 70, 60, 39, 92, 352, 154, 36]
5.68[108, 82, 59, 41, 82, 304, 131, 38]
5.71[108, 82, 59, 41, 82, 304, 131, 38]
5.71[108, 82, 59, 41, 82, 304, 131, 38]
5.71[108, 82, 59, 41, 82, 304, 131, 38]
5.71[108, 82, 59, 41, 82, 304, 131, 38]
5.71[108, 82, 59, 41, 82, 304, 131, 38]
5.71[108, 82, 59, 41, 82, 304, 131, 38]
5.71[108, 82, 59, 41, 82, 304, 131, 38]
5.71[105, 76, 61, 44, 82, 310, 136, 37]
5.73[105, 76, 61, 44, 82, 310, 136, 37]
5.73[105, 76, 61, 44, 82, 310, 136, 37]
5.73[105, 76, 61, 44, 82, 310, 136, 37]
5.73[105, 76, 61, 44, 82, 310, 136, 37]
5.73[105, 76, 61, 44, 82, 310, 136, 37]
5.73[105, 76, 61, 44, 82, 310, 136, 37]
5.73[105, 76, 61, 44, 82, 310, 136, 37]
5.73[113, 70, 69, 43, 80, 301, 133, 35]
5.74[113, 70, 69, 43, 80, 301, 133, 35]
5.74[113, 70, 69, 43, 80, 301, 133, 35]
5.74[113, 70, 69, 43, 80, 301, 133, 35]
5.74[113, 70, 69, 43, 80, 301, 133, 35]
5.74[113, 70, 69, 43, 80, 301, 133, 35]
5.74[113, 70, 69, 43, 80, 301, 133, 35]
5.74[113, 70, 69, 43, 80, 301, 133, 35]
5.74[112, 76, 68, 46, 80, 314, 137, 35]
5.77[112, 76, 68, 46, 80, 314, 137, 35]
5.77[112, 76, 68, 46, 80, 314, 137, 35]
5.77[112, 76, 68, 46, 80, 314, 137, 35]
5.77[112, 76, 68, 46, 80, 314, 137, 35]
5.77[112, 76, 68, 46, 80, 314, 137, 35]
5.77[112, 76, 68, 46, 80, 314, 137, 35]
5.77[112, 76, 68, 46, 80, 314, 137, 35]
5.77[96, 76, 64, 42, 61, 265, 105, 33]
5.79[96, 76, 64, 42, 61, 265, 105, 33]
5.79[96, 76, 64, 42, 61, 265, 105, 33]
5.79[96, 76, 64, 42, 61, 265, 105, 33]
5.79[96, 76, 64, 42, 61, 265, 105, 33]
5.79[96, 76, 64, 42, 61, 265, 105, 33]
5.79[96, 76, 64, 42, 61, 265, 105, 33]
5.79[96, 76, 64, 42, 61, 265, 105, 33]
5.79[101, 69, 64, 42, 67, 328, 121, 33]
5.8[101, 69, 64, 42, 67, 328, 121, 33]
5.8[101, 69, 64, 42, 67, 328, 121, 33]
5.8[101, 69, 64, 42, 67, 328, 121, 33]
5.8[101, 69, 64, 42, 67, 328, 121, 33]
5.8[101, 69, 64, 42, 67, 328, 121, 33]
5.8[101, 69, 64, 42, 67, 328, 121, 33]
5.8[101, 69, 64, 42, 67, 328, 121, 33]
5.8[92, 68, 66, 40, 67, 310, 110, 32]
5.83[92, 68, 66, 40, 67, 310, 110, 32]
5.83[92, 68, 66, 40, 67, 310, 110, 32]
5.83[92, 68, 66, 40, 67, 310, 110, 32]
5.83[92, 68, 66, 40, 67, 310, 110, 32]
5.83[92, 68, 66, 40, 67, 310, 110, 32]
5.83[92, 68, 66, 40, 67, 310, 110, 32]
5.83[92, 68, 66, 40, 67, 310, 110, 32]
5.83[92, 74, 55, 41, 72, 326, 115, 33]
5.85[92, 74, 55, 41, 72, 326, 115, 33]
5.85[92, 74, 55, 41, 72, 326, 115, 33]
5.85[92, 74, 55, 41, 72, 326, 115, 33]
5.85[92, 74, 55, 41, 72, 326, 115, 33]
5.85[92, 74, 55, 41, 72, 326, 115, 33]
5.85[92, 74, 55, 41, 72, 326, 115, 33]
5.85[92, 74, 55, 41, 72, 326, 115, 33]
5.85[108, 65, 41, 43, 77, 329, 110, 37]
5.86[108, 65, 41, 43, 77, 329, 110, 37]
5.86[108, 65, 41, 43, 77, 329, 110, 37]
5.86[108, 65, 41, 43, 77, 329, 110, 37]
5.86[108, 65, 41, 43, 77, 329, 110, 37]
5.86[108, 65, 41, 43, 77, 329, 110, 37]
5.86[108, 65, 41, 43, 77, 329, 110, 37]
5.86[108, 65, 41, 43, 77, 329, 110, 37]
5.86[105, 64, 46, 43, 76, 306, 109, 36]
5.89[105, 64, 46, 43, 76, 306, 109, 36]
5.89[105, 64, 46, 43, 76, 306, 109, 36]
5.89[105, 64, 46, 43, 76, 306, 109, 36]
5.89[105, 64, 46, 43, 76, 306, 109, 36]
5.89[105, 64, 46, 43, 76, 306, 109, 36]
5.89[105, 64, 46, 43, 76, 306, 109, 36]
5.89[105, 64, 46, 43, 76, 306, 109, 36]
5.89[91, 64, 44, 42, 78, 285, 104, 39]
5.91[91, 64, 44, 42, 78, 285, 104, 39]
5.91[91, 64, 44, 42, 78, 285, 104, 39]
5.91[91, 64, 44, 42, 78, 285, 104, 39]
5.91[91, 64, 44, 42, 78, 285, 104, 39]
5.91[91, 64, 44, 42, 78, 285, 104, 39]
5.91[91, 64, 44, 42, 78, 285, 104, 39]
5.91[91, 64, 44, 42, 78, 285, 104, 39]
5.91[110, 73, 44, 43, 80, 299, 107, 39]
5.92[110, 73, 44, 43, 80, 299, 107, 39]
5.92[110, 73, 44, 43, 80, 299, 107, 39]
5.92[110, 73, 44, 43, 80, 299, 107, 39]
5.92[110, 73, 44, 43, 80, 299, 107, 39]
5.92[110, 73, 44, 43, 80, 299, 107, 39]
5.92[110, 73, 44, 43, 80, 299, 107, 39]
5.92[110, 73, 44, 43, 80, 299, 107, 39]
5.92[113, 65, 45, 42, 80, 303, 107, 38]
5.95[113, 65, 45, 42, 80, 303, 107, 38]
5.95[113, 65, 45, 42, 80, 303, 107, 38]
5.95[113, 65, 45, 42, 80, 303, 107, 38]
5.95[113, 65, 45, 42, 80, 303, 107, 38]
5.95[113, 65, 45, 42, 80, 303, 107, 38]
5.95[113, 65, 45, 42, 80, 303, 107, 38]
5.95[113, 65, 45, 42, 80, 303, 107, 38]
5.95[98, 68, 50, 37, 76, 289, 113, 36]
5.97[98, 68, 50, 37, 76, 289, 113, 36]
5.97[98, 68, 50, 37, 76, 289, 113, 36]
5.97[98, 68, 50, 37, 76, 289, 113, 36]
5.97[98, 68, 50, 37, 76, 289, 113, 36]
5.97[98, 68, 50, 37, 76, 289, 113, 36]
5.97[98, 68, 50, 37, 76, 289, 113, 36]
5.97[98, 68, 50, 37, 76, 289, 113, 36]
5.97[101, 79, 45, 35, 82, 336, 130, 36]
5.99[101, 79, 45, 35, 82, 336, 130, 36]
5.99[101, 79, 45, 35, 82, 336, 130, 36]
5.99[101, 79, 45, 35, 82, 336, 130, 36]
5.99[101, 79, 45, 35, 82, 336, 130, 36]
5.99[101, 79, 45, 35, 82, 336, 130, 36]
5.99[101, 79, 45, 35, 82, 336, 130, 36]
5.99[101, 79, 45, 35, 82, 336, 130, 36]
5.99[112, 80, 52, 37, 84, 348, 135, 35]
6.01[112, 80, 52, 37, 84, 348, 135, 35]
6.01[112, 80, 52, 37, 84, 348, 135, 35]
6.01[112, 80, 52, 37, 84, 348, 135, 35]
6.01[112, 80, 52, 37, 84, 348, 135, 35]
6.01[112, 80, 52, 37, 84, 348, 135, 35]
6.01[112, 80, 52, 37, 84, 348, 135, 35]
6.01[112, 80, 52, 37, 84, 348, 135, 35]
6.01[101, 72, 50, 42, 96, 424, 162, 39]
6.03[101, 72, 50, 42, 96, 424, 162, 39]
6.03[101, 72, 50, 42, 96, 424, 162, 39]
6.03[101, 72, 50, 42, 96, 424, 162, 39]
6.03[101, 72, 50, 42, 96, 424, 162, 39]
6.03[101, 72, 50, 42, 96, 424, 162, 39]
6.03[101, 72, 50, 42, 96, 424, 162, 39]
6.03[101, 72, 50, 42, 96, 424, 162, 39]
6.03[93, 75, 55, 46, 100, 433, 166, 43]
6.05[93, 75, 55, 46, 100, 433, 166, 43]
6.05[93, 75, 55, 46, 100, 433, 166, 43]
6.05[93, 75, 55, 46, 100, 433, 166, 43]
6.05[93, 75, 55, 46, 100, 433, 166, 43]
6.05[93, 75, 55, 46, 100, 433, 166, 43]
6.05[93, 75, 55, 46, 100, 433, 166, 43]
6.05[93, 75, 55, 46, 100, 433, 166, 43]
6.05[105, 80, 57, 48, 103, 431, 164, 44]
6.07[105, 80, 57, 48, 103, 431, 164, 44]
6.07[105, 80, 57, 48, 103, 431, 164, 44]
6.07[105, 80, 57, 48, 103, 431, 164, 44]
6.07[105, 80, 57, 48, 103, 431, 164, 44]
6.07[105, 80, 57, 48, 103, 431, 164, 44]
6.07[105, 80, 57, 48, 103, 431, 164, 44]
6.07[105, 80, 57, 48, 103, 431, 164, 44]
6.07[102, 70, 62, 53, 110, 453, 162, 44]
6.09[102, 70, 62, 53, 110, 453, 162, 44]
6.09[102, 70, 62, 53, 110, 453, 162, 44]
6.09[102, 70, 62, 53, 110, 453, 162, 44]
6.09[102, 70, 62, 53, 110, 453, 162, 44]
6.09[102, 70, 62, 53, 110, 453, 162, 44]
6.09[102, 70, 62, 53, 110, 453, 162, 44]
6.09[102, 70, 62, 53, 110, 453, 162, 44]
6.09[101, 74, 58, 52, 108, 466, 158, 47]
6.11[101, 74, 58, 52, 108, 466, 158, 47]
6.11[101, 74, 58, 52, 108, 466, 158, 47]
6.11[101, 74, 58, 52, 108, 466, 158, 47]
6.11[101, 74, 58, 52, 108, 466, 158, 47]
6.11[101, 74, 58, 52, 108, 466, 158, 47]
6.11[101, 74, 58, 52, 108, 466, 158, 47]
6.11[101, 74, 58, 52, 108, 466, 158, 47]
6.11[115, 75, 58, 49, 97, 403, 137, 47]
6.13[115, 75, 58, 49, 97, 403, 137, 47]
6.13[115, 75, 58, 49, 97, 403, 137, 47]
6.13[115, 75, 58, 49, 97, 403, 137, 47]
6.13[115, 75, 58, 49, 97, 403, 137, 47]
6.13[115, 75, 58, 49, 97, 403, 137, 47]
6.13[115, 75, 58, 49, 97, 403, 137, 47]
6.13[115, 75, 58, 49, 97, 403, 137, 47]
6.13[112, 73, 55, 45, 91, 384, 129, 45]
6.15[112, 73, 55, 45, 91, 384, 129, 45]
6.15[112, 73, 55, 45, 91, 384, 129, 45]
6.15[112, 73, 55, 45, 91, 384, 129, 45]
6.15[112, 73, 55, 45, 91, 384, 129, 45]
6.15[112, 73, 55, 45, 91, 384, 129, 45]
6.15[112, 73, 55, 45, 91, 384, 129, 45]
6.15[112, 73, 55, 45, 91, 384, 129, 45]
6.15[101, 70, 52, 41, 86, 390, 127, 46]
6.17[101, 70, 52, 41, 86, 390, 127, 46]
6.17[101, 70, 52, 41, 86, 390, 127, 46]
6.17[101, 70, 52, 41, 86, 390, 127, 46]
6.17[101, 70, 52, 41, 86, 390, 127, 46]
6.17[101, 70, 52, 41, 86, 390, 127, 46]
6.17[101, 70, 52, 41, 86, 390, 127, 46]
6.17[101, 70, 52, 41, 86, 390, 127, 46]
6.17[106, 75, 46, 37, 78, 340, 113, 45]
6.19[106, 75, 46, 37, 78, 340, 113, 45]
6.19[106, 75, 46, 37, 78, 340, 113, 45]
6.19[106, 75, 46, 37, 78, 340, 113, 45]
6.19[106, 75, 46, 37, 78, 340, 113, 45]
6.19[106, 75, 46, 37, 78, 340, 113, 45]
6.19[106, 75, 46, 37, 78, 340, 113, 45]
6.19[106, 75, 46, 37, 78, 340, 113, 45]
6.19[89, 65, 48, 37, 76, 304, 118, 38]
6.21[89, 65, 48, 37, 76, 304, 118, 38]
6.21[89, 65, 48, 37, 76, 304, 118, 38]
6.21[89, 65, 48, 37, 76, 304, 118, 38]
6.21[89, 65, 48, 37, 76, 304, 118, 38]
6.21[89, 65, 48, 37, 76, 304, 118, 38]
6.21[89, 65, 48, 37, 76, 304, 118, 38]
6.21[89, 65, 48, 37, 76, 304, 118, 38]
6.21[67, 63, 49, 38, 89, 312, 114, 36]
6.23[67, 63, 49, 38, 89, 312, 114, 36]
6.23[67, 63, 49, 38, 89, 312, 114, 36]
6.23[67, 63, 49, 38, 89, 312, 114, 36]
6.23[67, 63, 49, 38, 89, 312, 114, 36]
6.23[67, 63, 49, 38, 89, 312, 114, 36]
6.23[67, 63, 49, 38, 89, 312, 114, 36]
6.23[67, 63, 49, 38, 89, 312, 114, 36]
6.23[79, 63, 50, 39, 88, 313, 113, 34]
6.25[79, 63, 50, 39, 88, 313, 113, 34]
6.25[79, 63, 50, 39, 88, 313, 113, 34]
6.25[79, 63, 50, 39, 88, 313, 113, 34]
6.25[79, 63, 50, 39, 88, 313, 113, 34]
6.25[79, 63, 50, 39, 88, 313, 113, 34]
6.25[79, 63, 50, 39, 88, 313, 113, 34]
6.25[79, 63, 50, 39, 88, 313, 113, 34]
6.25[79, 67, 48, 44, 92, 322, 134, 33]
6.27[79, 67, 48, 44, 92, 322, 134, 33]
6.27[79, 67, 48, 44, 92, 322, 134, 33]
6.27[79, 67, 48, 44, 92, 322, 134, 33]
6.27[79, 67, 48, 44, 92, 322, 134, 33]
6.27[79, 67, 48, 44, 92, 322, 134, 33]
6.27[79, 67, 48, 44, 92, 322, 134, 33]
6.27[79, 67, 48, 44, 92, 322, 134, 33]
6.27[71, 60, 49, 42, 83, 296, 133, 35]
6.29[71, 60, 49, 42, 83, 296, 133, 35]
6.29[71, 60, 49, 42, 83, 296, 133, 35]
6.29[71, 60, 49, 42, 83, 296, 133, 35]
6.29[71, 60, 49, 42, 83, 296, 133, 35]
6.29[71, 60, 49, 42, 83, 296, 133, 35]
6.29[71, 60, 49, 42, 83, 296, 133, 35]
6.29[71, 60, 49, 42, 83, 296, 133, 35]
6.29[85, 63, 49, 39, 77, 255, 116, 33]
6.31[85, 63, 49, 39, 77, 255, 116, 33]
6.31[85, 63, 49, 39, 77, 255, 116, 33]
6.31[85, 63, 49, 39, 77, 255, 116, 33]
6.31[85, 63, 49, 39, 77, 255, 116, 33]
6.31[85, 63, 49, 39, 77, 255, 116, 33]
6.31[85, 63, 49, 39, 77, 255, 116, 33]
6.31[85, 63, 49, 39, 77, 255, 116, 33]
6.31[87, 66, 49, 36, 59, 224, 107, 29]
6.33[87, 66, 49, 36, 59, 224, 107, 29]
6.33[87, 66, 49, 36, 59, 224, 107, 29]
6.33[87, 66, 49, 36, 59, 224, 107, 29]
6.33[87, 66, 49, 36, 59, 224, 107, 29]
6.33[87, 66, 49, 36, 59, 224, 107, 29]
6.33[87, 66, 49, 36, 59, 224, 107, 29]
6.33[87, 66, 49, 36, 59, 224, 107, 29]
6.33[72, 68, 46, 34, 58, 200, 101, 27]
6.35[72, 68, 46, 34, 58, 200, 101, 27]
6.35[72, 68, 46, 34, 58, 200, 101, 27]
6.35[72, 68, 46, 34, 58, 200, 101, 27]
6.35[72, 68, 46, 34, 58, 200, 101, 27]
6.35[72, 68, 46, 34, 58, 200, 101, 27]
6.35[72, 68, 46, 34, 58, 200, 101, 27]
6.35[72, 68, 46, 34, 58, 200, 101, 27]
6.35[71, 59, 44, 31, 51, 158, 73, 23]
6.37[71, 59, 44, 31, 51, 158, 73, 23]
6.37[71, 59, 44, 31, 51, 158, 73, 23]
6.37[71, 59, 44, 31, 51, 158, 73, 23]
6.37[71, 59, 44, 31, 51, 158, 73, 23]
6.37[71, 59, 44, 31, 51, 158, 73, 23]
6.37[71, 59, 44, 31, 51, 158, 73, 23]
6.37[71, 59, 44, 31, 51, 158, 73, 23]
6.37[71, 56, 42, 31, 51, 152, 69, 21]
6.39[71, 56, 42, 31, 51, 152, 69, 21]
6.39[71, 56, 42, 31, 51, 152, 69, 21]
6.39[71, 56, 42, 31, 51, 152, 69, 21]
6.39[71, 56, 42, 31, 51, 152, 69, 21]
6.39[71, 56, 42, 31, 51, 152, 69, 21]
6.39[71, 56, 42, 31, 51, 152, 69, 21]
6.39[71, 56, 42, 31, 51, 152, 69, 21]
6.39[55, 51, 36, 33, 53, 165, 69, 21]
6.41[55, 51, 36, 33, 53, 165, 69, 21]
6.41[55, 51, 36, 33, 53, 165, 69, 21]
6.41[55, 51, 36, 33, 53, 165, 69, 21]
6.41[55, 51, 36, 33, 53, 165, 69, 21]
6.41[55, 51, 36, 33, 53, 165, 69, 21]
6.41[55, 51, 36, 33, 53, 165, 69, 21]
6.41[55, 51, 36, 33, 53, 165, 69, 21]
6.41[38, 45, 31, 32, 49, 153, 68, 21]
6.43[38, 45, 31, 32, 49, 153, 68, 21]
6.43[38, 45, 31, 32, 49, 153, 68, 21]
6.43[38, 45, 31, 32, 49, 153, 68, 21]
6.43[38, 45, 31, 32, 49, 153, 68, 21]
6.43[38, 45, 31, 32, 49, 153, 68, 21]
6.43[38, 45, 31, 32, 49, 153, 68, 21]
6.43[38, 45, 31, 32, 49, 153, 68, 21]
6.43[38, 36, 32, 32, 48, 145, 65, 22]
6.45[38, 36, 32, 32, 48, 145, 65, 22]
6.45[38, 36, 32, 32, 48, 145, 65, 22]
6.45[38, 36, 32, 32, 48, 145, 65, 22]
6.45[38, 36, 32, 32, 48, 145, 65, 22]
6.45[38, 36, 32, 32, 48, 145, 65, 22]
6.45[38, 36, 32, 32, 48, 145, 65, 22]
6.45[38, 36, 32, 32, 48, 145, 65, 22]
6.45[32, 33, 32, 30, 38, 118, 45, 21]
6.47[32, 33, 32, 30, 38, 118, 45, 21]
6.47[32, 33, 32, 30, 38, 118, 45, 21]
6.47[32, 33, 32, 30, 38, 118, 45, 21]
6.47[32, 33, 32, 30, 38, 118, 45, 21]
6.47[32, 33, 32, 30, 38, 118, 45, 21]
6.47[32, 33, 32, 30, 38, 118, 45, 21]
6.47[32, 33, 32, 30, 38, 118, 45, 21]
6.47[30, 33, 31, 29, 37, 124, 44, 23]
6.49[30, 33, 31, 29, 37, 124, 44, 23]
6.49[30, 33, 31, 29, 37, 124, 44, 23]
6.49[30, 33, 31, 29, 37, 124, 44, 23]
6.49[30, 33, 31, 29, 37, 124, 44, 23]
6.49[30, 33, 31, 29, 37, 124, 44, 23]
6.49[30, 33, 31, 29, 37, 124, 44, 23]
6.49[30, 33, 31, 29, 37, 124, 44, 23]
6.49[32, 38, 35, 60, 53, 100, 40, 24]
6.51[32, 38, 35, 60, 53, 100, 40, 24]
6.51[32, 38, 35, 60, 53, 100, 40, 24]
6.51[32, 38, 35, 60, 53, 100, 40, 24]
6.51[32, 38, 35, 60, 53, 100, 40, 24]
6.51[32, 38, 35, 60, 53, 100, 40, 24]
6.51[32, 38, 35, 60, 53, 100, 40, 24]
6.51[32, 38, 35, 60, 53, 100, 40, 24]
6.51[59, 36, 40, 118, 87, 91, 35, 26]
6.53[59, 36, 40, 118, 87, 91, 35, 26]
6.53[59, 36, 40, 118, 87, 91, 35, 26]
6.53[59, 36, 40, 118, 87, 91, 35, 26]
6.53[59, 36, 40, 118, 87, 91, 35, 26]
6.53[59, 36, 40, 118, 87, 91, 35, 26]
6.53[59, 36, 40, 118, 87, 91, 35, 26]
6.53[59, 36, 40, 118, 87, 91, 35, 26]
6.53[61, 37, 41, 196, 122, 88, 36, 27]
6.55[61, 37, 41, 196, 122, 88, 36, 27]
6.55[61, 37, 41, 196, 122, 88, 36, 27]
6.55[61, 37, 41, 196, 122, 88, 36, 27]
6.55[61, 37, 41, 196, 122, 88, 36, 27]
6.55[61, 37, 41, 196, 122, 88, 36, 27]
6.55[61, 37, 41, 196, 122, 88, 36, 27]
6.55[61, 37, 41, 196, 122, 88, 36, 27]
6.55[62, 41, 64, 201, 127, 88, 36, 27]
6.57[62, 41, 64, 201, 127, 88, 36, 27]
6.57[62, 41, 64, 201, 127, 88, 36, 27]
6.57[62, 41, 64, 201, 127, 88, 36, 27]
6.57[62, 41, 64, 201, 127, 88, 36, 27]
6.57[62, 41, 64, 201, 127, 88, 36, 27]
6.57[62, 41, 64, 201, 127, 88, 36, 27]
6.57[62, 41, 64, 201, 127, 88, 36, 27]
6.57[63, 41, 76, 205, 130, 70, 33, 25]
6.59[63, 41, 76, 205, 130, 70, 33, 25]
6.59[63, 41, 76, 205, 130, 70, 33, 25]
6.59[63, 41, 76, 205, 130, 70, 33, 25]
6.59[63, 41, 76, 205, 130, 70, 33, 25]
6.59[63, 41, 76, 205, 130, 70, 33, 25]
6.59[63, 41, 76, 205, 130, 70, 33, 25]
6.59[63, 41, 76, 205, 130, 70, 33, 25]
6.59[62, 51, 200, 240, 131, 59, 30, 24]
6.61[62, 51, 200, 240, 131, 59, 30, 24]
6.61[62, 51, 200, 240, 131, 59, 30, 24]
6.61[62, 51, 200, 240, 131, 59, 30, 24]
6.61[62, 51, 200, 240, 131, 59, 30, 24]
6.61[62, 51, 200, 240, 131, 59, 30, 24]
6.61[62, 51, 200, 240, 131, 59, 30, 24]
6.61[62, 51, 200, 240, 131, 59, 30, 24]
6.61[35, 57, 222, 262, 138, 61, 30, 23]
6.63[35, 57, 222, 262, 138, 61, 30, 23]
6.63[35, 57, 222, 262, 138, 61, 30, 23]
6.63[35, 57, 222, 262, 138, 61, 30, 23]
6.63[35, 57, 222, 262, 138, 61, 30, 23]
6.63[35, 57, 222, 262, 138, 61, 30, 23]
6.63[35, 57, 222, 262, 138, 61, 30, 23]
6.63[35, 57, 222, 262, 138, 61, 30, 23]
6.63[34, 56, 225, 230, 118, 57, 30, 23]
6.65[34, 56, 225, 230, 118, 57, 30, 23]
6.65[34, 56, 225, 230, 118, 57, 30, 23]
6.65[34, 56, 225, 230, 118, 57, 30, 23]
6.65[34, 56, 225, 230, 118, 57, 30, 23]
6.65[34, 56, 225, 230, 118, 57, 30, 23]
6.65[34, 56, 225, 230, 118, 57, 30, 23]
6.65[34, 56, 225, 230, 118, 57, 30, 23]
6.65[33, 71, 235, 242, 117, 53, 30, 24]
6.67[33, 71, 235, 242, 117, 53, 30, 24]
6.67[33, 71, 235, 242, 117, 53, 30, 24]
6.67[33, 71, 235, 242, 117, 53, 30, 24]
6.67[33, 71, 235, 242, 117, 53, 30, 24]
6.67[33, 71, 235, 242, 117, 53, 30, 24]
6.67[33, 71, 235, 242, 117, 53, 30, 24]
6.67[33, 71, 235, 242, 117, 53, 30, 24]
6.67[39, 96, 253, 289, 125, 55, 31, 27]
6.69[39, 96, 253, 289, 125, 55, 31, 27]
6.69[39, 96, 253, 289, 125, 55, 31, 27]
6.69[39, 96, 253, 289, 125, 55, 31, 27]
6.69[39, 96, 253, 289, 125, 55, 31, 27]
6.69[39, 96, 253, 289, 125, 55, 31, 27]
6.69[39, 96, 253, 289, 125, 55, 31, 27]
6.69[39, 96, 253, 289, 125, 55, 31, 27]
6.69[39, 92, 206, 282, 127, 53, 31, 27]
6.71[39, 92, 206, 282, 127, 53, 31, 27]
6.71[39, 92, 206, 282, 127, 53, 31, 27]
6.71[39, 92, 206, 282, 127, 53, 31, 27]
6.71[39, 92, 206, 282, 127, 53, 31, 27]
6.71[39, 92, 206, 282, 127, 53, 31, 27]
6.71[39, 92, 206, 282, 127, 53, 31, 27]
6.71[39, 92, 206, 282, 127, 53, 31, 27]
6.71[40, 93, 226, 267, 110, 43, 30, 27]
6.73[40, 93, 226, 267, 110, 43, 30, 27]
6.73[40, 93, 226, 267, 110, 43, 30, 27]
6.73[40, 93, 226, 267, 110, 43, 30, 27]
6.73[40, 93, 226, 267, 110, 43, 30, 27]
6.73[40, 93, 226, 267, 110, 43, 30, 27]
6.73[40, 93, 226, 267, 110, 43, 30, 27]
6.73[40, 93, 226, 267, 110, 43, 30, 27]
6.73[39, 95, 248, 265, 103, 39, 28, 25]
6.75[39, 95, 248, 265, 103, 39, 28, 25]
6.75[39, 95, 248, 265, 103, 39, 28, 25]
6.75[39, 95, 248, 265, 103, 39, 28, 25]
6.75[39, 95, 248, 265, 103, 39, 28, 25]
6.75[39, 95, 248, 265, 103, 39, 28, 25]
6.75[39, 95, 248, 265, 103, 39, 28, 25]
6.75[39, 95, 248, 265, 103, 39, 28, 25]
6.75[39, 93, 253, 297, 110, 41, 30, 25]
6.77[39, 93, 253, 297, 110, 41, 30, 25]
6.77[39, 93, 253, 297, 110, 41, 30, 25]
6.77[39, 93, 253, 297, 110, 41, 30, 25]
6.77[39, 93, 253, 297, 110, 41, 30, 25]
6.77[39, 93, 253, 297, 110, 41, 30, 25]
6.77[39, 93, 253, 297, 110, 41, 30, 25]
6.77[39, 93, 253, 297, 110, 41, 30, 25]
6.77[34, 88, 285, 315, 115, 41, 28, 23]
6.79[34, 88, 285, 315, 115, 41, 28, 23]
6.79[34, 88, 285, 315, 115, 41, 28, 23]
6.79[34, 88, 285, 315, 115, 41, 28, 23]
6.79[34, 88, 285, 315, 115, 41, 28, 23]
6.79[34, 88, 285, 315, 115, 41, 28, 23]
6.79[34, 88, 285, 315, 115, 41, 28, 23]
6.79[34, 88, 285, 315, 115, 41, 28, 23]
6.79[32, 106, 311, 316, 111, 44, 28, 24]
6.81[32, 106, 311, 316, 111, 44, 28, 24]
6.81[32, 106, 311, 316, 111, 44, 28, 24]
6.81[32, 106, 311, 316, 111, 44, 28, 24]
6.81[32, 106, 311, 316, 111, 44, 28, 24]
6.81[32, 106, 311, 316, 111, 44, 28, 24]
6.81[32, 106, 311, 316, 111, 44, 28, 24]
6.81[32, 106, 311, 316, 111, 44, 28, 24]
6.81[41, 122, 304, 306, 100, 42, 27, 25]
6.84[41, 122, 304, 306, 100, 42, 27, 25]
6.84[41, 122, 304, 306, 100, 42, 27, 25]
6.84[41, 122, 304, 306, 100, 42, 27, 25]
6.84[41, 122, 304, 306, 100, 42, 27, 25]
6.84[41, 122, 304, 306, 100, 42, 27, 25]
6.84[41, 122, 304, 306, 100, 42, 27, 25]
6.84[41, 122, 304, 306, 100, 42, 27, 25]
6.84[47, 141, 298, 307, 101, 40, 28, 25]
6.85[47, 141, 298, 307, 101, 40, 28, 25]
6.85[47, 141, 298, 307, 101, 40, 28, 25]
6.85[47, 141, 298, 307, 101, 40, 28, 25]
6.85[47, 141, 298, 307, 101, 40, 28, 25]
6.85[47, 141, 298, 307, 101, 40, 28, 25]
6.85[47, 141, 298, 307, 101, 40, 28, 25]
6.85[47, 141, 298, 307, 101, 40, 28, 25]
6.85[46, 142, 332, 280, 92, 38, 27, 24]
6.87[46, 142, 332, 280, 92, 38, 27, 24]
6.87[46, 142, 332, 280, 92, 38, 27, 24]
6.87[46, 142, 332, 280, 92, 38, 27, 24]
6.87[46, 142, 332, 280, 92, 38, 27, 24]
6.87[46, 142, 332, 280, 92, 38, 27, 24]
6.87[46, 142, 332, 280, 92, 38, 27, 24]
6.87[46, 142, 332, 280, 92, 38, 27, 24]
6.87[47, 144, 348, 256, 72, 34, 27, 25]
6.89[47, 144, 348, 256, 72, 34, 27, 25]
6.89[47, 144, 348, 256, 72, 34, 27, 25]
6.89[47, 144, 348, 256, 72, 34, 27, 25]
6.89[47, 144, 348, 256, 72, 34, 27, 25]
6.89[47, 144, 348, 256, 72, 34, 27, 25]
6.89[47, 144, 348, 256, 72, 34, 27, 25]
6.89[47, 144, 348, 256, 72, 34, 27, 25]
6.89[53, 156, 404, 291, 81, 34, 28, 25]
6.91[53, 156, 404, 291, 81, 34, 28, 25]
6.91[53, 156, 404, 291, 81, 34, 28, 25]
6.91[53, 156, 404, 291, 81, 34, 28, 25]
6.91[53, 156, 404, 291, 81, 34, 28, 25]
6.91[53, 156, 404, 291, 81, 34, 28, 25]
6.91[53, 156, 404, 291, 81, 34, 28, 25]
6.91[53, 156, 404, 291, 81, 34, 28, 25]
6.91[50, 158, 419, 293, 84, 35, 28, 24]
6.93[50, 158, 419, 293, 84, 35, 28, 24]
6.93[50, 158, 419, 293, 84, 35, 28, 24]
6.93[50, 158, 419, 293, 84, 35, 28, 24]
6.93[50, 158, 419, 293, 84, 35, 28, 24]
6.93[50, 158, 419, 293, 84, 35, 28, 24]
6.93[50, 158, 419, 293, 84, 35, 28, 24]
6.93[50, 158, 419, 293, 84, 35, 28, 24]
6.93[49, 155, 415, 316, 84, 35, 26, 24]
6.95[49, 155, 415, 316, 84, 35, 26, 24]
6.95[49, 155, 415, 316, 84, 35, 26, 24]
6.95[49, 155, 415, 316, 84, 35, 26, 24]
6.95[49, 155, 415, 316, 84, 35, 26, 24]
6.95[49, 155, 415, 316, 84, 35, 26, 24]
6.95[49, 155, 415, 316, 84, 35, 26, 24]
6.95[49, 155, 415, 316, 84, 35, 26, 24]
6.95[47, 167, 498, 353, 92, 37, 26, 24]
6.97[47, 167, 498, 353, 92, 37, 26, 24]
6.97[47, 167, 498, 353, 92, 37, 26, 24]
6.97[47, 167, 498, 353, 92, 37, 26, 24]
6.97[47, 167, 498, 353, 92, 37, 26, 24]
6.97[47, 167, 498, 353, 92, 37, 26, 24]
6.97[47, 167, 498, 353, 92, 37, 26, 24]
6.97[47, 167, 498, 353, 92, 37, 26, 24]
6.97[46, 181, 532, 331, 101, 41, 28, 23]
6.99[46, 181, 532, 331, 101, 41, 28, 23]
6.99[46, 181, 532, 331, 101, 41, 28, 23]
6.99[46, 181, 532, 331, 101, 41, 28, 23]
6.99[46, 181, 532, 331, 101, 41, 28, 23]
6.99[46, 181, 532, 331, 101, 41, 28, 23]
6.99[46, 181, 532, 331, 101, 41, 28, 23]
6.99[46, 181, 532, 331, 101, 41, 28, 23]
6.99[46, 171, 494, 300, 90, 37, 26, 21]
7.01[46, 171, 494, 300, 90, 37, 26, 21]
7.01[46, 171, 494, 300, 90, 37, 26, 21]
7.01[46, 171, 494, 300, 90, 37, 26, 21]
7.01[46, 171, 494, 300, 90, 37, 26, 21]
7.01[46, 171, 494, 300, 90, 37, 26, 21]
7.01[46, 171, 494, 300, 90, 37, 26, 21]
7.01[46, 171, 494, 300, 90, 37, 26, 21]
7.01[52, 185, 531, 326, 90, 37, 26, 21]
7.03[52, 185, 531, 326, 90, 37, 26, 21]
7.03[52, 185, 531, 326, 90, 37, 26, 21]
7.03[52, 185, 531, 326, 90, 37, 26, 21]
7.03[52, 185, 531, 326, 90, 37, 26, 21]
7.03[52, 185, 531, 326, 90, 37, 26, 21]
7.03[52, 185, 531, 326, 90, 37, 26, 21]
7.03[52, 185, 531, 326, 90, 37, 26, 21]
7.03[50, 188, 541, 298, 87, 39, 28, 23]
7.05[50, 188, 541, 298, 87, 39, 28, 23]
7.05[50, 188, 541, 298, 87, 39, 28, 23]
7.05[50, 188, 541, 298, 87, 39, 28, 23]
7.05[50, 188, 541, 298, 87, 39, 28, 23]
7.05[50, 188, 541, 298, 87, 39, 28, 23]
7.05[50, 188, 541, 298, 87, 39, 28, 23]
7.05[50, 188, 541, 298, 87, 39, 28, 23]
7.05[55, 178, 438, 254, 81, 38, 28, 23]
7.07[55, 178, 438, 254, 81, 38, 28, 23]
7.07[55, 178, 438, 254, 81, 38, 28, 23]
7.07[55, 178, 438, 254, 81, 38, 28, 23]
7.07[55, 178, 438, 254, 81, 38, 28, 23]
7.07[55, 178, 438, 254, 81, 38, 28, 23]
7.07[55, 178, 438, 254, 81, 38, 28, 23]
7.07[55, 178, 438, 254, 81, 38, 28, 23]
7.07[59, 180, 364, 246, 76, 36, 25, 22]
7.09[59, 180, 364, 246, 76, 36, 25, 22]
7.09[59, 180, 364, 246, 76, 36, 25, 22]
7.09[59, 180, 364, 246, 76, 36, 25, 22]
7.09[59, 180, 364, 246, 76, 36, 25, 22]
7.09[59, 180, 364, 246, 76, 36, 25, 22]
7.09[59, 180, 364, 246, 76, 36, 25, 22]
7.09[59, 180, 364, 246, 76, 36, 25, 22]
7.09[54, 182, 336, 230, 71, 37, 24, 24]
7.11[54, 182, 336, 230, 71, 37, 24, 24]
7.11[54, 182, 336, 230, 71, 37, 24, 24]
7.11[54, 182, 336, 230, 71, 37, 24, 24]
7.11[54, 182, 336, 230, 71, 37, 24, 24]
7.11[54, 182, 336, 230, 71, 37, 24, 24]
7.11[54, 182, 336, 230, 71, 37, 24, 24]
7.11[54, 182, 336, 230, 71, 37, 24, 24]
7.11[50, 171, 252, 187, 69, 38, 24, 25]
7.13[50, 171, 252, 187, 69, 38, 24, 25]
7.13[50, 171, 252, 187, 69, 38, 24, 25]
7.13[50, 171, 252, 187, 69, 38, 24, 25]
7.13[50, 171, 252, 187, 69, 38, 24, 25]
7.13[50, 171, 252, 187, 69, 38, 24, 25]
7.13[50, 171, 252, 187, 69, 38, 24, 25]
7.13[50, 171, 252, 187, 69, 38, 24, 25]
7.13[48, 156, 250, 199, 73, 38, 25, 23]
7.15[48, 156, 250, 199, 73, 38, 25, 23]
7.15[48, 156, 250, 199, 73, 38, 25, 23]
7.15[48, 156, 250, 199, 73, 38, 25, 23]
7.15[48, 156, 250, 199, 73, 38, 25, 23]
7.15[48, 156, 250, 199, 73, 38, 25, 23]
7.15[48, 156, 250, 199, 73, 38, 25, 23]
7.15[48, 156, 250, 199, 73, 38, 25, 23]
7.15[44, 155, 267, 185, 68, 38, 27, 25]
7.17[44, 155, 267, 185, 68, 38, 27, 25]
7.17[44, 155, 267, 185, 68, 38, 27, 25]
7.17[44, 155, 267, 185, 68, 38, 27, 25]
7.17[44, 155, 267, 185, 68, 38, 27, 25]
7.17[44, 155, 267, 185, 68, 38, 27, 25]
7.17[44, 155, 267, 185, 68, 38, 27, 25]
7.17[44, 155, 267, 185, 68, 38, 27, 25]
7.17[37, 142, 272, 190, 68, 40, 26, 26]
7.19[37, 142, 272, 190, 68, 40, 26, 26]
7.19[37, 142, 272, 190, 68, 40, 26, 26]
7.19[37, 142, 272, 190, 68, 40, 26, 26]
7.19[37, 142, 272, 190, 68, 40, 26, 26]
7.19[37, 142, 272, 190, 68, 40, 26, 26]
7.19[37, 142, 272, 190, 68, 40, 26, 26]
7.19[37, 142, 272, 190, 68, 40, 26, 26]
7.19[42, 147, 286, 220, 74, 41, 27, 25]
7.21[42, 147, 286, 220, 74, 41, 27, 25]
7.21[42, 147, 286, 220, 74, 41, 27, 25]
7.21[42, 147, 286, 220, 74, 41, 27, 25]
7.21[42, 147, 286, 220, 74, 41, 27, 25]
7.21[42, 147, 286, 220, 74, 41, 27, 25]
7.21[42, 147, 286, 220, 74, 41, 27, 25]
7.21[42, 147, 286, 220, 74, 41, 27, 25]
7.21[37, 139, 297, 226, 75, 40, 29, 23]
7.23[37, 139, 297, 226, 75, 40, 29, 23]
7.23[37, 139, 297, 226, 75, 40, 29, 23]
7.23[37, 139, 297, 226, 75, 40, 29, 23]
7.23[37, 139, 297, 226, 75, 40, 29, 23]
7.23[37, 139, 297, 226, 75, 40, 29, 23]
7.23[37, 139, 297, 226, 75, 40, 29, 23]
7.23[37, 139, 297, 226, 75, 40, 29, 23]
7.23[38, 141, 291, 231, 72, 39, 27, 25]
7.26[38, 141, 291, 231, 72, 39, 27, 25]
7.26[38, 141, 291, 231, 72, 39, 27, 25]
7.26[38, 141, 291, 231, 72, 39, 27, 25]
7.26[38, 141, 291, 231, 72, 39, 27, 25]
7.26[38, 141, 291, 231, 72, 39, 27, 25]
7.26[38, 141, 291, 231, 72, 39, 27, 25]
7.26[38, 141, 291, 231, 72, 39, 27, 25]
7.26[39, 141, 335, 225, 72, 39, 24, 23]
7.28[39, 141, 335, 225, 72, 39, 24, 23]
7.28[39, 141, 335, 225, 72, 39, 24, 23]
7.28[39, 141, 335, 225, 72, 39, 24, 23]
7.28[39, 141, 335, 225, 72, 39, 24, 23]
7.28[39, 141, 335, 225, 72, 39, 24, 23]
7.28[39, 141, 335, 225, 72, 39, 24, 23]
7.28[39, 141, 335, 225, 72, 39, 24, 23]
7.28[41, 130, 361, 224, 64, 35, 24, 23]
7.29[41, 130, 361, 224, 64, 35, 24, 23]
7.29[41, 130, 361, 224, 64, 35, 24, 23]
7.29[41, 130, 361, 224, 64, 35, 24, 23]
7.29[41, 130, 361, 224, 64, 35, 24, 23]
7.29[41, 130, 361, 224, 64, 35, 24, 23]
7.29[41, 130, 361, 224, 64, 35, 24, 23]
7.29[41, 130, 361, 224, 64, 35, 24, 23]
7.29[40, 112, 411, 202, 58, 34, 23, 23]
7.31[40, 112, 411, 202, 58, 34, 23, 23]
7.31[40, 112, 411, 202, 58, 34, 23, 23]
7.31[40, 112, 411, 202, 58, 34, 23, 23]
7.31[40, 112, 411, 202, 58, 34, 23, 23]
7.31[40, 112, 411, 202, 58, 34, 23, 23]
7.31[40, 112, 411, 202, 58, 34, 23, 23]
7.31[40, 112, 411, 202, 58, 34, 23, 23]
7.31[42, 108, 402, 183, 52, 31, 22, 24]
7.33[42, 108, 402, 183, 52, 31, 22, 24]
7.33[42, 108, 402, 183, 52, 31, 22, 24]
7.33[42, 108, 402, 183, 52, 31, 22, 24]
7.33[42, 108, 402, 183, 52, 31, 22, 24]
7.33[42, 108, 402, 183, 52, 31, 22, 24]
7.33[42, 108, 402, 183, 52, 31, 22, 24]
7.33[42, 108, 402, 183, 52, 31, 22, 24]
7.33[43, 105, 403, 156, 48, 31, 23, 24]
7.35[43, 105, 403, 156, 48, 31, 23, 24]
7.35[43, 105, 403, 156, 48, 31, 23, 24]
7.35[43, 105, 403, 156, 48, 31, 23, 24]
7.35[43, 105, 403, 156, 48, 31, 23, 24]
7.35[43, 105, 403, 156, 48, 31, 23, 24]
7.35[43, 105, 403, 156, 48, 31, 23, 24]
7.35[43, 105, 403, 156, 48, 31, 23, 24]
7.35[42, 101, 353, 162, 47, 28, 23, 25]
7.38[42, 101, 353, 162, 47, 28, 23, 25]
7.38[42, 101, 353, 162, 47, 28, 23, 25]
7.38[42, 101, 353, 162, 47, 28, 23, 25]
7.38[42, 101, 353, 162, 47, 28, 23, 25]
7.38[42, 101, 353, 162, 47, 28, 23, 25]
7.38[42, 101, 353, 162, 47, 28, 23, 25]
7.38[42, 101, 353, 162, 47, 28, 23, 25]
7.38[39, 102, 329, 156, 46, 29, 23, 25]
7.39[39, 102, 329, 156, 46, 29, 23, 25]
7.39[39, 102, 329, 156, 46, 29, 23, 25]
7.39[39, 102, 329, 156, 46, 29, 23, 25]
7.39[39, 102, 329, 156, 46, 29, 23, 25]
7.39[39, 102, 329, 156, 46, 29, 23, 25]
7.39[39, 102, 329, 156, 46, 29, 23, 25]
7.39[39, 102, 329, 156, 46, 29, 23, 25]
7.39[33, 103, 279, 180, 52, 28, 25, 25]
7.41[33, 103, 279, 180, 52, 28, 25, 25]
7.41[33, 103, 279, 180, 52, 28, 25, 25]
7.41[33, 103, 279, 180, 52, 28, 25, 25]
7.41[33, 103, 279, 180, 52, 28, 25, 25]
7.41[33, 103, 279, 180, 52, 28, 25, 25]
7.41[33, 103, 279, 180, 52, 28, 25, 25]
7.41[33, 103, 279, 180, 52, 28, 25, 25]
7.41[45, 123, 280, 232, 60, 31, 25, 24]
7.43[45, 123, 280, 232, 60, 31, 25, 24]
7.43[45, 123, 280, 232, 60, 31, 25, 24]
7.43[45, 123, 280, 232, 60, 31, 25, 24]
7.43[45, 123, 280, 232, 60, 31, 25, 24]
7.43[45, 123, 280, 232, 60, 31, 25, 24]
7.43[45, 123, 280, 232, 60, 31, 25, 24]
7.43[45, 123, 280, 232, 60, 31, 25, 24]
7.43[52, 152, 278, 241, 61, 29, 25, 24]
7.45[52, 152, 278, 241, 61, 29, 25, 24]
7.45[52, 152, 278, 241, 61, 29, 25, 24]
7.45[52, 152, 278, 241, 61, 29, 25, 24]
7.45[52, 152, 278, 241, 61, 29, 25, 24]
7.45[52, 152, 278, 241, 61, 29, 25, 24]
7.45[52, 152, 278, 241, 61, 29, 25, 24]
7.45[52, 152, 278, 241, 61, 29, 25, 24]
7.45[51, 155, 284, 285, 67, 28, 25, 23]
7.48[51, 155, 284, 285, 67, 28, 25, 23]
7.48[51, 155, 284, 285, 67, 28, 25, 23]
7.48[51, 155, 284, 285, 67, 28, 25, 23]
7.48[51, 155, 284, 285, 67, 28, 25, 23]
7.48[51, 155, 284, 285, 67, 28, 25, 23]
7.48[51, 155, 284, 285, 67, 28, 25, 23]
7.48[51, 155, 284, 285, 67, 28, 25, 23]
7.48[52, 157, 273, 307, 69, 31, 25, 21]
7.49[52, 157, 273, 307, 69, 31, 25, 21]
7.49[52, 157, 273, 307, 69, 31, 25, 21]
7.49[52, 157, 273, 307, 69, 31, 25, 21]
7.49[52, 157, 273, 307, 69, 31, 25, 21]
7.49[52, 157, 273, 307, 69, 31, 25, 21]
7.49[52, 157, 273, 307, 69, 31, 25, 21]
7.49[52, 157, 273, 307, 69, 31, 25, 21]
7.49[55, 163, 256, 307, 64, 30, 24, 21]
7.51[55, 163, 256, 307, 64, 30, 24, 21]
7.51[55, 163, 256, 307, 64, 30, 24, 21]
7.51[55, 163, 256, 307, 64, 30, 24, 21]
7.51[55, 163, 256, 307, 64, 30, 24, 21]
7.51[55, 163, 256, 307, 64, 30, 24, 21]
7.51[55, 163, 256, 307, 64, 30, 24, 21]
7.51[55, 163, 256, 307, 64, 30, 24, 21]
7.51[54, 165, 262, 294, 62, 28, 25, 21]
7.54[54, 165, 262, 294, 62, 28, 25, 21]
7.54[54, 165, 262, 294, 62, 28, 25, 21]
7.54[54, 165, 262, 294, 62, 28, 25, 21]
7.54[54, 165, 262, 294, 62, 28, 25, 21]
7.54[54, 165, 262, 294, 62, 28, 25, 21]
7.54[54, 165, 262, 294, 62, 28, 25, 21]
7.54[54, 165, 262, 294, 62, 28, 25, 21]
7.54[45, 140, 248, 291, 62, 28, 23, 18]
7.55[45, 140, 248, 291, 62, 28, 23, 18]
7.55[45, 140, 248, 291, 62, 28, 23, 18]
7.55[45, 140, 248, 291, 62, 28, 23, 18]
7.55[45, 140, 248, 291, 62, 28, 23, 18]
7.55[45, 140, 248, 291, 62, 28, 23, 18]
7.55[45, 140, 248, 291, 62, 28, 23, 18]
7.55[45, 140, 248, 291, 62, 28, 23, 18]
7.55[46, 138, 238, 241, 54, 28, 24, 19]
7.57[46, 138, 238, 241, 54, 28, 24, 19]
7.57[46, 138, 238, 241, 54, 28, 24, 19]
7.57[46, 138, 238, 241, 54, 28, 24, 19]
7.57[46, 138, 238, 241, 54, 28, 24, 19]
7.57[46, 138, 238, 241, 54, 28, 24, 19]
7.57[46, 138, 238, 241, 54, 28, 24, 19]
7.57[46, 138, 238, 241, 54, 28, 24, 19]
7.57[45, 135, 271, 299, 77, 30, 23, 19]
7.59[45, 135, 271, 299, 77, 30, 23, 19]
7.59[45, 135, 271, 299, 77, 30, 23, 19]
7.59[45, 135, 271, 299, 77, 30, 23, 19]
7.59[45, 135, 271, 299, 77, 30, 23, 19]
7.59[45, 135, 271, 299, 77, 30, 23, 19]
7.59[45, 135, 271, 299, 77, 30, 23, 19]
7.59[45, 135, 271, 299, 77, 30, 23, 19]
7.59[46, 139, 335, 312, 82, 34, 22, 18]
7.61[46, 139, 335, 312, 82, 34, 22, 18]
7.61[46, 139, 335, 312, 82, 34, 22, 18]
7.61[46, 139, 335, 312, 82, 34, 22, 18]
7.61[46, 139, 335, 312, 82, 34, 22, 18]
7.61[46, 139, 335, 312, 82, 34, 22, 18]
7.61[46, 139, 335, 312, 82, 34, 22, 18]
7.61[46, 139, 335, 312, 82, 34, 22, 18]
7.61[33, 116, 347, 296, 83, 36, 21, 21]
7.63[33, 116, 347, 296, 83, 36, 21, 21]
7.63[33, 116, 347, 296, 83, 36, 21, 21]
7.63[33, 116, 347, 296, 83, 36, 21, 21]
7.63[33, 116, 347, 296, 83, 36, 21, 21]
7.63[33, 116, 347, 296, 83, 36, 21, 21]
7.63[33, 116, 347, 296, 83, 36, 21, 21]
7.63[33, 116, 347, 296, 83, 36, 21, 21]
7.63[33, 115, 353, 293, 81, 36, 23, 21]
7.65[33, 115, 353, 293, 81, 36, 23, 21]
7.65[33, 115, 353, 293, 81, 36, 23, 21]
7.65[33, 115, 353, 293, 81, 36, 23, 21]
7.65[33, 115, 353, 293, 81, 36, 23, 21]
7.65[33, 115, 353, 293, 81, 36, 23, 21]
7.65[33, 115, 353, 293, 81, 36, 23, 21]
7.65[33, 115, 353, 293, 81, 36, 23, 21]
7.65[30, 113, 359, 299, 80, 36, 22, 20]
7.68[30, 113, 359, 299, 80, 36, 22, 20]
7.68[30, 113, 359, 299, 80, 36, 22, 20]
7.68[30, 113, 359, 299, 80, 36, 22, 20]
7.68[30, 113, 359, 299, 80, 36, 22, 20]
7.68[30, 113, 359, 299, 80, 36, 22, 20]
7.68[30, 113, 359, 299, 80, 36, 22, 20]
7.68[30, 113, 359, 299, 80, 36, 22, 20]
7.68[44, 121, 333, 258, 66, 32, 22, 24]
7.69[44, 121, 333, 258, 66, 32, 22, 24]
7.69[44, 121, 333, 258, 66, 32, 22, 24]
7.69[44, 121, 333, 258, 66, 32, 22, 24]
7.69[44, 121, 333, 258, 66, 32, 22, 24]
7.69[44, 121, 333, 258, 66, 32, 22, 24]
7.69[44, 121, 333, 258, 66, 32, 22, 24]
7.69[44, 121, 333, 258, 66, 32, 22, 24]
7.69[58, 140, 268, 243, 62, 28, 22, 24]
7.71[58, 140, 268, 243, 62, 28, 22, 24]
7.71[58, 140, 268, 243, 62, 28, 22, 24]
7.71[58, 140, 268, 243, 62, 28, 22, 24]
7.71[58, 140, 268, 243, 62, 28, 22, 24]
7.71[58, 140, 268, 243, 62, 28, 22, 24]
7.71[58, 140, 268, 243, 62, 28, 22, 24]
7.71[58, 140, 268, 243, 62, 28, 22, 24]
7.71[66, 156, 277, 268, 60, 23, 21, 24]
7.74[66, 156, 277, 268, 60, 23, 21, 24]
7.74[66, 156, 277, 268, 60, 23, 21, 24]
7.74[66, 156, 277, 268, 60, 23, 21, 24]
7.74[66, 156, 277, 268, 60, 23, 21, 24]
7.74[66, 156, 277, 268, 60, 23, 21, 24]
7.74[66, 156, 277, 268, 60, 23, 21, 24]
7.74[66, 156, 277, 268, 60, 23, 21, 24]
7.74[67, 163, 275, 284, 62, 25, 19, 26]
7.75[67, 163, 275, 284, 62, 25, 19, 26]
7.75[67, 163, 275, 284, 62, 25, 19, 26]
7.75[67, 163, 275, 284, 62, 25, 19, 26]
7.75[67, 163, 275, 284, 62, 25, 19, 26]
7.75[67, 163, 275, 284, 62, 25, 19, 26]
7.75[67, 163, 275, 284, 62, 25, 19, 26]
7.75[67, 163, 275, 284, 62, 25, 19, 26]
7.75[68, 169, 280, 287, 65, 26, 20, 27]
7.77[68, 169, 280, 287, 65, 26, 20, 27]
7.77[68, 169, 280, 287, 65, 26, 20, 27]
7.77[68, 169, 280, 287, 65, 26, 20, 27]
7.77[68, 169, 280, 287, 65, 26, 20, 27]
7.77[68, 169, 280, 287, 65, 26, 20, 27]
7.77[68, 169, 280, 287, 65, 26, 20, 27]
7.77[68, 169, 280, 287, 65, 26, 20, 27]
7.77[63, 186, 385, 279, 62, 28, 20, 26]
7.79[63, 186, 385, 279, 62, 28, 20, 26]
7.79[63, 186, 385, 279, 62, 28, 20, 26]
7.79[63, 186, 385, 279, 62, 28, 20, 26]
7.79[63, 186, 385, 279, 62, 28, 20, 26]
7.79[63, 186, 385, 279, 62, 28, 20, 26]
7.79[63, 186, 385, 279, 62, 28, 20, 26]
7.79[63, 186, 385, 279, 62, 28, 20, 26]
7.79[55, 171, 385, 274, 58, 30, 21, 26]
7.81[55, 171, 385, 274, 58, 30, 21, 26]
7.81[55, 171, 385, 274, 58, 30, 21, 26]
7.81[55, 171, 385, 274, 58, 30, 21, 26]
7.81[55, 171, 385, 274, 58, 30, 21, 26]
7.81[55, 171, 385, 274, 58, 30, 21, 26]
7.81[55, 171, 385, 274, 58, 30, 21, 26]
7.81[55, 171, 385, 274, 58, 30, 21, 26]
7.81[46, 152, 356, 239, 56, 30, 23, 24]
7.83[46, 152, 356, 239, 56, 30, 23, 24]
7.83[46, 152, 356, 239, 56, 30, 23, 24]
7.83[46, 152, 356, 239, 56, 30, 23, 24]
7.83[46, 152, 356, 239, 56, 30, 23, 24]
7.83[46, 152, 356, 239, 56, 30, 23, 24]
7.83[46, 152, 356, 239, 56, 30, 23, 24]
7.83[46, 152, 356, 239, 56, 30, 23, 24]
7.83[48, 143, 375, 227, 58, 33, 23, 22]
7.85[48, 143, 375, 227, 58, 33, 23, 22]
7.85[48, 143, 375, 227, 58, 33, 23, 22]
7.85[48, 143, 375, 227, 58, 33, 23, 22]
7.85[48, 143, 375, 227, 58, 33, 23, 22]
7.85[48, 143, 375, 227, 58, 33, 23, 22]
7.85[48, 143, 375, 227, 58, 33, 23, 22]
7.85[48, 143, 375, 227, 58, 33, 23, 22]
7.85[49, 158, 392, 220, 55, 33, 23, 23]
7.87[49, 158, 392, 220, 55, 33, 23, 23]
7.87[49, 158, 392, 220, 55, 33, 23, 23]
7.87[49, 158, 392, 220, 55, 33, 23, 23]
7.87[49, 158, 392, 220, 55, 33, 23, 23]
7.87[49, 158, 392, 220, 55, 33, 23, 23]
7.87[49, 158, 392, 220, 55, 33, 23, 23]
7.87[49, 158, 392, 220, 55, 33, 23, 23]
7.87[46, 137, 310, 188, 48, 32, 22, 21]
7.9[46, 137, 310, 188, 48, 32, 22, 21]
7.9[46, 137, 310, 188, 48, 32, 22, 21]
7.9[46, 137, 310, 188, 48, 32, 22, 21]
7.9[46, 137, 310, 188, 48, 32, 22, 21]
7.9[46, 137, 310, 188, 48, 32, 22, 21]
7.9[46, 137, 310, 188, 48, 32, 22, 21]
7.9[46, 137, 310, 188, 48, 32, 22, 21]
7.9[39, 123, 293, 167, 50, 31, 22, 20]
7.91[39, 123, 293, 167, 50, 31, 22, 20]
7.91[39, 123, 293, 167, 50, 31, 22, 20]
7.91[39, 123, 293, 167, 50, 31, 22, 20]
7.91[39, 123, 293, 167, 50, 31, 22, 20]
7.91[39, 123, 293, 167, 50, 31, 22, 20]
7.91[39, 123, 293, 167, 50, 31, 22, 20]
7.91[39, 123, 293, 167, 50, 31, 22, 20]
7.91[39, 124, 290, 186, 53, 33, 22, 21]
7.93[39, 124, 290, 186, 53, 33, 22, 21]
7.93[39, 124, 290, 186, 53, 33, 22, 21]
7.93[39, 124, 290, 186, 53, 33, 22, 21]
7.93[39, 124, 290, 186, 53, 33, 22, 21]
7.93[39, 124, 290, 186, 53, 33, 22, 21]
7.93[39, 124, 290, 186, 53, 33, 22, 21]
7.93[39, 124, 290, 186, 53, 33, 22, 21]
7.93[39, 128, 326, 197, 55, 31, 21, 20]
7.96[39, 128, 326, 197, 55, 31, 21, 20]
7.96[39, 128, 326, 197, 55, 31, 21, 20]
7.96[39, 128, 326, 197, 55, 31, 21, 20]
7.96[39, 128, 326, 197, 55, 31, 21, 20]
7.96[39, 128, 326, 197, 55, 31, 21, 20]
7.96[39, 128, 326, 197, 55, 31, 21, 20]
7.96[39, 128, 326, 197, 55, 31, 21, 20]
7.96[43, 127, 349, 203, 56, 30, 22, 20]
7.97[43, 127, 349, 203, 56, 30, 22, 20]
7.97[43, 127, 349, 203, 56, 30, 22, 20]
7.97[43, 127, 349, 203, 56, 30, 22, 20]
7.97[43, 127, 349, 203, 56, 30, 22, 20]
7.97[43, 127, 349, 203, 56, 30, 22, 20]
7.97[43, 127, 349, 203, 56, 30, 22, 20]
7.97[43, 127, 349, 203, 56, 30, 22, 20]
7.97[45, 121, 334, 191, 54, 28, 23, 21]
7.99[45, 121, 334, 191, 54, 28, 23, 21]
7.99[45, 121, 334, 191, 54, 28, 23, 21]
7.99[45, 121, 334, 191, 54, 28, 23, 21]
7.99[45, 121, 334, 191, 54, 28, 23, 21]
7.99[45, 121, 334, 191, 54, 28, 23, 21]
7.99[45, 121, 334, 191, 54, 28, 23, 21]
7.99[45, 121, 334, 191, 54, 28, 23, 21]
7.99[46, 117, 329, 183, 55, 31, 25, 20]
8.02[46, 117, 329, 183, 55, 31, 25, 20]
8.02[46, 117, 329, 183, 55, 31, 25, 20]
8.02[46, 117, 329, 183, 55, 31, 25, 20]
8.02[46, 117, 329, 183, 55, 31, 25, 20]
8.02[46, 117, 329, 183, 55, 31, 25, 20]
8.02[46, 117, 329, 183, 55, 31, 25, 20]
8.02[46, 117, 329, 183, 55, 31, 25, 20]
8.02[44, 114, 322, 162, 49, 27, 24, 20]
8.03[44, 114, 322, 162, 49, 27, 24, 20]
8.03[44, 114, 322, 162, 49, 27, 24, 20]
8.03[44, 114, 322, 162, 49, 27, 24, 20]
8.03[44, 114, 322, 162, 49, 27, 24, 20]
8.03[44, 114, 322, 162, 49, 27, 24, 20]
8.03[44, 114, 322, 162, 49, 27, 24, 20]
8.03[44, 114, 322, 162, 49, 27, 24, 20]
8.03[41, 108, 255, 135, 42, 25, 25, 21]
8.06[41, 108, 255, 135, 42, 25, 25, 21]
8.06[41, 108, 255, 135, 42, 25, 25, 21]
8.06[41, 108, 255, 135, 42, 25, 25, 21]
8.06[41, 108, 255, 135, 42, 25, 25, 21]
8.06[41, 108, 255, 135, 42, 25, 25, 21]
8.06[41, 108, 255, 135, 42, 25, 25, 21]
8.06[41, 108, 255, 135, 42, 25, 25, 21]
8.06[42, 99, 206, 128, 42, 25, 22, 21]
8.08[42, 99, 206, 128, 42, 25, 22, 21]
8.08[42, 99, 206, 128, 42, 25, 22, 21]
8.08[42, 99, 206, 128, 42, 25, 22, 21]
8.08[42, 99, 206, 128, 42, 25, 22, 21]
8.08[42, 99, 206, 128, 42, 25, 22, 21]
8.08[42, 99, 206, 128, 42, 25, 22, 21]
8.08[42, 99, 206, 128, 42, 25, 22, 21]
8.08[40, 91, 203, 144, 44, 28, 21, 19]
8.1[40, 91, 203, 144, 44, 28, 21, 19]
8.1[40, 91, 203, 144, 44, 28, 21, 19]
8.1[40, 91, 203, 144, 44, 28, 21, 19]
8.1[40, 91, 203, 144, 44, 28, 21, 19]
8.1[40, 91, 203, 144, 44, 28, 21, 19]
8.1[40, 91, 203, 144, 44, 28, 21, 19]
8.1[40, 91, 203, 144, 44, 28, 21, 19]
8.1[40, 115, 229, 177, 43, 23, 20, 20]
8.11[40, 115, 229, 177, 43, 23, 20, 20]
8.11[40, 115, 229, 177, 43, 23, 20, 20]
8.11[40, 115, 229, 177, 43, 23, 20, 20]
8.11[40, 115, 229, 177, 43, 23, 20, 20]
8.11[40, 115, 229, 177, 43, 23, 20, 20]
8.11[40, 115, 229, 177, 43, 23, 20, 20]
8.11[40, 115, 229, 177, 43, 23, 20, 20]
8.11[40, 123, 230, 181, 49, 27, 19, 19]
8.14[40, 123, 230, 181, 49, 27, 19, 19]
8.14[40, 123, 230, 181, 49, 27, 19, 19]
8.14[40, 123, 230, 181, 49, 27, 19, 19]
8.14[40, 123, 230, 181, 49, 27, 19, 19]
8.14[40, 123, 230, 181, 49, 27, 19, 19]
8.14[40, 123, 230, 181, 49, 27, 19, 19]
8.14[40, 123, 230, 181, 49, 27, 19, 19]
8.14[42, 137, 270, 183, 48, 28, 21, 19]
8.15[42, 137, 270, 183, 48, 28, 21, 19]
8.15[42, 137, 270, 183, 48, 28, 21, 19]
8.15[42, 137, 270, 183, 48, 28, 21, 19]
8.15[42, 137, 270, 183, 48, 28, 21, 19]
8.15[42, 137, 270, 183, 48, 28, 21, 19]
8.15[42, 137, 270, 183, 48, 28, 21, 19]
8.15[42, 137, 270, 183, 48, 28, 21, 19]
8.15[36, 130, 272, 204, 56, 32, 25, 22]
8.17[36, 130, 272, 204, 56, 32, 25, 22]
8.17[36, 130, 272, 204, 56, 32, 25, 22]
8.17[36, 130, 272, 204, 56, 32, 25, 22]
8.17[36, 130, 272, 204, 56, 32, 25, 22]
8.17[36, 130, 272, 204, 56, 32, 25, 22]
8.17[36, 130, 272, 204, 56, 32, 25, 22]
8.17[36, 130, 272, 204, 56, 32, 25, 22]
8.17[33, 131, 263, 191, 55, 33, 25, 22]
8.2[33, 131, 263, 191, 55, 33, 25, 22]
8.2[33, 131, 263, 191, 55, 33, 25, 22]
8.2[33, 131, 263, 191, 55, 33, 25, 22]
8.2[33, 131, 263, 191, 55, 33, 25, 22]
8.2[33, 131, 263, 191, 55, 33, 25, 22]
8.2[33, 131, 263, 191, 55, 33, 25, 22]
8.2[33, 131, 263, 191, 55, 33, 25, 22]
8.2[32, 115, 239, 153, 53, 33, 26, 22]
8.21[32, 115, 239, 153, 53, 33, 26, 22]
8.21[32, 115, 239, 153, 53, 33, 26, 22]
8.21[32, 115, 239, 153, 53, 33, 26, 22]
8.21[32, 115, 239, 153, 53, 33, 26, 22]
8.21[32, 115, 239, 153, 53, 33, 26, 22]
8.21[32, 115, 239, 153, 53, 33, 26, 22]
8.21[32, 115, 239, 153, 53, 33, 26, 22]
8.21[35, 117, 280, 148, 49, 33, 26, 21]
8.23[35, 117, 280, 148, 49, 33, 26, 21]
8.23[35, 117, 280, 148, 49, 33, 26, 21]
8.23[35, 117, 280, 148, 49, 33, 26, 21]
8.23[35, 117, 280, 148, 49, 33, 26, 21]
8.23[35, 117, 280, 148, 49, 33, 26, 21]
8.23[35, 117, 280, 148, 49, 33, 26, 21]
8.23[35, 117, 280, 148, 49, 33, 26, 21]
8.23[36, 113, 272, 191, 57, 35, 25, 22]
8.26[36, 113, 272, 191, 57, 35, 25, 22]
8.26[36, 113, 272, 191, 57, 35, 25, 22]
8.26[36, 113, 272, 191, 57, 35, 25, 22]
8.26[36, 113, 272, 191, 57, 35, 25, 22]
8.26[36, 113, 272, 191, 57, 35, 25, 22]
8.26[36, 113, 272, 191, 57, 35, 25, 22]
8.26[36, 113, 272, 191, 57, 35, 25, 22]
8.26[37, 140, 294, 157, 50, 34, 23, 18]
8.27[37, 140, 294, 157, 50, 34, 23, 18]
8.27[37, 140, 294, 157, 50, 34, 23, 18]
8.27[37, 140, 294, 157, 50, 34, 23, 18]
8.27[37, 140, 294, 157, 50, 34, 23, 18]
8.27[37, 140, 294, 157, 50, 34, 23, 18]
8.27[37, 140, 294, 157, 50, 34, 23, 18]
8.27[37, 140, 294, 157, 50, 34, 23, 18]
8.27[37, 147, 321, 159, 47, 33, 22, 20]
8.3[37, 147, 321, 159, 47, 33, 22, 20]
8.3[37, 147, 321, 159, 47, 33, 22, 20]
8.3[37, 147, 321, 159, 47, 33, 22, 20]
8.3[37, 147, 321, 159, 47, 33, 22, 20]
8.3[37, 147, 321, 159, 47, 33, 22, 20]
8.3[37, 147, 321, 159, 47, 33, 22, 20]
8.3[37, 147, 321, 159, 47, 33, 22, 20]
8.3[42, 163, 338, 164, 51, 34, 23, 20]
8.32[42, 163, 338, 164, 51, 34, 23, 20]
8.32[42, 163, 338, 164, 51, 34, 23, 20]
8.32[42, 163, 338, 164, 51, 34, 23, 20]
8.32[42, 163, 338, 164, 51, 34, 23, 20]
8.32[42, 163, 338, 164, 51, 34, 23, 20]
8.32[42, 163, 338, 164, 51, 34, 23, 20]
8.32[42, 163, 338, 164, 51, 34, 23, 20]
8.32[39, 161, 319, 199, 60, 34, 23, 20]
8.34[39, 161, 319, 199, 60, 34, 23, 20]
8.34[39, 161, 319, 199, 60, 34, 23, 20]
8.34[39, 161, 319, 199, 60, 34, 23, 20]
