[69, 85, 168, 200, 73, 28, 23, 32]
0.56[69, 85, 168, 200, 73, 28, 23, 32]
0.56[69, 85, 168, 200, 73, 28, 23, 32]
0.56[69, 85, 168, 200, 73, 28, 23, 32]
0.56[69, 85, 168, 200, 73, 28, 23, 32]
0.56[69, 85, 168, 200, 73, 28, 23, 32]
0.56[69, 85, 168, 200, 73, 28, 23, 32]
0.56[69, 85, 168, 200, 73, 28, 23, 32]
0.56[58, 84, 207, 206, 75, 28, 23, 30]
0.59[58, 84, 207, 206, 75, 28, 23, 30]
0.59[58, 84, 207, 206, 75, 28, 23, 30]
0.59[58, 84, 207, 206, 75, 28, 23, 30]
0.59[58, 84, 207, 206, 75, 28, 23, 30]
0.59[58, 84, 207, 206, 75, 28, 23, 30]
0.59[58, 84, 207, 206, 75, 28, 23, 30]
0.59[58, 84, 207, 206, 75, 28, 23, 30]
0.59[53, 79, 224, 206, 73, 28, 20, 30]
0.6[53, 79, 224, 206, 73, 28, 20, 30]
0.6[53, 79, 224, 206, 73, 28, 20, 30]
0.6[53, 79, 224, 206, 73, 28, 20, 30]
0.6[53, 79, 224, 206, 73, 28, 20, 30]
0.6[53, 79, 224, 206, 73, 28, 20, 30]
0.6[53, 79, 224, 206, 73, 28, 20, 30]
0.6[53, 79, 224, 206, 73, 28, 20, 30]
0.6[55, 91, 312, 216, 73, 28, 25, 31]
0.62[55, 91, 312, 216, 73, 28, 25, 31]
0.62[55, 91, 312, 216, 73, 28, 25, 31]
0.62[55, 91, 312, 216, 73, 28, 25, 31]
0.62[55, 91, 312, 216, 73, 28, 25, 31]
0.62[55, 91, 312, 216, 73, 28, 25, 31]
0.62[55, 91, 312, 216, 73, 28, 25, 31]
0.62[55, 91, 312, 216, 73, 28, 25, 31]
0.62[51, 90, 313, 140, 50, 27, 26, 32]
0.64[51, 90, 313, 140, 50, 27, 26, 32]
0.64[51, 90, 313, 140, 50, 27, 26, 32]
0.64[51, 90, 313, 140, 50, 27, 26, 32]
0.64[51, 90, 313, 140, 50, 27, 26, 32]
0.64[51, 90, 313, 140, 50, 27, 26, 32]
0.64[51, 90, 313, 140, 50, 27, 26, 32]
0.64[51, 90, 313, 140, 50, 27, 26, 32]
0.64[42, 73, 316, 151, 39, 26, 24, 28]
0.66[42, 73, 316, 151, 39, 26, 24, 28]
0.66[42, 73, 316, 151, 39, 26, 24, 28]
0.66[42, 73, 316, 151, 39, 26, 24, 28]
0.66[42, 73, 316, 151, 39, 26, 24, 28]
0.66[42, 73, 316, 151, 39, 26, 24, 28]
0.66[42, 73, 316, 151, 39, 26, 24, 28]
0.66[42, 73, 316, 151, 39, 26, 24, 28]
0.66[47, 73, 299, 154, 40, 27, 26, 29]
0.68[47, 73, 299, 154, 40, 27, 26, 29]
0.68[47, 73, 299, 154, 40, 27, 26, 29]
0.68[47, 73, 299, 154, 40, 27, 26, 29]
0.68[47, 73, 299, 154, 40, 27, 26, 29]
0.68[47, 73, 299, 154, 40, 27, 26, 29]
0.68[47, 73, 299, 154, 40, 27, 26, 29]
0.68[47, 73, 299, 154, 40, 27, 26, 29]
0.68[49, 77, 281, 158, 43, 23, 26, 27]
0.71[49, 77, 281, 158, 43, 23, 26, 27]
0.71[49, 77, 281, 158, 43, 23, 26, 27]
0.71[49, 77, 281, 158, 43, 23, 26, 27]
0.71[49, 77, 281, 158, 43, 23, 26, 27]
0.71[49, 77, 281, 158, 43, 23, 26, 27]
0.71[49, 77, 281, 158, 43, 23, 26, 27]
0.71[49, 77, 281, 158, 43, 23, 26, 27]
0.71[43, 63, 190, 158, 46, 22, 21, 24]
0.72[43, 63, 190, 158, 46, 22, 21, 24]
0.72[43, 63, 190, 158, 46, 22, 21, 24]
0.72[43, 63, 190, 158, 46, 22, 21, 24]
0.72[43, 63, 190, 158, 46, 22, 21, 24]
0.72[43, 63, 190, 158, 46, 22, 21, 24]
0.72[43, 63, 190, 158, 46, 22, 21, 24]
0.72[43, 63, 190, 158, 46, 22, 21, 24]
0.72[45, 65, 243, 156, 46, 21, 22, 24]
0.74[45, 65, 243, 156, 46, 21, 22, 24]
0.74[45, 65, 243, 156, 46, 21, 22, 24]
0.74[45, 65, 243, 156, 46, 21, 22, 24]
0.74[45, 65, 243, 156, 46, 21, 22, 24]
0.74[45, 65, 243, 156, 46, 21, 22, 24]
0.74[45, 65, 243, 156, 46, 21, 22, 24]
0.74[45, 65, 243, 156, 46, 21, 22, 24]
0.74[50, 81, 252, 142, 49, 22, 24, 25]
0.76[50, 81, 252, 142, 49, 22, 24, 25]
0.76[50, 81, 252, 142, 49, 22, 24, 25]
0.76[50, 81, 252, 142, 49, 22, 24, 25]
0.76[50, 81, 252, 142, 49, 22, 24, 25]
0.76[50, 81, 252, 142, 49, 22, 24, 25]
0.76[50, 81, 252, 142, 49, 22, 24, 25]
0.76[50, 81, 252, 142, 49, 22, 24, 25]
0.76[47, 81, 248, 136, 46, 25, 23, 23]
0.78[47, 81, 248, 136, 46, 25, 23, 23]
0.78[47, 81, 248, 136, 46, 25, 23, 23]
0.78[47, 81, 248, 136, 46, 25, 23, 23]
0.78[47, 81, 248, 136, 46, 25, 23, 23]
0.78[47, 81, 248, 136, 46, 25, 23, 23]
0.78[47, 81, 248, 136, 46, 25, 23, 23]
0.78[47, 81, 248, 136, 46, 25, 23, 23]
0.78[46, 74, 269, 134, 49, 27, 23, 22]
0.8[46, 74, 269, 134, 49, 27, 23, 22]
0.8[46, 74, 269, 134, 49, 27, 23, 22]
0.8[46, 74, 269, 134, 49, 27, 23, 22]
0.8[46, 74, 269, 134, 49, 27, 23, 22]
0.8[46, 74, 269, 134, 49, 27, 23, 22]
0.8[46, 74, 269, 134, 49, 27, 23, 22]
0.8[46, 74, 269, 134, 49, 27, 23, 22]
0.8[51, 76, 267, 127, 48, 29, 25, 23]
0.82[51, 76, 267, 127, 48, 29, 25, 23]
0.82[51, 76, 267, 127, 48, 29, 25, 23]
0.82[51, 76, 267, 127, 48, 29, 25, 23]
0.82[51, 76, 267, 127, 48, 29, 25, 23]
0.82[51, 76, 267, 127, 48, 29, 25, 23]
0.82[51, 76, 267, 127, 48, 29, 25, 23]
0.82[51, 76, 267, 127, 48, 29, 25, 23]
0.82[53, 81, 245, 144, 50, 31, 24, 22]
0.84[53, 81, 245, 144, 50, 31, 24, 22]
0.84[53, 81, 245, 144, 50, 31, 24, 22]
0.84[53, 81, 245, 144, 50, 31, 24, 22]
0.84[53, 81, 245, 144, 50, 31, 24, 22]
0.84[53, 81, 245, 144, 50, 31, 24, 22]
0.84[53, 81, 245, 144, 50, 31, 24, 22]
0.84[53, 81, 245, 144, 50, 31, 24, 22]
0.84[50, 69, 250, 132, 48, 30, 24, 22]
0.86[50, 69, 250, 132, 48, 30, 24, 22]
0.86[50, 69, 250, 132, 48, 30, 24, 22]
0.86[50, 69, 250, 132, 48, 30, 24, 22]
0.86[50, 69, 250, 132, 48, 30, 24, 22]
0.86[50, 69, 250, 132, 48, 30, 24, 22]
0.86[50, 69, 250, 132, 48, 30, 24, 22]
0.86[50, 69, 250, 132, 48, 30, 24, 22]
0.86[51, 64, 258, 129, 46, 29, 25, 24]
0.88[51, 64, 258, 129, 46, 29, 25, 24]
0.88[51, 64, 258, 129, 46, 29, 25, 24]
0.88[51, 64, 258, 129, 46, 29, 25, 24]
0.88[51, 64, 258, 129, 46, 29, 25, 24]
0.88[51, 64, 258, 129, 46, 29, 25, 24]
0.88[51, 64, 258, 129, 46, 29, 25, 24]
0.88[51, 64, 258, 129, 46, 29, 25, 24]
0.88[50, 62, 253, 128, 43, 28, 25, 25]
0.9[50, 62, 253, 128, 43, 28, 25, 25]
0.9[50, 62, 253, 128, 43, 28, 25, 25]
0.9[50, 62, 253, 128, 43, 28, 25, 25]
0.9[50, 62, 253, 128, 43, 28, 25, 25]
0.9[50, 62, 253, 128, 43, 28, 25, 25]
0.9[50, 62, 253, 128, 43, 28, 25, 25]
0.9[50, 62, 253, 128, 43, 28, 25, 25]
0.9[47, 68, 261, 198, 56, 28, 24, 26]
0.92[47, 68, 261, 198, 56, 28, 24, 26]
0.92[47, 68, 261, 198, 56, 28, 24, 26]
0.92[47, 68, 261, 198, 56, 28, 24, 26]
0.92[47, 68, 261, 198, 56, 28, 24, 26]
0.92[47, 68, 261, 198, 56, 28, 24, 26]
0.92[47, 68, 261, 198, 56, 28, 24, 26]
0.92[47, 68, 261, 198, 56, 28, 24, 26]
0.92[39, 66, 323, 207, 58, 30, 23, 26]
0.94[39, 66, 323, 207, 58, 30, 23, 26]
0.94[39, 66, 323, 207, 58, 30, 23, 26]
0.94[39, 66, 323, 207, 58, 30, 23, 26]
0.94[39, 66, 323, 207, 58, 30, 23, 26]
0.94[39, 66, 323, 207, 58, 30, 23, 26]
0.94[39, 66, 323, 207, 58, 30, 23, 26]
0.94[39, 66, 323, 207, 58, 30, 23, 26]
0.94[39, 68, 312, 204, 61, 30, 24, 27]
0.96[39, 68, 312, 204, 61, 30, 24, 27]
0.96[39, 68, 312, 204, 61, 30, 24, 27]
0.96[39, 68, 312, 204, 61, 30, 24, 27]
0.96[39, 68, 312, 204, 61, 30, 24, 27]
0.96[39, 68, 312, 204, 61, 30, 24, 27]
0.96[39, 68, 312, 204, 61, 30, 24, 27]
0.96[39, 68, 312, 204, 61, 30, 24, 27]
0.96[39, 68, 317, 207, 64, 31, 21, 28]
0.98[39, 68, 317, 207, 64, 31, 21, 28]
0.98[39, 68, 317, 207, 64, 31, 21, 28]
0.98[39, 68, 317, 207, 64, 31, 21, 28]
0.98[39, 68, 317, 207, 64, 31, 21, 28]
0.98[39, 68, 317, 207, 64, 31, 21, 28]
0.98[39, 68, 317, 207, 64, 31, 21, 28]
0.98[39, 68, 317, 207, 64, 31, 21, 28]
0.98[36, 68, 304, 217, 66, 30, 22, 27]
1.0[36, 68, 304, 217, 66, 30, 22, 27]
1.0[36, 68, 304, 217, 66, 30, 22, 27]
1.0[36, 68, 304, 217, 66, 30, 22, 27]
1.0[36, 68, 304, 217, 66, 30, 22, 27]
1.0[36, 68, 304, 217, 66, 30, 22, 27]
1.0[36, 68, 304, 217, 66, 30, 22, 27]
1.0[36, 68, 304, 217, 66, 30, 22, 27]
1.0[35, 66, 307, 158, 57, 29, 24, 29]
1.02[35, 66, 307, 158, 57, 29, 24, 29]
1.02[35, 66, 307, 158, 57, 29, 24, 29]
1.02[35, 66, 307, 158, 57, 29, 24, 29]
1.02[35, 66, 307, 158, 57, 29, 24, 29]
1.02[35, 66, 307, 158, 57, 29, 24, 29]
1.02[35, 66, 307, 158, 57, 29, 24, 29]
1.02[35, 66, 307, 158, 57, 29, 24, 29]
1.02[35, 58, 265, 151, 53, 24, 22, 28]
1.04[35, 58, 265, 151, 53, 24, 22, 28]
1.04[35, 58, 265, 151, 53, 24, 22, 28]
1.04[35, 58, 265, 151, 53, 24, 22, 28]
1.04[35, 58, 265, 151, 53, 24, 22, 28]
1.04[35, 58, 265, 151, 53, 24, 22, 28]
1.04[35, 58, 265, 151, 53, 24, 22, 28]
1.04[35, 58, 265, 151, 53, 24, 22, 28]
1.04[39, 56, 248, 159, 54, 26, 21, 28]
1.06[39, 56, 248, 159, 54, 26, 21, 28]
1.06[39, 56, 248, 159, 54, 26, 21, 28]
1.06[39, 56, 248, 159, 54, 26, 21, 28]
1.06[39, 56, 248, 159, 54, 26, 21, 28]
1.06[39, 56, 248, 159, 54, 26, 21, 28]
1.06[39, 56, 248, 159, 54, 26, 21, 28]
1.06[39, 56, 248, 159, 54, 26, 21, 28]
1.06[35, 52, 227, 152, 50, 25, 22, 25]
1.08[35, 52, 227, 152, 50, 25, 22, 25]
1.08[35, 52, 227, 152, 50, 25, 22, 25]
1.08[35, 52, 227, 152, 50, 25, 22, 25]
1.08[35, 52, 227, 152, 50, 25, 22, 25]
1.08[35, 52, 227, 152, 50, 25, 22, 25]
1.08[35, 52, 227, 152, 50, 25, 22, 25]
1.08[35, 52, 227, 152, 50, 25, 22, 25]
1.08[40, 53, 215, 136, 48, 27, 24, 27]
1.1[40, 53, 215, 136, 48, 27, 24, 27]
1.1[40, 53, 215, 136, 48, 27, 24, 27]
1.1[40, 53, 215, 136, 48, 27, 24, 27]
1.1[40, 53, 215, 136, 48, 27, 24, 27]
1.1[40, 53, 215, 136, 48, 27, 24, 27]
1.1[40, 53, 215, 136, 48, 27, 24, 27]
1.1[40, 53, 215, 136, 48, 27, 24, 27]
1.1[46, 64, 298, 128, 42, 26, 22, 23]
1.12[46, 64, 298, 128, 42, 26, 22, 23]
1.12[46, 64, 298, 128, 42, 26, 22, 23]
1.12[46, 64, 298, 128, 42, 26, 22, 23]
1.12[46, 64, 298, 128, 42, 26, 22, 23]
1.12[46, 64, 298, 128, 42, 26, 22, 23]
1.12[46, 64, 298, 128, 42, 26, 22, 23]
1.12[46, 64, 298, 128, 42, 26, 22, 23]
1.12[46, 63, 252, 119, 44, 29, 23, 24]
1.14[46, 63, 252, 119, 44, 29, 23, 24]
1.14[46, 63, 252, 119, 44, 29, 23, 24]
1.14[46, 63, 252, 119, 44, 29, 23, 24]
1.14[46, 63, 252, 119, 44, 29, 23, 24]
1.14[46, 63, 252, 119, 44, 29, 23, 24]
1.14[46, 63, 252, 119, 44, 29, 23, 24]
1.14[46, 63, 252, 119, 44, 29, 23, 24]
1.14[42, 61, 277, 116, 40, 28, 24, 23]
1.16[42, 61, 277, 116, 40, 28, 24, 23]
1.16[42, 61, 277, 116, 40, 28, 24, 23]
1.16[42, 61, 277, 116, 40, 28, 24, 23]
1.16[42, 61, 277, 116, 40, 28, 24, 23]
1.16[42, 61, 277, 116, 40, 28, 24, 23]
1.16[42, 61, 277, 116, 40, 28, 24, 23]
1.16[42, 61, 277, 116, 40, 28, 24, 23]
1.16[49, 76, 305, 112, 39, 25, 25, 25]
1.18[49, 76, 305, 112, 39, 25, 25, 25]
1.18[49, 76, 305, 112, 39, 25, 25, 25]
1.18[49, 76, 305, 112, 39, 25, 25, 25]
1.18[49, 76, 305, 112, 39, 25, 25, 25]
1.18[49, 76, 305, 112, 39, 25, 25, 25]
1.18[49, 76, 305, 112, 39, 25, 25, 25]
1.18[49, 76, 305, 112, 39, 25, 25, 25]
1.18[50, 81, 323, 128, 40, 24, 25, 24]
1.2[50, 81, 323, 128, 40, 24, 25, 24]
1.2[50, 81, 323, 128, 40, 24, 25, 24]
1.2[50, 81, 323, 128, 40, 24, 25, 24]
1.2[50, 81, 323, 128, 40, 24, 25, 24]
1.2[50, 81, 323, 128, 40, 24, 25, 24]
1.2[50, 81, 323, 128, 40, 24, 25, 24]
1.2[50, 81, 323, 128, 40, 24, 25, 24]
1.2[47, 67, 343, 156, 47, 26, 26, 24]
1.22[47, 67, 343, 156, 47, 26, 26, 24]
1.22[47, 67, 343, 156, 47, 26, 26, 24]
1.22[47, 67, 343, 156, 47, 26, 26, 24]
1.22[47, 67, 343, 156, 47, 26, 26, 24]
1.22[47, 67, 343, 156, 47, 26, 26, 24]
1.22[47, 67, 343, 156, 47, 26, 26, 24]
1.22[47, 67, 343, 156, 47, 26, 26, 24]
1.22[50, 71, 385, 171, 46, 23, 26, 28]
1.25[50, 71, 385, 171, 46, 23, 26, 28]
1.25[50, 71, 385, 171, 46, 23, 26, 28]
1.25[50, 71, 385, 171, 46, 23, 26, 28]
1.25[50, 71, 385, 171, 46, 23, 26, 28]
1.25[50, 71, 385, 171, 46, 23, 26, 28]
1.25[50, 71, 385, 171, 46, 23, 26, 28]
1.25[50, 71, 385, 171, 46, 23, 26, 28]
1.25[53, 76, 379, 176, 50, 26, 24, 29]
1.26[53, 76, 379, 176, 50, 26, 24, 29]
1.26[53, 76, 379, 176, 50, 26, 24, 29]
1.26[53, 76, 379, 176, 50, 26, 24, 29]
1.26[53, 76, 379, 176, 50, 26, 24, 29]
1.26[53, 76, 379, 176, 50, 26, 24, 29]
1.26[53, 76, 379, 176, 50, 26, 24, 29]
1.26[53, 76, 379, 176, 50, 26, 24, 29]
1.26[50, 73, 361, 176, 50, 27, 23, 29]
1.28[50, 73, 361, 176, 50, 27, 23, 29]
1.28[50, 73, 361, 176, 50, 27, 23, 29]
1.28[50, 73, 361, 176, 50, 27, 23, 29]
1.28[50, 73, 361, 176, 50, 27, 23, 29]
1.28[50, 73, 361, 176, 50, 27, 23, 29]
1.28[50, 73, 361, 176, 50, 27, 23, 29]
1.28[50, 73, 361, 176, 50, 27, 23, 29]
1.28[48, 69, 374, 163, 49, 29, 26, 29]
1.3[48, 69, 374, 163, 49, 29, 26, 29]
1.3[48, 69, 374, 163, 49, 29, 26, 29]
1.3[48, 69, 374, 163, 49, 29, 26, 29]
1.3[48, 69, 374, 163, 49, 29, 26, 29]
1.3[48, 69, 374, 163, 49, 29, 26, 29]
1.3[48, 69, 374, 163, 49, 29, 26, 29]
1.3[48, 69, 374, 163, 49, 29, 26, 29]
1.3[51, 70, 288, 141, 42, 28, 26, 29]
1.32[51, 70, 288, 141, 42, 28, 26, 29]
1.32[51, 70, 288, 141, 42, 28, 26, 29]
1.32[51, 70, 288, 141, 42, 28, 26, 29]
1.32[51, 70, 288, 141, 42, 28, 26, 29]
1.32[51, 70, 288, 141, 42, 28, 26, 29]
1.32[51, 70, 288, 141, 42, 28, 26, 29]
1.32[51, 70, 288, 141, 42, 28, 26, 29]
1.32[49, 68, 245, 121, 46, 29, 27, 27]
1.34[49, 68, 245, 121, 46, 29, 27, 27]
1.34[49, 68, 245, 121, 46, 29, 27, 27]
1.34[49, 68, 245, 121, 46, 29, 27, 27]
1.34[49, 68, 245, 121, 46, 29, 27, 27]
1.34[49, 68, 245, 121, 46, 29, 27, 27]
1.34[49, 68, 245, 121, 46, 29, 27, 27]
1.34[49, 68, 245, 121, 46, 29, 27, 27]
1.34[48, 62, 246, 112, 47, 28, 27, 25]
1.36[48, 62, 246, 112, 47, 28, 27, 25]
1.36[48, 62, 246, 112, 47, 28, 27, 25]
1.36[48, 62, 246, 112, 47, 28, 27, 25]
1.36[48, 62, 246, 112, 47, 28, 27, 25]
1.36[48, 62, 246, 112, 47, 28, 27, 25]
1.36[48, 62, 246, 112, 47, 28, 27, 25]
1.36[48, 62, 246, 112, 47, 28, 27, 25]
1.36[44, 53, 264, 121, 52, 32, 27, 23]
1.39[44, 53, 264, 121, 52, 32, 27, 23]
1.39[44, 53, 264, 121, 52, 32, 27, 23]
1.39[44, 53, 264, 121, 52, 32, 27, 23]
1.39[44, 53, 264, 121, 52, 32, 27, 23]
1.39[44, 53, 264, 121, 52, 32, 27, 23]
1.39[44, 53, 264, 121, 52, 32, 27, 23]
1.39[44, 53, 264, 121, 52, 32, 27, 23]
1.39[48, 58, 246, 128, 53, 32, 27, 28]
1.4[48, 58, 246, 128, 53, 32, 27, 28]
1.4[48, 58, 246, 128, 53, 32, 27, 28]
1.4[48, 58, 246, 128, 53, 32, 27, 28]
1.4[48, 58, 246, 128, 53, 32, 27, 28]
1.4[48, 58, 246, 128, 53, 32, 27, 28]
1.4[48, 58, 246, 128, 53, 32, 27, 28]
1.4[48, 58, 246, 128, 53, 32, 27, 28]
1.4[43, 58, 248, 151, 57, 32, 24, 27]
1.42[43, 58, 248, 151, 57, 32, 24, 27]
1.42[43, 58, 248, 151, 57, 32, 24, 27]
1.42[43, 58, 248, 151, 57, 32, 24, 27]
1.42[43, 58, 248, 151, 57, 32, 24, 27]
1.42[43, 58, 248, 151, 57, 32, 24, 27]
1.42[43, 58, 248, 151, 57, 32, 24, 27]
1.42[43, 58, 248, 151, 57, 32, 24, 27]
1.42[45, 60, 286, 174, 57, 35, 25, 27]
1.45[45, 60, 286, 174, 57, 35, 25, 27]
1.45[45, 60, 286, 174, 57, 35, 25, 27]
1.45[45, 60, 286, 174, 57, 35, 25, 27]
1.45[45, 60, 286, 174, 57, 35, 25, 27]
1.45[45, 60, 286, 174, 57, 35, 25, 27]
1.45[45, 60, 286, 174, 57, 35, 25, 27]
1.45[45, 60, 286, 174, 57, 35, 25, 27]
1.45[49, 67, 283, 178, 54, 35, 28, 29]
1.47[49, 67, 283, 178, 54, 35, 28, 29]
1.47[49, 67, 283, 178, 54, 35, 28, 29]
1.47[49, 67, 283, 178, 54, 35, 28, 29]
1.47[49, 67, 283, 178, 54, 35, 28, 29]
1.47[49, 67, 283, 178, 54, 35, 28, 29]
1.47[49, 67, 283, 178, 54, 35, 28, 29]
1.47[49, 67, 283, 178, 54, 35, 28, 29]
1.47[48, 68, 266, 174, 50, 32, 27, 30]
1.48[48, 68, 266, 174, 50, 32, 27, 30]
1.48[48, 68, 266, 174, 50, 32, 27, 30]
1.48[48, 68, 266, 174, 50, 32, 27, 30]
1.48[48, 68, 266, 174, 50, 32, 27, 30]
1.48[48, 68, 266, 174, 50, 32, 27, 30]
1.48[48, 68, 266, 174, 50, 32, 27, 30]
1.48[48, 68, 266, 174, 50, 32, 27, 30]
1.48[44, 69, 289, 169, 50, 31, 25, 25]
1.51[44, 69, 289, 169, 50, 31, 25, 25]
1.51[44, 69, 289, 169, 50, 31, 25, 25]
1.51[44, 69, 289, 169, 50, 31, 25, 25]
1.51[44, 69, 289, 169, 50, 31, 25, 25]
1.51[44, 69, 289, 169, 50, 31, 25, 25]
1.51[44, 69, 289, 169, 50, 31, 25, 25]
1.51[44, 69, 289, 169, 50, 31, 25, 25]
1.51[46, 71, 279, 162, 49, 31, 27, 25]
1.53[46, 71, 279, 162, 49, 31, 27, 25]
1.53[46, 71, 279, 162, 49, 31, 27, 25]
1.53[46, 71, 279, 162, 49, 31, 27, 25]
1.53[46, 71, 279, 162, 49, 31, 27, 25]
1.53[46, 71, 279, 162, 49, 31, 27, 25]
1.53[46, 71, 279, 162, 49, 31, 27, 25]
1.53[46, 71, 279, 162, 49, 31, 27, 25]
1.53[47, 72, 241, 144, 45, 28, 25, 26]
1.54[47, 72, 241, 144, 45, 28, 25, 26]
1.54[47, 72, 241, 144, 45, 28, 25, 26]
1.54[47, 72, 241, 144, 45, 28, 25, 26]
1.54[47, 72, 241, 144, 45, 28, 25, 26]
1.54[47, 72, 241, 144, 45, 28, 25, 26]
1.54[47, 72, 241, 144, 45, 28, 25, 26]
1.54[47, 72, 241, 144, 45, 28, 25, 26]
1.54[44, 70, 308, 136, 44, 28, 22, 25]
1.57[44, 70, 308, 136, 44, 28, 22, 25]
1.57[44, 70, 308, 136, 44, 28, 22, 25]
1.57[44, 70, 308, 136, 44, 28, 22, 25]
1.57[44, 70, 308, 136, 44, 28, 22, 25]
1.57[44, 70, 308, 136, 44, 28, 22, 25]
1.57[44, 70, 308, 136, 44, 28, 22, 25]
1.57[44, 70, 308, 136, 44, 28, 22, 25]
1.57[46, 72, 343, 135, 42, 29, 22, 25]
1.59[46, 72, 343, 135, 42, 29, 22, 25]
1.59[46, 72, 343, 135, 42, 29, 22, 25]
1.59[46, 72, 343, 135, 42, 29, 22, 25]
1.59[46, 72, 343, 135, 42, 29, 22, 25]
1.59[46, 72, 343, 135, 42, 29, 22, 25]
1.59[46, 72, 343, 135, 42, 29, 22, 25]
1.59[46, 72, 343, 135, 42, 29, 22, 25]
1.59[47, 72, 328, 151, 47, 27, 20, 25]
1.61[47, 72, 328, 151, 47, 27, 20, 25]
1.61[47, 72, 328, 151, 47, 27, 20, 25]
1.61[47, 72, 328, 151, 47, 27, 20, 25]
1.61[47, 72, 328, 151, 47, 27, 20, 25]
1.61[47, 72, 328, 151, 47, 27, 20, 25]
1.61[47, 72, 328, 151, 47, 27, 20, 25]
1.61[47, 72, 328, 151, 47, 27, 20, 25]
1.61[45, 71, 333, 153, 50, 29, 22, 25]
1.63[45, 71, 333, 153, 50, 29, 22, 25]
1.63[45, 71, 333, 153, 50, 29, 22, 25]
1.63[45, 71, 333, 153, 50, 29, 22, 25]
1.63[45, 71, 333, 153, 50, 29, 22, 25]
1.63[45, 71, 333, 153, 50, 29, 22, 25]
1.63[45, 71, 333, 153, 50, 29, 22, 25]
1.63[45, 71, 333, 153, 50, 29, 22, 25]
1.63[42, 67, 321, 138, 48, 26, 21, 22]
1.65[42, 67, 321, 138, 48, 26, 21, 22]
1.65[42, 67, 321, 138, 48, 26, 21, 22]
1.65[42, 67, 321, 138, 48, 26, 21, 22]
1.65[42, 67, 321, 138, 48, 26, 21, 22]
1.65[42, 67, 321, 138, 48, 26, 21, 22]
1.65[42, 67, 321, 138, 48, 26, 21, 22]
1.65[42, 67, 321, 138, 48, 26, 21, 22]
1.65[42, 65, 250, 133, 48, 25, 21, 21]
1.66[42, 65, 250, 133, 48, 25, 21, 21]
1.66[42, 65, 250, 133, 48, 25, 21, 21]
1.66[42, 65, 250, 133, 48, 25, 21, 21]
1.66[42, 65, 250, 133, 48, 25, 21, 21]
1.66[42, 65, 250, 133, 48, 25, 21, 21]
1.66[42, 65, 250, 133, 48, 25, 21, 21]
1.66[42, 65, 250, 133, 48, 25, 21, 21]
1.66[53, 69, 207, 165, 58, 26, 24, 26]
1.69[53, 69, 207, 165, 58, 26, 24, 26]
1.69[53, 69, 207, 165, 58, 26, 24, 26]
1.69[53, 69, 207, 165, 58, 26, 24, 26]
1.69[53, 69, 207, 165, 58, 26, 24, 26]
1.69[53, 69, 207, 165, 58, 26, 24, 26]
1.69[53, 69, 207, 165, 58, 26, 24, 26]
1.69[53, 69, 207, 165, 58, 26, 24, 26]
1.69[51, 61, 180, 151, 55, 30, 24, 29]
1.71[51, 61, 180, 151, 55, 30, 24, 29]
1.71[51, 61, 180, 151, 55, 30, 24, 29]
1.71[51, 61, 180, 151, 55, 30, 24, 29]
1.71[51, 61, 180, 151, 55, 30, 24, 29]
1.71[51, 61, 180, 151, 55, 30, 24, 29]
1.71[51, 61, 180, 151, 55, 30, 24, 29]
1.71[51, 61, 180, 151, 55, 30, 24, 29]
1.71[51, 61, 211, 136, 50, 27, 21, 29]
1.72[51, 61, 211, 136, 50, 27, 21, 29]
1.72[51, 61, 211, 136, 50, 27, 21, 29]
1.72[51, 61, 211, 136, 50, 27, 21, 29]
1.72[51, 61, 211, 136, 50, 27, 21, 29]
1.72[51, 61, 211, 136, 50, 27, 21, 29]
1.72[51, 61, 211, 136, 50, 27, 21, 29]
1.72[51, 61, 211, 136, 50, 27, 21, 29]
1.72[59, 70, 202, 140, 56, 31, 25, 30]
1.75[59, 70, 202, 140, 56, 31, 25, 30]
1.75[59, 70, 202, 140, 56, 31, 25, 30]
1.75[59, 70, 202, 140, 56, 31, 25, 30]
1.75[59, 70, 202, 140, 56, 31, 25, 30]
1.75[59, 70, 202, 140, 56, 31, 25, 30]
1.75[59, 70, 202, 140, 56, 31, 25, 30]
1.75[59, 70, 202, 140, 56, 31, 25, 30]
1.75[65, 77, 213, 142, 54, 33, 25, 31]
1.77[65, 77, 213, 142, 54, 33, 25, 31]
1.77[65, 77, 213, 142, 54, 33, 25, 31]
1.77[65, 77, 213, 142, 54, 33, 25, 31]
1.77[65, 77, 213, 142, 54, 33, 25, 31]
1.77[65, 77, 213, 142, 54, 33, 25, 31]
1.77[65, 77, 213, 142, 54, 33, 25, 31]
1.77[65, 77, 213, 142, 54, 33, 25, 31]
1.77[58, 81, 217, 112, 46, 32, 23, 29]
1.78[58, 81, 217, 112, 46, 32, 23, 29]
1.78[58, 81, 217, 112, 46, 32, 23, 29]
1.78[58, 81, 217, 112, 46, 32, 23, 29]
1.78[58, 81, 217, 112, 46, 32, 23, 29]
1.78[58, 81, 217, 112, 46, 32, 23, 29]
1.78[58, 81, 217, 112, 46, 32, 23, 29]
1.78[58, 81, 217, 112, 46, 32, 23, 29]
1.78[59, 84, 252, 128, 49, 33, 23, 27]
1.81[59, 84, 252, 128, 49, 33, 23, 27]
1.81[59, 84, 252, 128, 49, 33, 23, 27]
1.81[59, 84, 252, 128, 49, 33, 23, 27]
1.81[59, 84, 252, 128, 49, 33, 23, 27]
1.81[59, 84, 252, 128, 49, 33, 23, 27]
1.81[59, 84, 252, 128, 49, 33, 23, 27]
1.81[59, 84, 252, 128, 49, 33, 23, 27]
1.81[64, 87, 221, 127, 51, 35, 25, 30]
1.83[64, 87, 221, 127, 51, 35, 25, 30]
1.83[64, 87, 221, 127, 51, 35, 25, 30]
1.83[64, 87, 221, 127, 51, 35, 25, 30]
1.83[64, 87, 221, 127, 51, 35, 25, 30]
1.83[64, 87, 221, 127, 51, 35, 25, 30]
1.83[64, 87, 221, 127, 51, 35, 25, 30]
1.83[64, 87, 221, 127, 51, 35, 25, 30]
1.83[55, 85, 262, 125, 43, 33, 22, 28]
1.85[55, 85, 262, 125, 43, 33, 22, 28]
1.85[55, 85, 262, 125, 43, 33, 22, 28]
1.85[55, 85, 262, 125, 43, 33, 22, 28]
1.85[55, 85, 262, 125, 43, 33, 22, 28]
1.85[55, 85, 262, 125, 43, 33, 22, 28]
1.85[55, 85, 262, 125, 43, 33, 22, 28]
1.85[55, 85, 262, 125, 43, 33, 22, 28]
1.85[54, 84, 274, 129, 49, 32, 23, 28]
1.87[54, 84, 274, 129, 49, 32, 23, 28]
1.87[54, 84, 274, 129, 49, 32, 23, 28]
1.87[54, 84, 274, 129, 49, 32, 23, 28]
1.87[54, 84, 274, 129, 49, 32, 23, 28]
1.87[54, 84, 274, 129, 49, 32, 23, 28]
1.87[54, 84, 274, 129, 49, 32, 23, 28]
1.87[54, 84, 274, 129, 49, 32, 23, 28]
1.87[52, 77, 273, 154, 53, 31, 22, 25]
1.89[52, 77, 273, 154, 53, 31, 22, 25]
1.89[52, 77, 273, 154, 53, 31, 22, 25]
1.89[52, 77, 273, 154, 53, 31, 22, 25]
1.89[52, 77, 273, 154, 53, 31, 22, 25]
1.89[52, 77, 273, 154, 53, 31, 22, 25]
1.89[52, 77, 273, 154, 53, 31, 22, 25]
1.89[52, 77, 273, 154, 53, 31, 22, 25]
1.89[50, 73, 264, 195, 64, 31, 23, 27]
1.91[50, 73, 264, 195, 64, 31, 23, 27]
1.91[50, 73, 264, 195, 64, 31, 23, 27]
1.91[50, 73, 264, 195, 64, 31, 23, 27]
1.91[50, 73, 264, 195, 64, 31, 23, 27]
1.91[50, 73, 264, 195, 64, 31, 23, 27]
1.91[50, 73, 264, 195, 64, 31, 23, 27]
1.91[50, 73, 264, 195, 64, 31, 23, 27]
1.91[54, 82, 263, 198, 66, 28, 21, 25]
1.93[54, 82, 263, 198, 66, 28, 21, 25]
1.93[54, 82, 263, 198, 66, 28, 21, 25]
1.93[54, 82, 263, 198, 66, 28, 21, 25]
1.93[54, 82, 263, 198, 66, 28, 21, 25]
1.93[54, 82, 263, 198, 66, 28, 21, 25]
1.93[54, 82, 263, 198, 66, 28, 21, 25]
1.93[54, 82, 263, 198, 66, 28, 21, 25]
1.93[53, 77, 242, 202, 68, 27, 21, 26]
1.95[53, 77, 242, 202, 68, 27, 21, 26]
1.95[53, 77, 242, 202, 68, 27, 21, 26]
1.95[53, 77, 242, 202, 68, 27, 21, 26]
1.95[53, 77, 242, 202, 68, 27, 21, 26]
1.95[53, 77, 242, 202, 68, 27, 21, 26]
1.95[53, 77, 242, 202, 68, 27, 21, 26]
1.95[53, 77, 242, 202, 68, 27, 21, 26]
1.95[52, 80, 218, 199, 67, 30, 22, 28]
1.97[52, 80, 218, 199, 67, 30, 22, 28]
1.97[52, 80, 218, 199, 67, 30, 22, 28]
1.97[52, 80, 218, 199, 67, 30, 22, 28]
1.97[52, 80, 218, 199, 67, 30, 22, 28]
1.97[52, 80, 218, 199, 67, 30, 22, 28]
1.97[52, 80, 218, 199, 67, 30, 22, 28]
1.97[52, 80, 218, 199, 67, 30, 22, 28]
1.97[52, 76, 228, 184, 64, 29, 24, 29]
1.99[52, 76, 228, 184, 64, 29, 24, 29]
1.99[52, 76, 228, 184, 64, 29, 24, 29]
1.99[52, 76, 228, 184, 64, 29, 24, 29]
1.99[52, 76, 228, 184, 64, 29, 24, 29]
1.99[52, 76, 228, 184, 64, 29, 24, 29]
1.99[52, 76, 228, 184, 64, 29, 24, 29]
1.99[52, 76, 228, 184, 64, 29, 24, 29]
1.99[59, 84, 219, 147, 50, 26, 24, 28]
2.01[59, 84, 219, 147, 50, 26, 24, 28]
2.01[59, 84, 219, 147, 50, 26, 24, 28]
2.01[59, 84, 219, 147, 50, 26, 24, 28]
2.01[59, 84, 219, 147, 50, 26, 24, 28]
2.01[59, 84, 219, 147, 50, 26, 24, 28]
2.01[59, 84, 219, 147, 50, 26, 24, 28]
2.01[59, 84, 219, 147, 50, 26, 24, 28]
2.01[65, 96, 240, 182, 87, 39, 29, 32]
2.03[65, 96, 240, 182, 87, 39, 29, 32]
2.03[65, 96, 240, 182, 87, 39, 29, 32]
2.03[65, 96, 240, 182, 87, 39, 29, 32]
2.03[65, 96, 240, 182, 87, 39, 29, 32]
2.03[65, 96, 240, 182, 87, 39, 29, 32]
2.03[65, 96, 240, 182, 87, 39, 29, 32]
2.03[65, 96, 240, 182, 87, 39, 29, 32]
2.03[69, 99, 220, 185, 91, 40, 29, 33]
2.05[69, 99, 220, 185, 91, 40, 29, 33]
2.05[69, 99, 220, 185, 91, 40, 29, 33]
2.05[69, 99, 220, 185, 91, 40, 29, 33]
2.05[69, 99, 220, 185, 91, 40, 29, 33]
2.05[69, 99, 220, 185, 91, 40, 29, 33]
2.05[69, 99, 220, 185, 91, 40, 29, 33]
2.05[69, 99, 220, 185, 91, 40, 29, 33]
2.05[67, 94, 251, 187, 92, 39, 31, 32]
2.07[67, 94, 251, 187, 92, 39, 31, 32]
2.07[67, 94, 251, 187, 92, 39, 31, 32]
2.07[67, 94, 251, 187, 92, 39, 31, 32]
2.07[67, 94, 251, 187, 92, 39, 31, 32]
2.07[67, 94, 251, 187, 92, 39, 31, 32]
2.07[67, 94, 251, 187, 92, 39, 31, 32]
2.07[67, 94, 251, 187, 92, 39, 31, 32]
2.07[66, 95, 236, 190, 92, 41, 31, 32]
2.09[66, 95, 236, 190, 92, 41, 31, 32]
2.09[66, 95, 236, 190, 92, 41, 31, 32]
2.09[66, 95, 236, 190, 92, 41, 31, 32]
2.09[66, 95, 236, 190, 92, 41, 31, 32]
2.09[66, 95, 236, 190, 92, 41, 31, 32]
2.09[66, 95, 236, 190, 92, 41, 31, 32]
2.09[66, 95, 236, 190, 92, 41, 31, 32]
2.09[66, 91, 213, 203, 103, 43, 33, 34]
2.11[66, 91, 213, 203, 103, 43, 33, 34]
2.11[66, 91, 213, 203, 103, 43, 33, 34]
2.11[66, 91, 213, 203, 103, 43, 33, 34]
2.11[66, 91, 213, 203, 103, 43, 33, 34]
2.11[66, 91, 213, 203, 103, 43, 33, 34]
2.11[66, 91, 213, 203, 103, 43, 33, 34]
2.11[66, 91, 213, 203, 103, 43, 33, 34]
2.11[49, 64, 215, 184, 76, 32, 28, 28]
2.13[49, 64, 215, 184, 76, 32, 28, 28]
2.13[49, 64, 215, 184, 76, 32, 28, 28]
2.13[49, 64, 215, 184, 76, 32, 28, 28]
2.13[49, 64, 215, 184, 76, 32, 28, 28]
2.13[49, 64, 215, 184, 76, 32, 28, 28]
2.13[49, 64, 215, 184, 76, 32, 28, 28]
2.13[49, 64, 215, 184, 76, 32, 28, 28]
2.13[52, 70, 246, 182, 73, 32, 28, 28]
2.16[52, 70, 246, 182, 73, 32, 28, 28]
2.16[52, 70, 246, 182, 73, 32, 28, 28]
2.16[52, 70, 246, 182, 73, 32, 28, 28]
2.16[52, 70, 246, 182, 73, 32, 28, 28]
2.16[52, 70, 246, 182, 73, 32, 28, 28]
2.16[52, 70, 246, 182, 73, 32, 28, 28]
2.16[52, 70, 246, 182, 73, 32, 28, 28]
2.16[58, 71, 278, 216, 79, 34, 25, 30]
2.17[58, 71, 278, 216, 79, 34, 25, 30]
2.17[58, 71, 278, 216, 79, 34, 25, 30]
2.17[58, 71, 278, 216, 79, 34, 25, 30]
2.17[58, 71, 278, 216, 79, 34, 25, 30]
2.17[58, 71, 278, 216, 79, 34, 25, 30]
2.17[58, 71, 278, 216, 79, 34, 25, 30]
2.17[58, 71, 278, 216, 79, 34, 25, 30]
2.17[56, 68, 294, 219, 80, 33, 24, 28]
2.19[56, 68, 294, 219, 80, 33, 24, 28]
2.19[56, 68, 294, 219, 80, 33, 24, 28]
2.19[56, 68, 294, 219, 80, 33, 24, 28]
2.19[56, 68, 294, 219, 80, 33, 24, 28]
2.19[56, 68, 294, 219, 80, 33, 24, 28]
2.19[56, 68, 294, 219, 80, 33, 24, 28]
2.19[56, 68, 294, 219, 80, 33, 24, 28]
2.19[53, 66, 306, 196, 66, 28, 22, 26]
2.21[53, 66, 306, 196, 66, 28, 22, 26]
2.21[53, 66, 306, 196, 66, 28, 22, 26]
2.21[53, 66, 306, 196, 66, 28, 22, 26]
2.21[53, 66, 306, 196, 66, 28, 22, 26]
2.21[53, 66, 306, 196, 66, 28, 22, 26]
2.21[53, 66, 306, 196, 66, 28, 22, 26]
2.21[53, 66, 306, 196, 66, 28, 22, 26]
2.21[55, 67, 282, 179, 59, 30, 24, 27]
2.23[55, 67, 282, 179, 59, 30, 24, 27]
2.23[55, 67, 282, 179, 59, 30, 24, 27]
2.23[55, 67, 282, 179, 59, 30, 24, 27]
2.23[55, 67, 282, 179, 59, 30, 24, 27]
2.23[55, 67, 282, 179, 59, 30, 24, 27]
2.23[55, 67, 282, 179, 59, 30, 24, 27]
2.23[55, 67, 282, 179, 59, 30, 24, 27]
2.23[50, 61, 300, 182, 61, 28, 27, 27]
2.25[50, 61, 300, 182, 61, 28, 27, 27]
2.25[50, 61, 300, 182, 61, 28, 27, 27]
2.25[50, 61, 300, 182, 61, 28, 27, 27]
2.25[50, 61, 300, 182, 61, 28, 27, 27]
2.25[50, 61, 300, 182, 61, 28, 27, 27]
2.25[50, 61, 300, 182, 61, 28, 27, 27]
2.25[50, 61, 300, 182, 61, 28, 27, 27]
2.25[43, 63, 265, 146, 50, 23, 25, 22]
2.27[43, 63, 265, 146, 50, 23, 25, 22]
2.27[43, 63, 265, 146, 50, 23, 25, 22]
2.27[43, 63, 265, 146, 50, 23, 25, 22]
2.27[43, 63, 265, 146, 50, 23, 25, 22]
2.27[43, 63, 265, 146, 50, 23, 25, 22]
2.27[43, 63, 265, 146, 50, 23, 25, 22]
2.27[43, 63, 265, 146, 50, 23, 25, 22]
2.27[49, 72, 245, 128, 45, 23, 27, 24]
2.29[49, 72, 245, 128, 45, 23, 27, 24]
2.29[49, 72, 245, 128, 45, 23, 27, 24]
2.29[49, 72, 245, 128, 45, 23, 27, 24]
2.29[49, 72, 245, 128, 45, 23, 27, 24]
2.29[49, 72, 245, 128, 45, 23, 27, 24]
2.29[49, 72, 245, 128, 45, 23, 27, 24]
2.29[49, 72, 245, 128, 45, 23, 27, 24]
2.29[45, 71, 264, 135, 44, 24, 26, 22]
2.31[45, 71, 264, 135, 44, 24, 26, 22]
2.31[45, 71, 264, 135, 44, 24, 26, 22]
2.31[45, 71, 264, 135, 44, 24, 26, 22]
2.31[45, 71, 264, 135, 44, 24, 26, 22]
2.31[45, 71, 264, 135, 44, 24, 26, 22]
2.31[45, 71, 264, 135, 44, 24, 26, 22]
2.31[45, 71, 264, 135, 44, 24, 26, 22]
2.31[43, 70, 276, 149, 47, 21, 26, 22]
2.33[43, 70, 276, 149, 47, 21, 26, 22]
2.33[43, 70, 276, 149, 47, 21, 26, 22]
2.33[43, 70, 276, 149, 47, 21, 26, 22]
2.33[43, 70, 276, 149, 47, 21, 26, 22]
2.33[43, 70, 276, 149, 47, 21, 26, 22]
2.33[43, 70, 276, 149, 47, 21, 26, 22]
2.33[43, 70, 276, 149, 47, 21, 26, 22]
2.33[40, 65, 242, 168, 48, 23, 21, 21]
2.35[40, 65, 242, 168, 48, 23, 21, 21]
2.35[40, 65, 242, 168, 48, 23, 21, 21]
2.35[40, 65, 242, 168, 48, 23, 21, 21]
2.35[40, 65, 242, 168, 48, 23, 21, 21]
2.35[40, 65, 242, 168, 48, 23, 21, 21]
2.35[40, 65, 242, 168, 48, 23, 21, 21]
2.35[40, 65, 242, 168, 48, 23, 21, 21]
2.35[48, 74, 241, 168, 54, 26, 22, 23]
2.37[48, 74, 241, 168, 54, 26, 22, 23]
2.37[48, 74, 241, 168, 54, 26, 22, 23]
2.37[48, 74, 241, 168, 54, 26, 22, 23]
2.37[48, 74, 241, 168, 54, 26, 22, 23]
2.37[48, 74, 241, 168, 54, 26, 22, 23]
2.37[48, 74, 241, 168, 54, 26, 22, 23]
2.37[48, 74, 241, 168, 54, 26, 22, 23]
2.37[43, 63, 241, 180, 62, 24, 21, 20]
2.39[43, 63, 241, 180, 62, 24, 21, 20]
2.39[43, 63, 241, 180, 62, 24, 21, 20]
2.39[43, 63, 241, 180, 62, 24, 21, 20]
2.39[43, 63, 241, 180, 62, 24, 21, 20]
2.39[43, 63, 241, 180, 62, 24, 21, 20]
2.39[43, 63, 241, 180, 62, 24, 21, 20]
2.39[43, 63, 241, 180, 62, 24, 21, 20]
2.39[47, 68, 211, 175, 64, 27, 24, 22]
2.41[47, 68, 211, 175, 64, 27, 24, 22]
2.41[47, 68, 211, 175, 64, 27, 24, 22]
2.41[47, 68, 211, 175, 64, 27, 24, 22]
2.41[47, 68, 211, 175, 64, 27, 24, 22]
2.41[47, 68, 211, 175, 64, 27, 24, 22]
2.41[47, 68, 211, 175, 64, 27, 24, 22]
2.41[47, 68, 211, 175, 64, 27, 24, 22]
2.41[48, 77, 243, 161, 62, 27, 24, 22]
2.43[48, 77, 243, 161, 62, 27, 24, 22]
2.43[48, 77, 243, 161, 62, 27, 24, 22]
2.43[48, 77, 243, 161, 62, 27, 24, 22]
2.43[48, 77, 243, 161, 62, 27, 24, 22]
2.43[48, 77, 243, 161, 62, 27, 24, 22]
2.43[48, 77, 243, 161, 62, 27, 24, 22]
2.43[48, 77, 243, 161, 62, 27, 24, 22]
2.43[53, 82, 228, 130, 55, 25, 22, 22]
2.45[53, 82, 228, 130, 55, 25, 22, 22]
2.45[53, 82, 228, 130, 55, 25, 22, 22]
2.45[53, 82, 228, 130, 55, 25, 22, 22]
2.45[53, 82, 228, 130, 55, 25, 22, 22]
2.45[53, 82, 228, 130, 55, 25, 22, 22]
2.45[53, 82, 228, 130, 55, 25, 22, 22]
2.45[53, 82, 228, 130, 55, 25, 22, 22]
2.45[55, 83, 217, 140, 55, 27, 23, 24]
2.47[55, 83, 217, 140, 55, 27, 23, 24]
2.47[55, 83, 217, 140, 55, 27, 23, 24]
2.47[55, 83, 217, 140, 55, 27, 23, 24]
2.47[55, 83, 217, 140, 55, 27, 23, 24]
2.47[55, 83, 217, 140, 55, 27, 23, 24]
2.47[55, 83, 217, 140, 55, 27, 23, 24]
2.47[55, 83, 217, 140, 55, 27, 23, 24]
2.47[56, 87, 224, 140, 47, 28, 23, 24]
2.49[56, 87, 224, 140, 47, 28, 23, 24]
2.49[56, 87, 224, 140, 47, 28, 23, 24]
2.49[56, 87, 224, 140, 47, 28, 23, 24]
2.49[56, 87, 224, 140, 47, 28, 23, 24]
2.49[56, 87, 224, 140, 47, 28, 23, 24]
2.49[56, 87, 224, 140, 47, 28, 23, 24]
2.49[56, 87, 224, 140, 47, 28, 23, 24]
2.49[55, 84, 220, 140, 46, 25, 19, 24]
2.51[55, 84, 220, 140, 46, 25, 19, 24]
2.51[55, 84, 220, 140, 46, 25, 19, 24]
2.51[55, 84, 220, 140, 46, 25, 19, 24]
2.51[55, 84, 220, 140, 46, 25, 19, 24]
2.51[55, 84, 220, 140, 46, 25, 19, 24]
2.51[55, 84, 220, 140, 46, 25, 19, 24]
2.51[55, 84, 220, 140, 46, 25, 19, 24]
2.51[56, 82, 169, 135, 49, 26, 23, 23]
2.53[56, 82, 169, 135, 49, 26, 23, 23]
2.53[56, 82, 169, 135, 49, 26, 23, 23]
2.53[56, 82, 169, 135, 49, 26, 23, 23]
2.53[56, 82, 169, 135, 49, 26, 23, 23]
2.53[56, 82, 169, 135, 49, 26, 23, 23]
2.53[56, 82, 169, 135, 49, 26, 23, 23]
2.53[56, 82, 169, 135, 49, 26, 23, 23]
2.53[54, 78, 182, 154, 54, 28, 24, 24]
2.55[54, 78, 182, 154, 54, 28, 24, 24]
2.55[54, 78, 182, 154, 54, 28, 24, 24]
2.55[54, 78, 182, 154, 54, 28, 24, 24]
2.55[54, 78, 182, 154, 54, 28, 24, 24]
2.55[54, 78, 182, 154, 54, 28, 24, 24]
2.55[54, 78, 182, 154, 54, 28, 24, 24]
2.55[54, 78, 182, 154, 54, 28, 24, 24]
2.55[43, 68, 168, 183, 51, 27, 23, 21]
2.57[43, 68, 168, 183, 51, 27, 23, 21]
2.57[43, 68, 168, 183, 51, 27, 23, 21]
2.57[43, 68, 168, 183, 51, 27, 23, 21]
2.57[43, 68, 168, 183, 51, 27, 23, 21]
2.57[43, 68, 168, 183, 51, 27, 23, 21]
2.57[43, 68, 168, 183, 51, 27, 23, 21]
2.57[43, 68, 168, 183, 51, 27, 23, 21]
2.57[44, 66, 159, 175, 52, 26, 23, 22]
2.59[44, 66, 159, 175, 52, 26, 23, 22]
2.59[44, 66, 159, 175, 52, 26, 23, 22]
2.59[44, 66, 159, 175, 52, 26, 23, 22]
2.59[44, 66, 159, 175, 52, 26, 23, 22]
2.59[44, 66, 159, 175, 52, 26, 23, 22]
2.59[44, 66, 159, 175, 52, 26, 23, 22]
2.59[44, 66, 159, 175, 52, 26, 23, 22]
2.59[48, 71, 174, 168, 52, 28, 26, 24]
2.61[48, 71, 174, 168, 52, 28, 26, 24]
2.61[48, 71, 174, 168, 52, 28, 26, 24]
2.61[48, 71, 174, 168, 52, 28, 26, 24]
2.61[48, 71, 174, 168, 52, 28, 26, 24]
2.61[48, 71, 174, 168, 52, 28, 26, 24]
2.61[48, 71, 174, 168, 52, 28, 26, 24]
2.61[48, 71, 174, 168, 52, 28, 26, 24]
2.61[47, 63, 173, 171, 52, 29, 26, 24]
2.63[47, 63, 173, 171, 52, 29, 26, 24]
2.63[47, 63, 173, 171, 52, 29, 26, 24]
2.63[47, 63, 173, 171, 52, 29, 26, 24]
2.63[47, 63, 173, 171, 52, 29, 26, 24]
2.63[47, 63, 173, 171, 52, 29, 26, 24]
2.63[47, 63, 173, 171, 52, 29, 26, 24]
2.63[47, 63, 173, 171, 52, 29, 26, 24]
2.63[45, 61, 170, 172, 48, 28, 26, 23]
2.65[45, 61, 170, 172, 48, 28, 26, 23]
2.65[45, 61, 170, 172, 48, 28, 26, 23]
2.65[45, 61, 170, 172, 48, 28, 26, 23]
2.65[45, 61, 170, 172, 48, 28, 26, 23]
2.65[45, 61, 170, 172, 48, 28, 26, 23]
2.65[45, 61, 170, 172, 48, 28, 26, 23]
2.65[45, 61, 170, 172, 48, 28, 26, 23]
2.65[51, 70, 193, 155, 50, 30, 26, 26]
2.67[51, 70, 193, 155, 50, 30, 26, 26]
2.67[51, 70, 193, 155, 50, 30, 26, 26]
2.67[51, 70, 193, 155, 50, 30, 26, 26]
2.67[51, 70, 193, 155, 50, 30, 26, 26]
2.67[51, 70, 193, 155, 50, 30, 26, 26]
2.67[51, 70, 193, 155, 50, 30, 26, 26]
2.67[51, 70, 193, 155, 50, 30, 26, 26]
2.67[52, 70, 198, 156, 49, 31, 27, 26]
2.69[52, 70, 198, 156, 49, 31, 27, 26]
2.69[52, 70, 198, 156, 49, 31, 27, 26]
2.69[52, 70, 198, 156, 49, 31, 27, 26]
2.69[52, 70, 198, 156, 49, 31, 27, 26]
2.69[52, 70, 198, 156, 49, 31, 27, 26]
2.69[52, 70, 198, 156, 49, 31, 27, 26]
2.69[52, 70, 198, 156, 49, 31, 27, 26]
2.69[56, 73, 195, 165, 50, 29, 25, 31]
2.71[56, 73, 195, 165, 50, 29, 25, 31]
2.71[56, 73, 195, 165, 50, 29, 25, 31]
2.71[56, 73, 195, 165, 50, 29, 25, 31]
2.71[56, 73, 195, 165, 50, 29, 25, 31]
2.71[56, 73, 195, 165, 50, 29, 25, 31]
2.71[56, 73, 195, 165, 50, 29, 25, 31]
2.71[56, 73, 195, 165, 50, 29, 25, 31]
2.71[55, 74, 212, 164, 49, 37, 24, 30]
2.73[55, 74, 212, 164, 49, 37, 24, 30]
2.73[55, 74, 212, 164, 49, 37, 24, 30]
2.73[55, 74, 212, 164, 49, 37, 24, 30]
2.73[55, 74, 212, 164, 49, 37, 24, 30]
2.73[55, 74, 212, 164, 49, 37, 24, 30]
2.73[55, 74, 212, 164, 49, 37, 24, 30]
2.73[55, 74, 212, 164, 49, 37, 24, 30]
2.73[61, 87, 260, 147, 50, 38, 25, 32]
2.75[61, 87, 260, 147, 50, 38, 25, 32]
2.75[61, 87, 260, 147, 50, 38, 25, 32]
2.75[61, 87, 260, 147, 50, 38, 25, 32]
2.75[61, 87, 260, 147, 50, 38, 25, 32]
2.75[61, 87, 260, 147, 50, 38, 25, 32]
2.75[61, 87, 260, 147, 50, 38, 25, 32]
2.75[61, 87, 260, 147, 50, 38, 25, 32]
2.75[58, 81, 259, 115, 42, 39, 26, 31]
2.77[58, 81, 259, 115, 42, 39, 26, 31]
2.77[58, 81, 259, 115, 42, 39, 26, 31]
2.77[58, 81, 259, 115, 42, 39, 26, 31]
2.77[58, 81, 259, 115, 42, 39, 26, 31]
2.77[58, 81, 259, 115, 42, 39, 26, 31]
2.77[58, 81, 259, 115, 42, 39, 26, 31]
2.77[58, 81, 259, 115, 42, 39, 26, 31]
2.77[57, 81, 258, 111, 45, 39, 25, 33]
2.79[57, 81, 258, 111, 45, 39, 25, 33]
2.79[57, 81, 258, 111, 45, 39, 25, 33]
2.79[57, 81, 258, 111, 45, 39, 25, 33]
2.79[57, 81, 258, 111, 45, 39, 25, 33]
2.79[57, 81, 258, 111, 45, 39, 25, 33]
2.79[57, 81, 258, 111, 45, 39, 25, 33]
2.79[57, 81, 258, 111, 45, 39, 25, 33]
2.79[52, 74, 261, 106, 45, 54, 30, 28]
2.81[52, 74, 261, 106, 45, 54, 30, 28]
2.81[52, 74, 261, 106, 45, 54, 30, 28]
2.81[52, 74, 261, 106, 45, 54, 30, 28]
2.81[52, 74, 261, 106, 45, 54, 30, 28]
2.81[52, 74, 261, 106, 45, 54, 30, 28]
2.81[52, 74, 261, 106, 45, 54, 30, 28]
2.81[52, 74, 261, 106, 45, 54, 30, 28]
2.81[54, 78, 277, 116, 52, 59, 31, 29]
2.83[54, 78, 277, 116, 52, 59, 31, 29]
2.83[54, 78, 277, 116, 52, 59, 31, 29]
2.83[54, 78, 277, 116, 52, 59, 31, 29]
2.83[54, 78, 277, 116, 52, 59, 31, 29]
2.83[54, 78, 277, 116, 52, 59, 31, 29]
2.83[54, 78, 277, 116, 52, 59, 31, 29]
2.83[54, 78, 277, 116, 52, 59, 31, 29]
2.83[52, 75, 234, 107, 51, 58, 32, 28]
2.85[52, 75, 234, 107, 51, 58, 32, 28]
2.85[52, 75, 234, 107, 51, 58, 32, 28]
2.85[52, 75, 234, 107, 51, 58, 32, 28]
2.85[52, 75, 234, 107, 51, 58, 32, 28]
2.85[52, 75, 234, 107, 51, 58, 32, 28]
2.85[52, 75, 234, 107, 51, 58, 32, 28]
2.85[52, 75, 234, 107, 51, 58, 32, 28]
2.85[51, 82, 213, 140, 54, 57, 31, 27]
2.87[51, 82, 213, 140, 54, 57, 31, 27]
2.87[51, 82, 213, 140, 54, 57, 31, 27]
2.87[51, 82, 213, 140, 54, 57, 31, 27]
2.87[51, 82, 213, 140, 54, 57, 31, 27]
2.87[51, 82, 213, 140, 54, 57, 31, 27]
2.87[51, 82, 213, 140, 54, 57, 31, 27]
2.87[51, 82, 213, 140, 54, 57, 31, 27]
2.87[58, 95, 256, 178, 54, 66, 32, 25]
2.89[58, 95, 256, 178, 54, 66, 32, 25]
2.89[58, 95, 256, 178, 54, 66, 32, 25]
2.89[58, 95, 256, 178, 54, 66, 32, 25]
2.89[58, 95, 256, 178, 54, 66, 32, 25]
2.89[58, 95, 256, 178, 54, 66, 32, 25]
2.89[58, 95, 256, 178, 54, 66, 32, 25]
2.89[58, 95, 256, 178, 54, 66, 32, 25]
2.89[59, 100, 242, 181, 52, 60, 26, 28]
2.91[59, 100, 242, 181, 52, 60, 26, 28]
2.91[59, 100, 242, 181, 52, 60, 26, 28]
2.91[59, 100, 242, 181, 52, 60, 26, 28]
2.91[59, 100, 242, 181, 52, 60, 26, 28]
2.91[59, 100, 242, 181, 52, 60, 26, 28]
2.91[59, 100, 242, 181, 52, 60, 26, 28]
2.91[59, 100, 242, 181, 52, 60, 26, 28]
2.91[57, 101, 265, 179, 46, 56, 24, 27]
2.93[57, 101, 265, 179, 46, 56, 24, 27]
2.93[57, 101, 265, 179, 46, 56, 24, 27]
2.93[57, 101, 265, 179, 46, 56, 24, 27]
2.93[57, 101, 265, 179, 46, 56, 24, 27]
2.93[57, 101, 265, 179, 46, 56, 24, 27]
2.93[57, 101, 265, 179, 46, 56, 24, 27]
2.93[57, 101, 265, 179, 46, 56, 24, 27]
2.93[58, 99, 277, 187, 47, 58, 22, 27]
2.95[58, 99, 277, 187, 47, 58, 22, 27]
2.95[58, 99, 277, 187, 47, 58, 22, 27]
2.95[58, 99, 277, 187, 47, 58, 22, 27]
2.95[58, 99, 277, 187, 47, 58, 22, 27]
2.95[58, 99, 277, 187, 47, 58, 22, 27]
2.95[58, 99, 277, 187, 47, 58, 22, 27]
2.95[58, 99, 277, 187, 47, 58, 22, 27]
2.95[65, 102, 311, 204, 55, 58, 27, 30]
2.98[65, 102, 311, 204, 55, 58, 27, 30]
2.98[65, 102, 311, 204, 55, 58, 27, 30]
2.98[65, 102, 311, 204, 55, 58, 27, 30]
2.98[65, 102, 311, 204, 55, 58, 27, 30]
2.98[65, 102, 311, 204, 55, 58, 27, 30]
2.98[65, 102, 311, 204, 55, 58, 27, 30]
2.98[65, 102, 311, 204, 55, 58, 27, 30]
2.98[62, 96, 285, 185, 57, 51, 28, 30]
2.99[62, 96, 285, 185, 57, 51, 28, 30]
2.99[62, 96, 285, 185, 57, 51, 28, 30]
2.99[62, 96, 285, 185, 57, 51, 28, 30]
2.99[62, 96, 285, 185, 57, 51, 28, 30]
2.99[62, 96, 285, 185, 57, 51, 28, 30]
2.99[62, 96, 285, 185, 57, 51, 28, 30]
2.99[62, 96, 285, 185, 57, 51, 28, 30]
2.99[57, 94, 298, 181, 58, 47, 27, 27]
3.01[57, 94, 298, 181, 58, 47, 27, 27]
3.01[57, 94, 298, 181, 58, 47, 27, 27]
3.01[57, 94, 298, 181, 58, 47, 27, 27]
3.01[57, 94, 298, 181, 58, 47, 27, 27]
3.01[57, 94, 298, 181, 58, 47, 27, 27]
3.01[57, 94, 298, 181, 58, 47, 27, 27]
3.01[57, 94, 298, 181, 58, 47, 27, 27]
3.01[63, 95, 244, 179, 61, 61, 30, 30]
3.03[63, 95, 244, 179, 61, 61, 30, 30]
3.03[63, 95, 244, 179, 61, 61, 30, 30]
3.03[63, 95, 244, 179, 61, 61, 30, 30]
3.03[63, 95, 244, 179, 61, 61, 30, 30]
3.03[63, 95, 244, 179, 61, 61, 30, 30]
3.03[63, 95, 244, 179, 61, 61, 30, 30]
3.03[63, 95, 244, 179, 61, 61, 30, 30]
3.03[73, 103, 221, 180, 61, 81, 38, 33]
3.05[73, 103, 221, 180, 61, 81, 38, 33]
3.05[73, 103, 221, 180, 61, 81, 38, 33]
3.05[73, 103, 221, 180, 61, 81, 38, 33]
3.05[73, 103, 221, 180, 61, 81, 38, 33]
3.05[73, 103, 221, 180, 61, 81, 38, 33]
3.05[73, 103, 221, 180, 61, 81, 38, 33]
3.05[73, 103, 221, 180, 61, 81, 38, 33]
3.05[64, 93, 260, 155, 54, 84, 35, 31]
3.07[64, 93, 260, 155, 54, 84, 35, 31]
3.07[64, 93, 260, 155, 54, 84, 35, 31]
3.07[64, 93, 260, 155, 54, 84, 35, 31]
3.07[64, 93, 260, 155, 54, 84, 35, 31]
3.07[64, 93, 260, 155, 54, 84, 35, 31]
3.07[64, 93, 260, 155, 54, 84, 35, 31]
3.07[64, 93, 260, 155, 54, 84, 35, 31]
3.07[66, 91, 249, 132, 49, 86, 35, 33]
3.09[66, 91, 249, 132, 49, 86, 35, 33]
3.09[66, 91, 249, 132, 49, 86, 35, 33]
3.09[66, 91, 249, 132, 49, 86, 35, 33]
3.09[66, 91, 249, 132, 49, 86, 35, 33]
3.09[66, 91, 249, 132, 49, 86, 35, 33]
3.09[66, 91, 249, 132, 49, 86, 35, 33]
3.09[66, 91, 249, 132, 49, 86, 35, 33]
3.09[75, 99, 239, 133, 50, 100, 41, 34]
3.11[75, 99, 239, 133, 50, 100, 41, 34]
3.11[75, 99, 239, 133, 50, 100, 41, 34]
3.11[75, 99, 239, 133, 50, 100, 41, 34]
3.11[75, 99, 239, 133, 50, 100, 41, 34]
3.11[75, 99, 239, 133, 50, 100, 41, 34]
3.11[75, 99, 239, 133, 50, 100, 41, 34]
3.11[75, 99, 239, 133, 50, 100, 41, 34]
3.11[78, 105, 250, 136, 50, 95, 41, 33]
3.13[78, 105, 250, 136, 50, 95, 41, 33]
3.13[78, 105, 250, 136, 50, 95, 41, 33]
3.13[78, 105, 250, 136, 50, 95, 41, 33]
3.13[78, 105, 250, 136, 50, 95, 41, 33]
3.13[78, 105, 250, 136, 50, 95, 41, 33]
3.13[78, 105, 250, 136, 50, 95, 41, 33]
3.13[78, 105, 250, 136, 50, 95, 41, 33]
3.13[79, 112, 258, 148, 57, 81, 38, 31]
3.15[79, 112, 258, 148, 57, 81, 38, 31]
3.15[79, 112, 258, 148, 57, 81, 38, 31]
3.15[79, 112, 258, 148, 57, 81, 38, 31]
3.15[79, 112, 258, 148, 57, 81, 38, 31]
3.15[79, 112, 258, 148, 57, 81, 38, 31]
3.15[79, 112, 258, 148, 57, 81, 38, 31]
3.15[79, 112, 258, 148, 57, 81, 38, 31]
3.15[87, 129, 172, 128, 59, 84, 53, 34]
3.17[87, 129, 172, 128, 59, 84, 53, 34]
3.17[87, 129, 172, 128, 59, 84, 53, 34]
3.17[87, 129, 172, 128, 59, 84, 53, 34]
3.17[87, 129, 172, 128, 59, 84, 53, 34]
3.17[87, 129, 172, 128, 59, 84, 53, 34]
3.17[87, 129, 172, 128, 59, 84, 53, 34]
3.17[87, 129, 172, 128, 59, 84, 53, 34]
3.17[100, 157, 192, 128, 60, 84, 64, 38]
3.19[100, 157, 192, 128, 60, 84, 64, 38]
3.19[100, 157, 192, 128, 60, 84, 64, 38]
3.19[100, 157, 192, 128, 60, 84, 64, 38]
3.19[100, 157, 192, 128, 60, 84, 64, 38]
3.19[100, 157, 192, 128, 60, 84, 64, 38]
3.19[100, 157, 192, 128, 60, 84, 64, 38]
3.19[100, 157, 192, 128, 60, 84, 64, 38]
3.19[100, 157, 191, 125, 62, 108, 177, 42]
3.21[100, 157, 191, 125, 62, 108, 177, 42]
3.21[100, 157, 191, 125, 62, 108, 177, 42]
3.21[100, 157, 191, 125, 62, 108, 177, 42]
3.21[100, 157, 191, 125, 62, 108, 177, 42]
3.21[100, 157, 191, 125, 62, 108, 177, 42]
3.21[100, 157, 191, 125, 62, 108, 177, 42]
3.21[100, 157, 191, 125, 62, 108, 177, 42]
3.21[95, 153, 195, 120, 67, 133, 193, 41]
3.23[95, 153, 195, 120, 67, 133, 193, 41]
3.23[95, 153, 195, 120, 67, 133, 193, 41]
3.23[95, 153, 195, 120, 67, 133, 193, 41]
3.23[95, 153, 195, 120, 67, 133, 193, 41]
3.23[95, 153, 195, 120, 67, 133, 193, 41]
3.23[95, 153, 195, 120, 67, 133, 193, 41]
3.23[95, 153, 195, 120, 67, 133, 193, 41]
3.23[93, 156, 204, 95, 60, 139, 201, 42]
3.25[93, 156, 204, 95, 60, 139, 201, 42]
3.25[93, 156, 204, 95, 60, 139, 201, 42]
3.25[93, 156, 204, 95, 60, 139, 201, 42]
3.25[93, 156, 204, 95, 60, 139, 201, 42]
3.25[93, 156, 204, 95, 60, 139, 201, 42]
3.25[93, 156, 204, 95, 60, 139, 201, 42]
3.25[93, 156, 204, 95, 60, 139, 201, 42]
3.25[105, 158, 196, 78, 55, 138, 200, 41]
3.27[105, 158, 196, 78, 55, 138, 200, 41]
3.27[105, 158, 196, 78, 55, 138, 200, 41]
3.27[105, 158, 196, 78, 55, 138, 200, 41]
3.27[105, 158, 196, 78, 55, 138, 200, 41]
3.27[105, 158, 196, 78, 55, 138, 200, 41]
3.27[105, 158, 196, 78, 55, 138, 200, 41]
3.27[105, 158, 196, 78, 55, 138, 200, 41]
3.27[106, 141, 173, 81, 65, 155, 233, 45]
3.29[106, 141, 173, 81, 65, 155, 233, 45]
3.29[106, 141, 173, 81, 65, 155, 233, 45]
3.29[106, 141, 173, 81, 65, 155, 233, 45]
3.29[106, 141, 173, 81, 65, 155, 233, 45]
3.29[106, 141, 173, 81, 65, 155, 233, 45]
3.29[106, 141, 173, 81, 65, 155, 233, 45]
3.29[106, 141, 173, 81, 65, 155, 233, 45]
3.29[120, 153, 176, 83, 63, 141, 216, 54]
3.31[120, 153, 176, 83, 63, 141, 216, 54]
3.31[120, 153, 176, 83, 63, 141, 216, 54]
3.31[120, 153, 176, 83, 63, 141, 216, 54]
3.31[120, 153, 176, 83, 63, 141, 216, 54]
3.31[120, 153, 176, 83, 63, 141, 216, 54]
3.31[120, 153, 176, 83, 63, 141, 216, 54]
3.31[120, 153, 176, 83, 63, 141, 216, 54]
3.31[132, 174, 171, 81, 60, 124, 210, 57]
3.33[132, 174, 171, 81, 60, 124, 210, 57]
3.33[132, 174, 171, 81, 60, 124, 210, 57]
3.33[132, 174, 171, 81, 60, 124, 210, 57]
3.33[132, 174, 171, 81, 60, 124, 210, 57]
3.33[132, 174, 171, 81, 60, 124, 210, 57]
3.33[132, 174, 171, 81, 60, 124, 210, 57]
3.33[132, 174, 171, 81, 60, 124, 210, 57]
3.33[159, 190, 152, 71, 65, 130, 237, 67]
3.35[159, 190, 152, 71, 65, 130, 237, 67]
3.35[159, 190, 152, 71, 65, 130, 237, 67]
3.35[159, 190, 152, 71, 65, 130, 237, 67]
3.35[159, 190, 152, 71, 65, 130, 237, 67]
3.35[159, 190, 152, 71, 65, 130, 237, 67]
3.35[159, 190, 152, 71, 65, 130, 237, 67]
3.35[159, 190, 152, 71, 65, 130, 237, 67]
3.35[166, 222, 163, 77, 69, 163, 302, 83]
3.37[166, 222, 163, 77, 69, 163, 302, 83]
3.37[166, 222, 163, 77, 69, 163, 302, 83]
3.37[166, 222, 163, 77, 69, 163, 302, 83]
3.37[166, 222, 163, 77, 69, 163, 302, 83]
3.37[166, 222, 163, 77, 69, 163, 302, 83]
3.37[166, 222, 163, 77, 69, 163, 302, 83]
3.37[166, 222, 163, 77, 69, 163, 302, 83]
3.37[195, 296, 197, 81, 67, 163, 305, 88]
3.39[195, 296, 197, 81, 67, 163, 305, 88]
3.39[195, 296, 197, 81, 67, 163, 305, 88]
3.39[195, 296, 197, 81, 67, 163, 305, 88]
3.39[195, 296, 197, 81, 67, 163, 305, 88]
3.39[195, 296, 197, 81, 67, 163, 305, 88]
3.39[195, 296, 197, 81, 67, 163, 305, 88]
3.39[195, 296, 197, 81, 67, 163, 305, 88]
3.39[233, 359, 221, 85, 70, 162, 286, 84]
3.41[233, 359, 221, 85, 70, 162, 286, 84]
3.41[233, 359, 221, 85, 70, 162, 286, 84]
3.41[233, 359, 221, 85, 70, 162, 286, 84]
3.41[233, 359, 221, 85, 70, 162, 286, 84]
3.41[233, 359, 221, 85, 70, 162, 286, 84]
3.41[233, 359, 221, 85, 70, 162, 286, 84]
3.41[233, 359, 221, 85, 70, 162, 286, 84]
3.41[245, 391, 232, 84, 66, 157, 291, 87]
3.43[245, 391, 232, 84, 66, 157, 291, 87]
3.43[245, 391, 232, 84, 66, 157, 291, 87]
3.43[245, 391, 232, 84, 66, 157, 291, 87]
3.43[245, 391, 232, 84, 66, 157, 291, 87]
3.43[245, 391, 232, 84, 66, 157, 291, 87]
3.43[245, 391, 232, 84, 66, 157, 291, 87]
3.43[245, 391, 232, 84, 66, 157, 291, 87]
3.43[234, 397, 234, 85, 62, 154, 302, 91]
3.45[234, 397, 234, 85, 62, 154, 302, 91]
3.45[234, 397, 234, 85, 62, 154, 302, 91]
3.45[234, 397, 234, 85, 62, 154, 302, 91]
3.45[234, 397, 234, 85, 62, 154, 302, 91]
3.45[234, 397, 234, 85, 62, 154, 302, 91]
3.45[234, 397, 234, 85, 62, 154, 302, 91]
3.45[234, 397, 234, 85, 62, 154, 302, 91]
3.45[248, 426, 244, 91, 75, 135, 253, 111]
3.47[248, 426, 244, 91, 75, 135, 253, 111]
3.47[248, 426, 244, 91, 75, 135, 253, 111]
3.47[248, 426, 244, 91, 75, 135, 253, 111]
3.47[248, 426, 244, 91, 75, 135, 253, 111]
3.47[248, 426, 244, 91, 75, 135, 253, 111]
3.47[248, 426, 244, 91, 75, 135, 253, 111]
3.47[248, 426, 244, 91, 75, 135, 253, 111]
3.47[248, 399, 227, 88, 72, 126, 227, 125]
3.49[248, 399, 227, 88, 72, 126, 227, 125]
3.49[248, 399, 227, 88, 72, 126, 227, 125]
3.49[248, 399, 227, 88, 72, 126, 227, 125]
3.49[248, 399, 227, 88, 72, 126, 227, 125]
3.49[248, 399, 227, 88, 72, 126, 227, 125]
3.49[248, 399, 227, 88, 72, 126, 227, 125]
3.49[248, 399, 227, 88, 72, 126, 227, 125]
3.49[231, 411, 219, 90, 75, 141, 239, 159]
3.51[231, 411, 219, 90, 75, 141, 239, 159]
3.51[231, 411, 219, 90, 75, 141, 239, 159]
3.51[231, 411, 219, 90, 75, 141, 239, 159]
3.51[231, 411, 219, 90, 75, 141, 239, 159]
3.51[231, 411, 219, 90, 75, 141, 239, 159]
3.51[231, 411, 219, 90, 75, 141, 239, 159]
3.51[231, 411, 219, 90, 75, 141, 239, 159]
3.51[221, 406, 215, 98, 77, 143, 268, 171]
3.53[221, 406, 215, 98, 77, 143, 268, 171]
3.53[221, 406, 215, 98, 77, 143, 268, 171]
3.53[221, 406, 215, 98, 77, 143, 268, 171]
3.53[221, 406, 215, 98, 77, 143, 268, 171]
3.53[221, 406, 215, 98, 77, 143, 268, 171]
3.53[221, 406, 215, 98, 77, 143, 268, 171]
3.53[221, 406, 215, 98, 77, 143, 268, 171]
3.53[220, 413, 214, 102, 84, 151, 235, 182]
3.55[220, 413, 214, 102, 84, 151, 235, 182]
3.55[220, 413, 214, 102, 84, 151, 235, 182]
3.55[220, 413, 214, 102, 84, 151, 235, 182]
3.55[220, 413, 214, 102, 84, 151, 235, 182]
3.55[220, 413, 214, 102, 84, 151, 235, 182]
3.55[220, 413, 214, 102, 84, 151, 235, 182]
3.55[220, 413, 214, 102, 84, 151, 235, 182]
3.55[225, 412, 203, 99, 81, 172, 275, 178]
3.57[225, 412, 203, 99, 81, 172, 275, 178]
3.57[225, 412, 203, 99, 81, 172, 275, 178]
3.57[225, 412, 203, 99, 81, 172, 275, 178]
3.57[225, 412, 203, 99, 81, 172, 275, 178]
3.57[225, 412, 203, 99, 81, 172, 275, 178]
3.57[225, 412, 203, 99, 81, 172, 275, 178]
3.57[225, 412, 203, 99, 81, 172, 275, 178]
3.57[230, 464, 204, 96, 79, 173, 283, 204]
3.59[230, 464, 204, 96, 79, 173, 283, 204]
3.59[230, 464, 204, 96, 79, 173, 283, 204]
3.59[230, 464, 204, 96, 79, 173, 283, 204]
3.59[230, 464, 204, 96, 79, 173, 283, 204]
3.59[230, 464, 204, 96, 79, 173, 283, 204]
3.59[230, 464, 204, 96, 79, 173, 283, 204]
3.59[230, 464, 204, 96, 79, 173, 283, 204]
3.59[227, 455, 221, 103, 81, 158, 263, 192]
3.61[227, 455, 221, 103, 81, 158, 263, 192]
3.61[227, 455, 221, 103, 81, 158, 263, 192]
3.61[227, 455, 221, 103, 81, 158, 263, 192]
3.61[227, 455, 221, 103, 81, 158, 263, 192]
3.61[227, 455, 221, 103, 81, 158, 263, 192]
3.61[227, 455, 221, 103, 81, 158, 263, 192]
3.61[227, 455, 221, 103, 81, 158, 263, 192]
3.61[267, 488, 226, 101, 80, 157, 231, 190]
3.63[267, 488, 226, 101, 80, 157, 231, 190]
3.63[267, 488, 226, 101, 80, 157, 231, 190]
3.63[267, 488, 226, 101, 80, 157, 231, 190]
3.63[267, 488, 226, 101, 80, 157, 231, 190]
3.63[267, 488, 226, 101, 80, 157, 231, 190]
3.63[267, 488, 226, 101, 80, 157, 231, 190]
3.63[267, 488, 226, 101, 80, 157, 231, 190]
3.63[274, 488, 226, 99, 75, 164, 264, 240]
3.65[274, 488, 226, 99, 75, 164, 264, 240]
3.65[274, 488, 226, 99, 75, 164, 264, 240]
3.65[274, 488, 226, 99, 75, 164, 264, 240]
3.65[274, 488, 226, 99, 75, 164, 264, 240]
3.65[274, 488, 226, 99, 75, 164, 264, 240]
3.65[274, 488, 226, 99, 75, 164, 264, 240]
3.65[274, 488, 226, 99, 75, 164, 264, 240]
3.65[263, 481, 232, 100, 72, 131, 235, 267]
3.67[263, 481, 232, 100, 72, 131, 235, 267]
3.67[263, 481, 232, 100, 72, 131, 235, 267]
3.67[263, 481, 232, 100, 72, 131, 235, 267]
3.67[263, 481, 232, 100, 72, 131, 235, 267]
3.67[263, 481, 232, 100, 72, 131, 235, 267]
3.67[263, 481, 232, 100, 72, 131, 235, 267]
3.67[263, 481, 232, 100, 72, 131, 235, 267]
3.67[296, 535, 268, 143, 106, 126, 241, 260]
3.69[296, 535, 268, 143, 106, 126, 241, 260]
3.69[296, 535, 268, 143, 106, 126, 241, 260]
3.69[296, 535, 268, 143, 106, 126, 241, 260]
3.69[296, 535, 268, 143, 106, 126, 241, 260]
3.69[296, 535, 268, 143, 106, 126, 241, 260]
3.69[296, 535, 268, 143, 106, 126, 241, 260]
3.69[296, 535, 268, 143, 106, 126, 241, 260]
3.69[311, 532, 257, 137, 104, 122, 243, 320]
3.71[311, 532, 257, 137, 104, 122, 243, 320]
3.71[311, 532, 257, 137, 104, 122, 243, 320]
3.71[311, 532, 257, 137, 104, 122, 243, 320]
3.71[311, 532, 257, 137, 104, 122, 243, 320]
3.71[311, 532, 257, 137, 104, 122, 243, 320]
3.71[311, 532, 257, 137, 104, 122, 243, 320]
3.71[311, 532, 257, 137, 104, 122, 243, 320]
3.71[308, 538, 258, 147, 108, 120, 241, 326]
3.73[308, 538, 258, 147, 108, 120, 241, 326]
3.73[308, 538, 258, 147, 108, 120, 241, 326]
3.73[308, 538, 258, 147, 108, 120, 241, 326]
3.73[308, 538, 258, 147, 108, 120, 241, 326]
3.73[308, 538, 258, 147, 108, 120, 241, 326]
3.73[308, 538, 258, 147, 108, 120, 241, 326]
3.73[308, 538, 258, 147, 108, 120, 241, 326]
3.73[347, 586, 265, 150, 109, 92, 215, 320]
3.76[347, 586, 265, 150, 109, 92, 215, 320]
3.76[347, 586, 265, 150, 109, 92, 215, 320]
3.76[347, 586, 265, 150, 109, 92, 215, 320]
3.76[347, 586, 265, 150, 109, 92, 215, 320]
3.76[347, 586, 265, 150, 109, 92, 215, 320]
3.76[347, 586, 265, 150, 109, 92, 215, 320]
3.76[347, 586, 265, 150, 109, 92, 215, 320]
3.76[354, 591, 260, 152, 105, 86, 194, 307]
3.77[354, 591, 260, 152, 105, 86, 194, 307]
3.77[354, 591, 260, 152, 105, 86, 194, 307]
3.77[354, 591, 260, 152, 105, 86, 194, 307]
3.77[354, 591, 260, 152, 105, 86, 194, 307]
3.77[354, 591, 260, 152, 105, 86, 194, 307]
3.77[354, 591, 260, 152, 105, 86, 194, 307]
3.77[354, 591, 260, 152, 105, 86, 194, 307]
3.77[354, 588, 240, 135, 75, 101, 185, 331]
3.79[354, 588, 240, 135, 75, 101, 185, 331]
3.79[354, 588, 240, 135, 75, 101, 185, 331]
3.79[354, 588, 240, 135, 75, 101, 185, 331]
3.79[354, 588, 240, 135, 75, 101, 185, 331]
3.79[354, 588, 240, 135, 75, 101, 185, 331]
3.79[354, 588, 240, 135, 75, 101, 185, 331]
3.79[354, 588, 240, 135, 75, 101, 185, 331]
3.79[381, 682, 298, 157, 91, 122, 242, 319]
3.82[381, 682, 298, 157, 91, 122, 242, 319]
3.82[381, 682, 298, 157, 91, 122, 242, 319]
3.82[381, 682, 298, 157, 91, 122, 242, 319]
3.82[381, 682, 298, 157, 91, 122, 242, 319]
3.82[381, 682, 298, 157, 91, 122, 242, 319]
3.82[381, 682, 298, 157, 91, 122, 242, 319]
3.82[381, 682, 298, 157, 91, 122, 242, 319]
3.82[359, 655, 292, 148, 86, 131, 253, 328]
3.83[359, 655, 292, 148, 86, 131, 253, 328]
3.83[359, 655, 292, 148, 86, 131, 253, 328]
3.83[359, 655, 292, 148, 86, 131, 253, 328]
3.83[359, 655, 292, 148, 86, 131, 253, 328]
3.83[359, 655, 292, 148, 86, 131, 253, 328]
3.83[359, 655, 292, 148, 86, 131, 253, 328]
3.83[359, 655, 292, 148, 86, 131, 253, 328]
3.83[319, 613, 282, 140, 87, 130, 240, 304]
3.85[319, 613, 282, 140, 87, 130, 240, 304]
3.85[319, 613, 282, 140, 87, 130, 240, 304]
3.85[319, 613, 282, 140, 87, 130, 240, 304]
3.85[319, 613, 282, 140, 87, 130, 240, 304]
3.85[319, 613, 282, 140, 87, 130, 240, 304]
3.85[319, 613, 282, 140, 87, 130, 240, 304]
3.85[319, 613, 282, 140, 87, 130, 240, 304]
3.85[309, 607, 283, 145, 85, 135, 244, 320]
3.88[309, 607, 283, 145, 85, 135, 244, 320]
3.88[309, 607, 283, 145, 85, 135, 244, 320]
3.88[309, 607, 283, 145, 85, 135, 244, 320]
3.88[309, 607, 283, 145, 85, 135, 244, 320]
3.88[309, 607, 283, 145, 85, 135, 244, 320]
3.88[309, 607, 283, 145, 85, 135, 244, 320]
3.88[309, 607, 283, 145, 85, 135, 244, 320]
3.88[304, 621, 271, 131, 88, 130, 250, 317]
3.89[304, 621, 271, 131, 88, 130, 250, 317]
3.89[304, 621, 271, 131, 88, 130, 250, 317]
3.89[304, 621, 271, 131, 88, 130, 250, 317]
3.89[304, 621, 271, 131, 88, 130, 250, 317]
3.89[304, 621, 271, 131, 88, 130, 250, 317]
3.89[304, 621, 271, 131, 88, 130, 250, 317]
3.89[304, 621, 271, 131, 88, 130, 250, 317]
3.89[257, 535, 211, 114, 71, 113, 206, 292]
3.91[257, 535, 211, 114, 71, 113, 206, 292]
3.91[257, 535, 211, 114, 71, 113, 206, 292]
3.91[257, 535, 211, 114, 71, 113, 206, 292]
3.91[257, 535, 211, 114, 71, 113, 206, 292]
3.91[257, 535, 211, 114, 71, 113, 206, 292]
3.91[257, 535, 211, 114, 71, 113, 206, 292]
3.91[257, 535, 211, 114, 71, 113, 206, 292]
3.91[276, 535, 200, 110, 73, 106, 186, 290]
3.94[276, 535, 200, 110, 73, 106, 186, 290]
3.94[276, 535, 200, 110, 73, 106, 186, 290]
3.94[276, 535, 200, 110, 73, 106, 186, 290]
3.94[276, 535, 200, 110, 73, 106, 186, 290]
3.94[276, 535, 200, 110, 73, 106, 186, 290]
3.94[276, 535, 200, 110, 73, 106, 186, 290]
3.94[276, 535, 200, 110, 73, 106, 186, 290]
3.94[299, 562, 203, 119, 67, 102, 182, 288]
3.95[299, 562, 203, 119, 67, 102, 182, 288]
3.95[299, 562, 203, 119, 67, 102, 182, 288]
3.95[299, 562, 203, 119, 67, 102, 182, 288]
3.95[299, 562, 203, 119, 67, 102, 182, 288]
3.95[299, 562, 203, 119, 67, 102, 182, 288]
3.95[299, 562, 203, 119, 67, 102, 182, 288]
3.95[299, 562, 203, 119, 67, 102, 182, 288]
3.95[307, 577, 194, 108, 68, 96, 178, 258]
3.97[307, 577, 194, 108, 68, 96, 178, 258]
3.97[307, 577, 194, 108, 68, 96, 178, 258]
3.97[307, 577, 194, 108, 68, 96, 178, 258]
3.97[307, 577, 194, 108, 68, 96, 178, 258]
3.97[307, 577, 194, 108, 68, 96, 178, 258]
3.97[307, 577, 194, 108, 68, 96, 178, 258]
3.97[307, 577, 194, 108, 68, 96, 178, 258]
3.97[287, 533, 200, 112, 65, 79, 151, 240]
4.0[287, 533, 200, 112, 65, 79, 151, 240]
4.0[287, 533, 200, 112, 65, 79, 151, 240]
4.0[287, 533, 200, 112, 65, 79, 151, 240]
4.0[287, 533, 200, 112, 65, 79, 151, 240]
4.0[287, 533, 200, 112, 65, 79, 151, 240]
4.0[287, 533, 200, 112, 65, 79, 151, 240]
4.0[287, 533, 200, 112, 65, 79, 151, 240]
4.0[279, 506, 173, 104, 68, 76, 157, 218]
4.01[279, 506, 173, 104, 68, 76, 157, 218]
4.01[279, 506, 173, 104, 68, 76, 157, 218]
4.01[279, 506, 173, 104, 68, 76, 157, 218]
4.01[279, 506, 173, 104, 68, 76, 157, 218]
4.01[279, 506, 173, 104, 68, 76, 157, 218]
4.01[279, 506, 173, 104, 68, 76, 157, 218]
4.01[279, 506, 173, 104, 68, 76, 157, 218]
4.01[264, 498, 177, 106, 68, 70, 156, 257]
4.03[264, 498, 177, 106, 68, 70, 156, 257]
4.03[264, 498, 177, 106, 68, 70, 156, 257]
4.03[264, 498, 177, 106, 68, 70, 156, 257]
4.03[264, 498, 177, 106, 68, 70, 156, 257]
4.03[264, 498, 177, 106, 68, 70, 156, 257]
4.03[264, 498, 177, 106, 68, 70, 156, 257]
4.03[264, 498, 177, 106, 68, 70, 156, 257]
4.03[236, 467, 174, 101, 73, 74, 168, 267]
4.06[236, 467, 174, 101, 73, 74, 168, 267]
4.06[236, 467, 174, 101, 73, 74, 168, 267]
4.06[236, 467, 174, 101, 73, 74, 168, 267]
4.06[236, 467, 174, 101, 73, 74, 168, 267]
4.06[236, 467, 174, 101, 73, 74, 168, 267]
4.06[236, 467, 174, 101, 73, 74, 168, 267]
4.06[236, 467, 174, 101, 73, 74, 168, 267]
4.06[229, 457, 188, 103, 72, 73, 156, 278]
4.07[229, 457, 188, 103, 72, 73, 156, 278]
4.07[229, 457, 188, 103, 72, 73, 156, 278]
4.07[229, 457, 188, 103, 72, 73, 156, 278]
4.07[229, 457, 188, 103, 72, 73, 156, 278]
4.07[229, 457, 188, 103, 72, 73, 156, 278]
4.07[229, 457, 188, 103, 72, 73, 156, 278]
4.07[229, 457, 188, 103, 72, 73, 156, 278]
4.07[210, 408, 189, 99, 70, 70, 161, 302]
4.09[210, 408, 189, 99, 70, 70, 161, 302]
4.09[210, 408, 189, 99, 70, 70, 161, 302]
4.09[210, 408, 189, 99, 70, 70, 161, 302]
4.09[210, 408, 189, 99, 70, 70, 161, 302]
4.09[210, 408, 189, 99, 70, 70, 161, 302]
4.09[210, 408, 189, 99, 70, 70, 161, 302]
4.09[210, 408, 189, 99, 70, 70, 161, 302]
4.09[214, 409, 200, 95, 68, 66, 131, 298]
4.12[214, 409, 200, 95, 68, 66, 131, 298]
4.12[214, 409, 200, 95, 68, 66, 131, 298]
4.12[214, 409, 200, 95, 68, 66, 131, 298]
4.12[214, 409, 200, 95, 68, 66, 131, 298]
4.12[214, 409, 200, 95, 68, 66, 131, 298]
4.12[214, 409, 200, 95, 68, 66, 131, 298]
4.12[214, 409, 200, 95, 68, 66, 131, 298]
4.12[224, 433, 208, 98, 64, 66, 131, 250]
4.13[224, 433, 208, 98, 64, 66, 131, 250]
4.13[224, 433, 208, 98, 64, 66, 131, 250]
4.13[224, 433, 208, 98, 64, 66, 131, 250]
4.13[224, 433, 208, 98, 64, 66, 131, 250]
4.13[224, 433, 208, 98, 64, 66, 131, 250]
4.13[224, 433, 208, 98, 64, 66, 131, 250]
4.13[224, 433, 208, 98, 64, 66, 131, 250]
4.13[235, 453, 207, 97, 68, 73, 135, 267]
4.15[235, 453, 207, 97, 68, 73, 135, 267]
4.15[235, 453, 207, 97, 68, 73, 135, 267]
4.15[235, 453, 207, 97, 68, 73, 135, 267]
4.15[235, 453, 207, 97, 68, 73, 135, 267]
4.15[235, 453, 207, 97, 68, 73, 135, 267]
4.15[235, 453, 207, 97, 68, 73, 135, 267]
4.15[235, 453, 207, 97, 68, 73, 135, 267]
4.15[237, 441, 198, 98, 73, 70, 132, 262]
4.18[237, 441, 198, 98, 73, 70, 132, 262]
4.18[237, 441, 198, 98, 73, 70, 132, 262]
4.18[237, 441, 198, 98, 73, 70, 132, 262]
4.18[237, 441, 198, 98, 73, 70, 132, 262]
4.18[237, 441, 198, 98, 73, 70, 132, 262]
4.18[237, 441, 198, 98, 73, 70, 132, 262]
4.18[237, 441, 198, 98, 73, 70, 132, 262]
4.18[261, 446, 175, 108, 75, 68, 125, 210]
4.19[261, 446, 175, 108, 75, 68, 125, 210]
4.19[261, 446, 175, 108, 75, 68, 125, 210]
4.19[261, 446, 175, 108, 75, 68, 125, 210]
4.19[261, 446, 175, 108, 75, 68, 125, 210]
4.19[261, 446, 175, 108, 75, 68, 125, 210]
4.19[261, 446, 175, 108, 75, 68, 125, 210]
4.19[261, 446, 175, 108, 75, 68, 125, 210]
4.19[251, 406, 150, 104, 74, 64, 150, 237]
4.21[251, 406, 150, 104, 74, 64, 150, 237]
4.21[251, 406, 150, 104, 74, 64, 150, 237]
4.21[251, 406, 150, 104, 74, 64, 150, 237]
4.21[251, 406, 150, 104, 74, 64, 150, 237]
4.21[251, 406, 150, 104, 74, 64, 150, 237]
4.21[251, 406, 150, 104, 74, 64, 150, 237]
4.21[251, 406, 150, 104, 74, 64, 150, 237]
4.21[241, 378, 139, 96, 74, 67, 150, 286]
4.24[241, 378, 139, 96, 74, 67, 150, 286]
4.24[241, 378, 139, 96, 74, 67, 150, 286]
4.24[241, 378, 139, 96, 74, 67, 150, 286]
4.24[241, 378, 139, 96, 74, 67, 150, 286]
4.24[241, 378, 139, 96, 74, 67, 150, 286]
4.24[241, 378, 139, 96, 74, 67, 150, 286]
4.24[241, 378, 139, 96, 74, 67, 150, 286]
4.24[235, 374, 154, 96, 71, 57, 132, 277]
4.25[235, 374, 154, 96, 71, 57, 132, 277]
4.25[235, 374, 154, 96, 71, 57, 132, 277]
4.25[235, 374, 154, 96, 71, 57, 132, 277]
4.25[235, 374, 154, 96, 71, 57, 132, 277]
4.25[235, 374, 154, 96, 71, 57, 132, 277]
4.25[235, 374, 154, 96, 71, 57, 132, 277]
4.25[235, 374, 154, 96, 71, 57, 132, 277]
4.25[287, 453, 165, 101, 70, 59, 136, 285]
4.27[287, 453, 165, 101, 70, 59, 136, 285]
4.27[287, 453, 165, 101, 70, 59, 136, 285]
4.27[287, 453, 165, 101, 70, 59, 136, 285]
4.27[287, 453, 165, 101, 70, 59, 136, 285]
4.27[287, 453, 165, 101, 70, 59, 136, 285]
4.27[287, 453, 165, 101, 70, 59, 136, 285]
4.27[287, 453, 165, 101, 70, 59, 136, 285]
4.27[256, 415, 167, 83, 67, 62, 135, 284]
4.3[256, 415, 167, 83, 67, 62, 135, 284]
4.3[256, 415, 167, 83, 67, 62, 135, 284]
4.3[256, 415, 167, 83, 67, 62, 135, 284]
4.3[256, 415, 167, 83, 67, 62, 135, 284]
4.3[256, 415, 167, 83, 67, 62, 135, 284]
4.3[256, 415, 167, 83, 67, 62, 135, 284]
4.3[256, 415, 167, 83, 67, 62, 135, 284]
4.3[253, 431, 180, 84, 64, 67, 107, 284]
4.31[253, 431, 180, 84, 64, 67, 107, 284]
4.31[253, 431, 180, 84, 64, 67, 107, 284]
4.31[253, 431, 180, 84, 64, 67, 107, 284]
4.31[253, 431, 180, 84, 64, 67, 107, 284]
4.31[253, 431, 180, 84, 64, 67, 107, 284]
4.31[253, 431, 180, 84, 64, 67, 107, 284]
4.31[253, 431, 180, 84, 64, 67, 107, 284]
4.31[259, 421, 170, 83, 66, 70, 120, 384]
4.33[259, 421, 170, 83, 66, 70, 120, 384]
4.33[259, 421, 170, 83, 66, 70, 120, 384]
4.33[259, 421, 170, 83, 66, 70, 120, 384]
4.33[259, 421, 170, 83, 66, 70, 120, 384]
4.33[259, 421, 170, 83, 66, 70, 120, 384]
4.33[259, 421, 170, 83, 66, 70, 120, 384]
4.33[259, 421, 170, 83, 66, 70, 120, 384]
4.33[268, 423, 170, 86, 67, 70, 121, 405]
4.36[268, 423, 170, 86, 67, 70, 121, 405]
4.36[268, 423, 170, 86, 67, 70, 121, 405]
4.36[268, 423, 170, 86, 67, 70, 121, 405]
4.36[268, 423, 170, 86, 67, 70, 121, 405]
4.36[268, 423, 170, 86, 67, 70, 121, 405]
4.36[268, 423, 170, 86, 67, 70, 121, 405]
4.36[268, 423, 170, 86, 67, 70, 121, 405]
4.36[237, 394, 186, 91, 70, 72, 126, 423]
4.37[237, 394, 186, 91, 70, 72, 126, 423]
4.37[237, 394, 186, 91, 70, 72, 126, 423]
4.37[237, 394, 186, 91, 70, 72, 126, 423]
4.37[237, 394, 186, 91, 70, 72, 126, 423]
4.37[237, 394, 186, 91, 70, 72, 126, 423]
4.37[237, 394, 186, 91, 70, 72, 126, 423]
4.37[237, 394, 186, 91, 70, 72, 126, 423]
4.37[234, 403, 186, 88, 67, 69, 130, 430]
4.39[234, 403, 186, 88, 67, 69, 130, 430]
4.39[234, 403, 186, 88, 67, 69, 130, 430]
4.39[234, 403, 186, 88, 67, 69, 130, 430]
4.39[234, 403, 186, 88, 67, 69, 130, 430]
4.39[234, 403, 186, 88, 67, 69, 130, 430]
4.39[234, 403, 186, 88, 67, 69, 130, 430]
4.39[234, 403, 186, 88, 67, 69, 130, 430]
4.39[238, 424, 182, 91, 68, 63, 128, 423]
4.42[238, 424, 182, 91, 68, 63, 128, 423]
4.42[238, 424, 182, 91, 68, 63, 128, 423]
4.42[238, 424, 182, 91, 68, 63, 128, 423]
4.42[238, 424, 182, 91, 68, 63, 128, 423]
4.42[238, 424, 182, 91, 68, 63, 128, 423]
4.42[238, 424, 182, 91, 68, 63, 128, 423]
4.42[238, 424, 182, 91, 68, 63, 128, 423]
4.42[225, 426, 191, 98, 70, 56, 143, 318]
4.43[225, 426, 191, 98, 70, 56, 143, 318]
4.43[225, 426, 191, 98, 70, 56, 143, 318]
4.43[225, 426, 191, 98, 70, 56, 143, 318]
4.43[225, 426, 191, 98, 70, 56, 143, 318]
4.43[225, 426, 191, 98, 70, 56, 143, 318]
4.43[225, 426, 191, 98, 70, 56, 143, 318]
4.43[225, 426, 191, 98, 70, 56, 143, 318]
4.43[232, 477, 218, 101, 70, 55, 140, 273]
4.45[232, 477, 218, 101, 70, 55, 140, 273]
4.45[232, 477, 218, 101, 70, 55, 140, 273]
4.45[232, 477, 218, 101, 70, 55, 140, 273]
4.45[232, 477, 218, 101, 70, 55, 140, 273]
4.45[232, 477, 218, 101, 70, 55, 140, 273]
4.45[232, 477, 218, 101, 70, 55, 140, 273]
4.45[232, 477, 218, 101, 70, 55, 140, 273]
4.45[189, 404, 185, 82, 62, 48, 132, 249]
4.48[189, 404, 185, 82, 62, 48, 132, 249]
4.48[189, 404, 185, 82, 62, 48, 132, 249]
4.48[189, 404, 185, 82, 62, 48, 132, 249]
4.48[189, 404, 185, 82, 62, 48, 132, 249]
4.48[189, 404, 185, 82, 62, 48, 132, 249]
4.48[189, 404, 185, 82, 62, 48, 132, 249]
4.48[189, 404, 185, 82, 62, 48, 132, 249]
4.48[183, 398, 183, 84, 63, 48, 121, 235]
4.49[183, 398, 183, 84, 63, 48, 121, 235]
4.49[183, 398, 183, 84, 63, 48, 121, 235]
4.49[183, 398, 183, 84, 63, 48, 121, 235]
4.49[183, 398, 183, 84, 63, 48, 121, 235]
4.49[183, 398, 183, 84, 63, 48, 121, 235]
4.49[183, 398, 183, 84, 63, 48, 121, 235]
4.49[183, 398, 183, 84, 63, 48, 121, 235]
4.49[189, 383, 182, 79, 64, 50, 120, 219]
4.51[189, 383, 182, 79, 64, 50, 120, 219]
4.51[189, 383, 182, 79, 64, 50, 120, 219]
4.51[189, 383, 182, 79, 64, 50, 120, 219]
4.51[189, 383, 182, 79, 64, 50, 120, 219]
4.51[189, 383, 182, 79, 64, 50, 120, 219]
4.51[189, 383, 182, 79, 64, 50, 120, 219]
4.51[189, 383, 182, 79, 64, 50, 120, 219]
4.51[205, 389, 174, 74, 60, 58, 96, 217]
4.54[205, 389, 174, 74, 60, 58, 96, 217]
4.54[205, 389, 174, 74, 60, 58, 96, 217]
4.54[205, 389, 174, 74, 60, 58, 96, 217]
4.54[205, 389, 174, 74, 60, 58, 96, 217]
4.54[205, 389, 174, 74, 60, 58, 96, 217]
4.54[205, 389, 174, 74, 60, 58, 96, 217]
4.54[205, 389, 174, 74, 60, 58, 96, 217]
4.54[183, 271, 125, 63, 54, 55, 98, 231]
4.55[183, 271, 125, 63, 54, 55, 98, 231]
4.55[183, 271, 125, 63, 54, 55, 98, 231]
4.55[183, 271, 125, 63, 54, 55, 98, 231]
4.55[183, 271, 125, 63, 54, 55, 98, 231]
4.55[183, 271, 125, 63, 54, 55, 98, 231]
4.55[183, 271, 125, 63, 54, 55, 98, 231]
4.55[183, 271, 125, 63, 54, 55, 98, 231]
4.55[199, 298, 136, 67, 55, 56, 91, 209]
4.57[199, 298, 136, 67, 55, 56, 91, 209]
4.57[199, 298, 136, 67, 55, 56, 91, 209]
4.57[199, 298, 136, 67, 55, 56, 91, 209]
4.57[199, 298, 136, 67, 55, 56, 91, 209]
4.57[199, 298, 136, 67, 55, 56, 91, 209]
4.57[199, 298, 136, 67, 55, 56, 91, 209]
4.57[199, 298, 136, 67, 55, 56, 91, 209]
4.57[216, 384, 168, 81, 58, 59, 100, 245]
4.6[216, 384, 168, 81, 58, 59, 100, 245]
4.6[216, 384, 168, 81, 58, 59, 100, 245]
4.6[216, 384, 168, 81, 58, 59, 100, 245]
4.6[216, 384, 168, 81, 58, 59, 100, 245]
4.6[216, 384, 168, 81, 58, 59, 100, 245]
4.6[216, 384, 168, 81, 58, 59, 100, 245]
4.6[216, 384, 168, 81, 58, 59, 100, 245]
4.6[208, 375, 168, 83, 56, 59, 105, 262]
4.61[208, 375, 168, 83, 56, 59, 105, 262]
4.61[208, 375, 168, 83, 56, 59, 105, 262]
4.61[208, 375, 168, 83, 56, 59, 105, 262]
4.61[208, 375, 168, 83, 56, 59, 105, 262]
4.61[208, 375, 168, 83, 56, 59, 105, 262]
4.61[208, 375, 168, 83, 56, 59, 105, 262]
4.61[208, 375, 168, 83, 56, 59, 105, 262]
4.61[205, 372, 172, 81, 56, 53, 93, 277]
4.63[205, 372, 172, 81, 56, 53, 93, 277]
4.63[205, 372, 172, 81, 56, 53, 93, 277]
4.63[205, 372, 172, 81, 56, 53, 93, 277]
4.63[205, 372, 172, 81, 56, 53, 93, 277]
4.63[205, 372, 172, 81, 56, 53, 93, 277]
4.63[205, 372, 172, 81, 56, 53, 93, 277]
4.63[205, 372, 172, 81, 56, 53, 93, 277]
4.63[205, 370, 164, 76, 54, 53, 88, 308]
4.66[205, 370, 164, 76, 54, 53, 88, 308]
4.66[205, 370, 164, 76, 54, 53, 88, 308]
4.66[205, 370, 164, 76, 54, 53, 88, 308]
4.66[205, 370, 164, 76, 54, 53, 88, 308]
4.66[205, 370, 164, 76, 54, 53, 88, 308]
4.66[205, 370, 164, 76, 54, 53, 88, 308]
4.66[205, 370, 164, 76, 54, 53, 88, 308]
4.66[210, 383, 161, 76, 55, 52, 99, 333]
4.68[210, 383, 161, 76, 55, 52, 99, 333]
4.68[210, 383, 161, 76, 55, 52, 99, 333]
4.68[210, 383, 161, 76, 55, 52, 99, 333]
4.68[210, 383, 161, 76, 55, 52, 99, 333]
4.68[210, 383, 161, 76, 55, 52, 99, 333]
4.68[210, 383, 161, 76, 55, 52, 99, 333]
4.68[210, 383, 161, 76, 55, 52, 99, 333]
4.68[213, 329, 143, 64, 54, 52, 94, 320]
4.69[213, 329, 143, 64, 54, 52, 94, 320]
4.69[213, 329, 143, 64, 54, 52, 94, 320]
4.69[213, 329, 143, 64, 54, 52, 94, 320]
4.69[213, 329, 143, 64, 54, 52, 94, 320]
4.69[213, 329, 143, 64, 54, 52, 94, 320]
4.69[213, 329, 143, 64, 54, 52, 94, 320]
4.69[213, 329, 143, 64, 54, 52, 94, 320]
4.69[211, 328, 138, 66, 54, 51, 86, 311]
4.72[211, 328, 138, 66, 54, 51, 86, 311]
4.72[211, 328, 138, 66, 54, 51, 86, 311]
4.72[211, 328, 138, 66, 54, 51, 86, 311]
4.72[211, 328, 138, 66, 54, 51, 86, 311]
4.72[211, 328, 138, 66, 54, 51, 86, 311]
4.72[211, 328, 138, 66, 54, 51, 86, 311]
4.72[211, 328, 138, 66, 54, 51, 86, 311]
4.72[214, 331, 133, 68, 54, 51, 94, 274]
4.74[214, 331, 133, 68, 54, 51, 94, 274]
4.74[214, 331, 133, 68, 54, 51, 94, 274]
4.74[214, 331, 133, 68, 54, 51, 94, 274]
4.74[214, 331, 133, 68, 54, 51, 94, 274]
4.74[214, 331, 133, 68, 54, 51, 94, 274]
4.74[214, 331, 133, 68, 54, 51, 94, 274]
4.74[214, 331, 133, 68, 54, 51, 94, 274]
4.74[205, 360, 145, 72, 54, 52, 99, 256]
4.75[205, 360, 145, 72, 54, 52, 99, 256]
4.75[205, 360, 145, 72, 54, 52, 99, 256]
4.75[205, 360, 145, 72, 54, 52, 99, 256]
4.75[205, 360, 145, 72, 54, 52, 99, 256]
4.75[205, 360, 145, 72, 54, 52, 99, 256]
4.75[205, 360, 145, 72, 54, 52, 99, 256]
4.75[205, 360, 145, 72, 54, 52, 99, 256]
4.75[186, 343, 148, 71, 52, 53, 97, 234]
4.78[186, 343, 148, 71, 52, 53, 97, 234]
4.78[186, 343, 148, 71, 52, 53, 97, 234]
4.78[186, 343, 148, 71, 52, 53, 97, 234]
4.78[186, 343, 148, 71, 52, 53, 97, 234]
4.78[186, 343, 148, 71, 52, 53, 97, 234]
4.78[186, 343, 148, 71, 52, 53, 97, 234]
4.78[186, 343, 148, 71, 52, 53, 97, 234]
4.78[162, 304, 127, 69, 44, 48, 90, 239]
4.8[162, 304, 127, 69, 44, 48, 90, 239]
4.8[162, 304, 127, 69, 44, 48, 90, 239]
4.8[162, 304, 127, 69, 44, 48, 90, 239]
4.8[162, 304, 127, 69, 44, 48, 90, 239]
4.8[162, 304, 127, 69, 44, 48, 90, 239]
4.8[162, 304, 127, 69, 44, 48, 90, 239]
4.8[162, 304, 127, 69, 44, 48, 90, 239]
4.8[177, 311, 130, 69, 48, 48, 90, 241]
4.81[177, 311, 130, 69, 48, 48, 90, 241]
4.81[177, 311, 130, 69, 48, 48, 90, 241]
4.81[177, 311, 130, 69, 48, 48, 90, 241]
4.81[177, 311, 130, 69, 48, 48, 90, 241]
4.81[177, 311, 130, 69, 48, 48, 90, 241]
4.81[177, 311, 130, 69, 48, 48, 90, 241]
4.81[177, 311, 130, 69, 48, 48, 90, 241]
4.81[161, 328, 141, 74, 57, 49, 75, 244]
4.84[161, 328, 141, 74, 57, 49, 75, 244]
4.84[161, 328, 141, 74, 57, 49, 75, 244]
4.84[161, 328, 141, 74, 57, 49, 75, 244]
4.84[161, 328, 141, 74, 57, 49, 75, 244]
4.84[161, 328, 141, 74, 57, 49, 75, 244]
4.84[161, 328, 141, 74, 57, 49, 75, 244]
4.84[161, 328, 141, 74, 57, 49, 75, 244]
4.84[177, 363, 146, 72, 57, 47, 70, 221]
4.86[177, 363, 146, 72, 57, 47, 70, 221]
4.86[177, 363, 146, 72, 57, 47, 70, 221]
4.86[177, 363, 146, 72, 57, 47, 70, 221]
4.86[177, 363, 146, 72, 57, 47, 70, 221]
4.86[177, 363, 146, 72, 57, 47, 70, 221]
4.86[177, 363, 146, 72, 57, 47, 70, 221]
4.86[177, 363, 146, 72, 57, 47, 70, 221]
4.86[199, 379, 143, 74, 61, 47, 56, 210]
4.87[199, 379, 143, 74, 61, 47, 56, 210]
4.87[199, 379, 143, 74, 61, 47, 56, 210]
4.87[199, 379, 143, 74, 61, 47, 56, 210]
4.87[199, 379, 143, 74, 61, 47, 56, 210]
4.87[199, 379, 143, 74, 61, 47, 56, 210]
4.87[199, 379, 143, 74, 61, 47, 56, 210]
4.87[199, 379, 143, 74, 61, 47, 56, 210]
4.87[203, 379, 145, 74, 65, 48, 56, 192]
4.9[203, 379, 145, 74, 65, 48, 56, 192]
4.9[203, 379, 145, 74, 65, 48, 56, 192]
4.9[203, 379, 145, 74, 65, 48, 56, 192]
4.9[203, 379, 145, 74, 65, 48, 56, 192]
4.9[203, 379, 145, 74, 65, 48, 56, 192]
4.9[203, 379, 145, 74, 65, 48, 56, 192]
4.9[203, 379, 145, 74, 65, 48, 56, 192]
4.9[189, 370, 142, 71, 63, 46, 57, 184]
4.92[189, 370, 142, 71, 63, 46, 57, 184]
4.92[189, 370, 142, 71, 63, 46, 57, 184]
4.92[189, 370, 142, 71, 63, 46, 57, 184]
4.92[189, 370, 142, 71, 63, 46, 57, 184]
4.92[189, 370, 142, 71, 63, 46, 57, 184]
4.92[189, 370, 142, 71, 63, 46, 57, 184]
4.92[189, 370, 142, 71, 63, 46, 57, 184]
4.92[193, 344, 127, 64, 54, 44, 64, 177]
4.93[193, 344, 127, 64, 54, 44, 64, 177]
4.93[193, 344, 127, 64, 54, 44, 64, 177]
4.93[193, 344, 127, 64, 54, 44, 64, 177]
4.93[193, 344, 127, 64, 54, 44, 64, 177]
4.93[193, 344, 127, 64, 54, 44, 64, 177]
4.93[193, 344, 127, 64, 54, 44, 64, 177]
4.93[193, 344, 127, 64, 54, 44, 64, 177]
4.93[180, 319, 133, 75, 60, 47, 64, 173]
4.96[180, 319, 133, 75, 60, 47, 64, 173]
4.96[180, 319, 133, 75, 60, 47, 64, 173]
4.96[180, 319, 133, 75, 60, 47, 64, 173]
4.96[180, 319, 133, 75, 60, 47, 64, 173]
4.96[180, 319, 133, 75, 60, 47, 64, 173]
4.96[180, 319, 133, 75, 60, 47, 64, 173]
4.96[180, 319, 133, 75, 60, 47, 64, 173]
4.96[164, 297, 134, 73, 57, 48, 69, 200]
4.98[164, 297, 134, 73, 57, 48, 69, 200]
4.98[164, 297, 134, 73, 57, 48, 69, 200]
4.98[164, 297, 134, 73, 57, 48, 69, 200]
4.98[164, 297, 134, 73, 57, 48, 69, 200]
4.98[164, 297, 134, 73, 57, 48, 69, 200]
4.98[164, 297, 134, 73, 57, 48, 69, 200]
4.98[164, 297, 134, 73, 57, 48, 69, 200]
4.98[163, 288, 129, 72, 53, 46, 74, 250]
4.99[163, 288, 129, 72, 53, 46, 74, 250]
4.99[163, 288, 129, 72, 53, 46, 74, 250]
4.99[163, 288, 129, 72, 53, 46, 74, 250]
4.99[163, 288, 129, 72, 53, 46, 74, 250]
4.99[163, 288, 129, 72, 53, 46, 74, 250]
4.99[163, 288, 129, 72, 53, 46, 74, 250]
4.99[163, 288, 129, 72, 53, 46, 74, 250]
4.99[176, 289, 124, 70, 51, 45, 69, 292]
5.02[176, 289, 124, 70, 51, 45, 69, 292]
5.02[176, 289, 124, 70, 51, 45, 69, 292]
5.02[176, 289, 124, 70, 51, 45, 69, 292]
5.02[176, 289, 124, 70, 51, 45, 69, 292]
5.02[176, 289, 124, 70, 51, 45, 69, 292]
5.02[176, 289, 124, 70, 51, 45, 69, 292]
5.02[176, 289, 124, 70, 51, 45, 69, 292]
5.02[164, 280, 129, 71, 51, 44, 66, 286]
5.05[164, 280, 129, 71, 51, 44, 66, 286]
5.05[164, 280, 129, 71, 51, 44, 66, 286]
5.05[164, 280, 129, 71, 51, 44, 66, 286]
5.05[164, 280, 129, 71, 51, 44, 66, 286]
5.05[164, 280, 129, 71, 51, 44, 66, 286]
5.05[164, 280, 129, 71, 51, 44, 66, 286]
5.05[164, 280, 129, 71, 51, 44, 66, 286]
5.05[169, 265, 116, 60, 45, 39, 72, 298]
5.05[169, 265, 116, 60, 45, 39, 72, 298]
5.05[169, 265, 116, 60, 45, 39, 72, 298]
5.05[169, 265, 116, 60, 45, 39, 72, 298]
5.05[169, 265, 116, 60, 45, 39, 72, 298]
5.05[169, 265, 116, 60, 45, 39, 72, 298]
5.05[169, 265, 116, 60, 45, 39, 72, 298]
5.05[169, 265, 116, 60, 45, 39, 72, 298]
5.05[159, 266, 121, 59, 42, 37, 77, 279]
5.08[159, 266, 121, 59, 42, 37, 77, 279]
5.08[159, 266, 121, 59, 42, 37, 77, 279]
5.08[159, 266, 121, 59, 42, 37, 77, 279]
5.08[159, 266, 121, 59, 42, 37, 77, 279]
5.08[159, 266, 121, 59, 42, 37, 77, 279]
5.08[159, 266, 121, 59, 42, 37, 77, 279]
5.08[159, 266, 121, 59, 42, 37, 77, 279]
5.08[165, 297, 124, 60, 41, 36, 72, 237]
5.1[165, 297, 124, 60, 41, 36, 72, 237]
5.1[165, 297, 124, 60, 41, 36, 72, 237]
5.1[165, 297, 124, 60, 41, 36, 72, 237]
5.1[165, 297, 124, 60, 41, 36, 72, 237]
5.1[165, 297, 124, 60, 41, 36, 72, 237]
5.1[165, 297, 124, 60, 41, 36, 72, 237]
5.1[165, 297, 124, 60, 41, 36, 72, 237]
5.1[150, 291, 124, 62, 41, 36, 75, 186]
5.11[150, 291, 124, 62, 41, 36, 75, 186]
5.11[150, 291, 124, 62, 41, 36, 75, 186]
5.11[150, 291, 124, 62, 41, 36, 75, 186]
5.11[150, 291, 124, 62, 41, 36, 75, 186]
5.11[150, 291, 124, 62, 41, 36, 75, 186]
5.11[150, 291, 124, 62, 41, 36, 75, 186]
5.11[150, 291, 124, 62, 41, 36, 75, 186]
5.11[163, 301, 125, 60, 42, 36, 70, 189]
5.14[163, 301, 125, 60, 42, 36, 70, 189]
5.14[163, 301, 125, 60, 42, 36, 70, 189]
5.14[163, 301, 125, 60, 42, 36, 70, 189]
5.14[163, 301, 125, 60, 42, 36, 70, 189]
5.14[163, 301, 125, 60, 42, 36, 70, 189]
5.14[163, 301, 125, 60, 42, 36, 70, 189]
5.14[163, 301, 125, 60, 42, 36, 70, 189]
5.14[149, 272, 122, 58, 45, 39, 70, 159]
5.16[149, 272, 122, 58, 45, 39, 70, 159]
5.16[149, 272, 122, 58, 45, 39, 70, 159]
5.16[149, 272, 122, 58, 45, 39, 70, 159]
5.16[149, 272, 122, 58, 45, 39, 70, 159]
5.16[149, 272, 122, 58, 45, 39, 70, 159]
5.16[149, 272, 122, 58, 45, 39, 70, 159]
5.16[149, 272, 122, 58, 45, 39, 70, 159]
5.16[148, 251, 101, 56, 44, 36, 63, 162]
5.17[148, 251, 101, 56, 44, 36, 63, 162]
5.17[148, 251, 101, 56, 44, 36, 63, 162]
5.17[148, 251, 101, 56, 44, 36, 63, 162]
5.17[148, 251, 101, 56, 44, 36, 63, 162]
5.17[148, 251, 101, 56, 44, 36, 63, 162]
5.17[148, 251, 101, 56, 44, 36, 63, 162]
5.17[148, 251, 101, 56, 44, 36, 63, 162]
5.17[149, 245, 104, 57, 45, 37, 68, 232]
5.2[149, 245, 104, 57, 45, 37, 68, 232]
5.2[149, 245, 104, 57, 45, 37, 68, 232]
5.2[149, 245, 104, 57, 45, 37, 68, 232]
5.2[149, 245, 104, 57, 45, 37, 68, 232]
5.2[149, 245, 104, 57, 45, 37, 68, 232]
5.2[149, 245, 104, 57, 45, 37, 68, 232]
5.2[149, 245, 104, 57, 45, 37, 68, 232]
5.2[158, 262, 113, 57, 48, 39, 64, 256]
5.22[158, 262, 113, 57, 48, 39, 64, 256]
5.22[158, 262, 113, 57, 48, 39, 64, 256]
5.22[158, 262, 113, 57, 48, 39, 64, 256]
5.22[158, 262, 113, 57, 48, 39, 64, 256]
5.22[158, 262, 113, 57, 48, 39, 64, 256]
5.22[158, 262, 113, 57, 48, 39, 64, 256]
5.22[158, 262, 113, 57, 48, 39, 64, 256]
5.22[166, 306, 129, 58, 46, 39, 73, 271]
5.23[166, 306, 129, 58, 46, 39, 73, 271]
5.23[166, 306, 129, 58, 46, 39, 73, 271]
5.23[166, 306, 129, 58, 46, 39, 73, 271]
5.23[166, 306, 129, 58, 46, 39, 73, 271]
5.23[166, 306, 129, 58, 46, 39, 73, 271]
5.23[166, 306, 129, 58, 46, 39, 73, 271]
5.23[166, 306, 129, 58, 46, 39, 73, 271]
5.23[167, 314, 127, 58, 40, 36, 70, 282]
5.26[167, 314, 127, 58, 40, 36, 70, 282]
5.26[167, 314, 127, 58, 40, 36, 70, 282]
5.26[167, 314, 127, 58, 40, 36, 70, 282]
5.26[167, 314, 127, 58, 40, 36, 70, 282]
5.26[167, 314, 127, 58, 40, 36, 70, 282]
5.26[167, 314, 127, 58, 40, 36, 70, 282]
5.26[167, 314, 127, 58, 40, 36, 70, 282]
5.26[168, 310, 129, 60, 43, 39, 69, 276]
5.28[168, 310, 129, 60, 43, 39, 69, 276]
5.28[168, 310, 129, 60, 43, 39, 69, 276]
5.28[168, 310, 129, 60, 43, 39, 69, 276]
5.28[168, 310, 129, 60, 43, 39, 69, 276]
5.28[168, 310, 129, 60, 43, 39, 69, 276]
5.28[168, 310, 129, 60, 43, 39, 69, 276]
5.28[168, 310, 129, 60, 43, 39, 69, 276]
5.28[167, 304, 135, 66, 49, 43, 66, 217]
5.29[167, 304, 135, 66, 49, 43, 66, 217]
5.29[167, 304, 135, 66, 49, 43, 66, 217]
5.29[167, 304, 135, 66, 49, 43, 66, 217]
5.29[167, 304, 135, 66, 49, 43, 66, 217]
5.29[167, 304, 135, 66, 49, 43, 66, 217]
5.29[167, 304, 135, 66, 49, 43, 66, 217]
5.29[167, 304, 135, 66, 49, 43, 66, 217]
5.29[157, 279, 126, 67, 52, 43, 68, 226]
5.32[157, 279, 126, 67, 52, 43, 68, 226]
5.32[157, 279, 126, 67, 52, 43, 68, 226]
5.32[157, 279, 126, 67, 52, 43, 68, 226]
5.32[157, 279, 126, 67, 52, 43, 68, 226]
5.32[157, 279, 126, 67, 52, 43, 68, 226]
5.32[157, 279, 126, 67, 52, 43, 68, 226]
5.32[157, 279, 126, 67, 52, 43, 68, 226]
5.32[185, 286, 110, 73, 59, 45, 76, 212]
5.34[185, 286, 110, 73, 59, 45, 76, 212]
5.34[185, 286, 110, 73, 59, 45, 76, 212]
5.34[185, 286, 110, 73, 59, 45, 76, 212]
5.34[185, 286, 110, 73, 59, 45, 76, 212]
5.34[185, 286, 110, 73, 59, 45, 76, 212]
5.34[185, 286, 110, 73, 59, 45, 76, 212]
5.34[185, 286, 110, 73, 59, 45, 76, 212]
5.34[183, 283, 105, 71, 61, 44, 72, 251]
5.35[183, 283, 105, 71, 61, 44, 72, 251]
5.35[183, 283, 105, 71, 61, 44, 72, 251]
5.35[183, 283, 105, 71, 61, 44, 72, 251]
5.35[183, 283, 105, 71, 61, 44, 72, 251]
5.35[183, 283, 105, 71, 61, 44, 72, 251]
5.35[183, 283, 105, 71, 61, 44, 72, 251]
5.35[183, 283, 105, 71, 61, 44, 72, 251]
5.35[196, 328, 104, 69, 58, 41, 70, 305]
5.38[196, 328, 104, 69, 58, 41, 70, 305]
5.38[196, 328, 104, 69, 58, 41, 70, 305]
5.38[196, 328, 104, 69, 58, 41, 70, 305]
5.38[196, 328, 104, 69, 58, 41, 70, 305]
5.38[196, 328, 104, 69, 58, 41, 70, 305]
5.38[196, 328, 104, 69, 58, 41, 70, 305]
5.38[196, 328, 104, 69, 58, 41, 70, 305]
5.38[197, 315, 95, 67, 58, 41, 76, 322]
5.4[197, 315, 95, 67, 58, 41, 76, 322]
5.4[197, 315, 95, 67, 58, 41, 76, 322]
5.4[197, 315, 95, 67, 58, 41, 76, 322]
5.4[197, 315, 95, 67, 58, 41, 76, 322]
5.4[197, 315, 95, 67, 58, 41, 76, 322]
5.4[197, 315, 95, 67, 58, 41, 76, 322]
5.4[197, 315, 95, 67, 58, 41, 76, 322]
5.4[194, 330, 104, 66, 54, 42, 78, 307]
5.41[194, 330, 104, 66, 54, 42, 78, 307]
5.41[194, 330, 104, 66, 54, 42, 78, 307]
5.41[194, 330, 104, 66, 54, 42, 78, 307]
5.41[194, 330, 104, 66, 54, 42, 78, 307]
5.41[194, 330, 104, 66, 54, 42, 78, 307]
5.41[194, 330, 104, 66, 54, 42, 78, 307]
5.41[194, 330, 104, 66, 54, 42, 78, 307]
5.41[178, 299, 100, 56, 51, 42, 65, 329]
5.44[178, 299, 100, 56, 51, 42, 65, 329]
5.44[178, 299, 100, 56, 51, 42, 65, 329]
5.44[178, 299, 100, 56, 51, 42, 65, 329]
5.44[178, 299, 100, 56, 51, 42, 65, 329]
5.44[178, 299, 100, 56, 51, 42, 65, 329]
5.44[178, 299, 100, 56, 51, 42, 65, 329]
5.44[178, 299, 100, 56, 51, 42, 65, 329]
5.44[172, 288, 98, 58, 51, 44, 68, 297]
5.46[172, 288, 98, 58, 51, 44, 68, 297]
5.46[172, 288, 98, 58, 51, 44, 68, 297]
5.46[172, 288, 98, 58, 51, 44, 68, 297]
5.46[172, 288, 98, 58, 51, 44, 68, 297]
5.46[172, 288, 98, 58, 51, 44, 68, 297]
5.46[172, 288, 98, 58, 51, 44, 68, 297]
5.46[172, 288, 98, 58, 51, 44, 68, 297]
5.46[155, 231, 93, 55, 53, 45, 70, 251]
5.47[155, 231, 93, 55, 53, 45, 70, 251]
5.47[155, 231, 93, 55, 53, 45, 70, 251]
5.47[155, 231, 93, 55, 53, 45, 70, 251]
5.47[155, 231, 93, 55, 53, 45, 70, 251]
5.47[155, 231, 93, 55, 53, 45, 70, 251]
5.47[155, 231, 93, 55, 53, 45, 70, 251]
5.47[155, 231, 93, 55, 53, 45, 70, 251]
5.47[164, 241, 95, 55, 49, 40, 66, 247]
5.5[164, 241, 95, 55, 49, 40, 66, 247]
5.5[164, 241, 95, 55, 49, 40, 66, 247]
5.5[164, 241, 95, 55, 49, 40, 66, 247]
5.5[164, 241, 95, 55, 49, 40, 66, 247]
5.5[164, 241, 95, 55, 49, 40, 66, 247]
5.5[164, 241, 95, 55, 49, 40, 66, 247]
5.5[164, 241, 95, 55, 49, 40, 66, 247]
5.5[168, 233, 101, 54, 49, 38, 67, 273]
5.52[168, 233, 101, 54, 49, 38, 67, 273]
5.52[168, 233, 101, 54, 49, 38, 67, 273]
5.52[168, 233, 101, 54, 49, 38, 67, 273]
5.52[168, 233, 101, 54, 49, 38, 67, 273]
5.52[168, 233, 101, 54, 49, 38, 67, 273]
5.52[168, 233, 101, 54, 49, 38, 67, 273]
5.52[168, 233, 101, 54, 49, 38, 67, 273]
5.52[143, 184, 90, 53, 44, 37, 69, 263]
5.53[143, 184, 90, 53, 44, 37, 69, 263]
5.53[143, 184, 90, 53, 44, 37, 69, 263]
5.53[143, 184, 90, 53, 44, 37, 69, 263]
5.53[143, 184, 90, 53, 44, 37, 69, 263]
5.53[143, 184, 90, 53, 44, 37, 69, 263]
5.53[143, 184, 90, 53, 44, 37, 69, 263]
5.53[143, 184, 90, 53, 44, 37, 69, 263]
5.53[146, 182, 91, 52, 42, 35, 67, 250]
5.56[146, 182, 91, 52, 42, 35, 67, 250]
5.56[146, 182, 91, 52, 42, 35, 67, 250]
5.56[146, 182, 91, 52, 42, 35, 67, 250]
5.56[146, 182, 91, 52, 42, 35, 67, 250]
5.56[146, 182, 91, 52, 42, 35, 67, 250]
5.56[146, 182, 91, 52, 42, 35, 67, 250]
5.56[146, 182, 91, 52, 42, 35, 67, 250]
5.56[168, 213, 101, 57, 40, 34, 66, 242]
5.58[168, 213, 101, 57, 40, 34, 66, 242]
5.58[168, 213, 101, 57, 40, 34, 66, 242]
5.58[168, 213, 101, 57, 40, 34, 66, 242]
5.58[168, 213, 101, 57, 40, 34, 66, 242]
5.58[168, 213, 101, 57, 40, 34, 66, 242]
5.58[168, 213, 101, 57, 40, 34, 66, 242]
5.58[168, 213, 101, 57, 40, 34, 66, 242]
5.58[163, 202, 100, 59, 45, 41, 67, 303]
5.59[163, 202, 100, 59, 45, 41, 67, 303]
5.59[163, 202, 100, 59, 45, 41, 67, 303]
5.59[163, 202, 100, 59, 45, 41, 67, 303]
5.59[163, 202, 100, 59, 45, 41, 67, 303]
5.59[163, 202, 100, 59, 45, 41, 67, 303]
5.59[163, 202, 100, 59, 45, 41, 67, 303]
5.59[163, 202, 100, 59, 45, 41, 67, 303]
5.59[188, 226, 99, 64, 50, 44, 70, 304]
5.62[188, 226, 99, 64, 50, 44, 70, 304]
5.62[188, 226, 99, 64, 50, 44, 70, 304]
5.62[188, 226, 99, 64, 50, 44, 70, 304]
5.62[188, 226, 99, 64, 50, 44, 70, 304]
5.62[188, 226, 99, 64, 50, 44, 70, 304]
5.62[188, 226, 99, 64, 50, 44, 70, 304]
5.62[188, 226, 99, 64, 50, 44, 70, 304]
5.62[196, 238, 104, 65, 49, 44, 66, 313]
5.64[196, 238, 104, 65, 49, 44, 66, 313]
5.64[196, 238, 104, 65, 49, 44, 66, 313]
5.64[196, 238, 104, 65, 49, 44, 66, 313]
5.64[196, 238, 104, 65, 49, 44, 66, 313]
5.64[196, 238, 104, 65, 49, 44, 66, 313]
5.64[196, 238, 104, 65, 49, 44, 66, 313]
5.64[196, 238, 104, 65, 49, 44, 66, 313]
5.64[221, 294, 112, 73, 51, 46, 74, 317]
5.66[221, 294, 112, 73, 51, 46, 74, 317]
5.66[221, 294, 112, 73, 51, 46, 74, 317]
5.66[221, 294, 112, 73, 51, 46, 74, 317]
5.66[221, 294, 112, 73, 51, 46, 74, 317]
5.66[221, 294, 112, 73, 51, 46, 74, 317]
5.66[221, 294, 112, 73, 51, 46, 74, 317]
5.66[221, 294, 112, 73, 51, 46, 74, 317]
5.66[219, 305, 113, 73, 52, 48, 73, 319]
5.68[219, 305, 113, 73, 52, 48, 73, 319]
5.68[219, 305, 113, 73, 52, 48, 73, 319]
5.68[219, 305, 113, 73, 52, 48, 73, 319]
5.68[219, 305, 113, 73, 52, 48, 73, 319]
5.68[219, 305, 113, 73, 52, 48, 73, 319]
5.68[219, 305, 113, 73, 52, 48, 73, 319]
5.68[219, 305, 113, 73, 52, 48, 73, 319]
5.68[217, 315, 111, 67, 46, 42, 65, 252]
5.7[217, 315, 111, 67, 46, 42, 65, 252]
5.7[217, 315, 111, 67, 46, 42, 65, 252]
5.7[217, 315, 111, 67, 46, 42, 65, 252]
5.7[217, 315, 111, 67, 46, 42, 65, 252]
5.7[217, 315, 111, 67, 46, 42, 65, 252]
5.7[217, 315, 111, 67, 46, 42, 65, 252]
5.7[217, 315, 111, 67, 46, 42, 65, 252]
5.7[201, 306, 107, 61, 43, 40, 61, 270]
5.72[201, 306, 107, 61, 43, 40, 61, 270]
5.72[201, 306, 107, 61, 43, 40, 61, 270]
5.72[201, 306, 107, 61, 43, 40, 61, 270]
5.72[201, 306, 107, 61, 43, 40, 61, 270]
5.72[201, 306, 107, 61, 43, 40, 61, 270]
5.72[201, 306, 107, 61, 43, 40, 61, 270]
5.72[201, 306, 107, 61, 43, 40, 61, 270]
5.72[188, 302, 104, 62, 42, 39, 71, 244]
5.74[188, 302, 104, 62, 42, 39, 71, 244]
5.74[188, 302, 104, 62, 42, 39, 71, 244]
5.74[188, 302, 104, 62, 42, 39, 71, 244]
5.74[188, 302, 104, 62, 42, 39, 71, 244]
5.74[188, 302, 104, 62, 42, 39, 71, 244]
5.74[188, 302, 104, 62, 42, 39, 71, 244]
5.74[188, 302, 104, 62, 42, 39, 71, 244]
5.74[179, 278, 94, 52, 40, 38, 66, 238]
5.76[179, 278, 94, 52, 40, 38, 66, 238]
5.76[179, 278, 94, 52, 40, 38, 66, 238]
5.76[179, 278, 94, 52, 40, 38, 66, 238]
5.76[179, 278, 94, 52, 40, 38, 66, 238]
5.76[179, 278, 94, 52, 40, 38, 66, 238]
5.76[179, 278, 94, 52, 40, 38, 66, 238]
5.76[179, 278, 94, 52, 40, 38, 66, 238]
5.76[188, 291, 102, 57, 46, 39, 66, 245]
5.78[188, 291, 102, 57, 46, 39, 66, 245]
5.78[188, 291, 102, 57, 46, 39, 66, 245]
5.78[188, 291, 102, 57, 46, 39, 66, 245]
5.78[188, 291, 102, 57, 46, 39, 66, 245]
5.78[188, 291, 102, 57, 46, 39, 66, 245]
5.78[188, 291, 102, 57, 46, 39, 66, 245]
5.78[188, 291, 102, 57, 46, 39, 66, 245]
5.78[179, 283, 103, 56, 44, 39, 69, 236]
5.8[179, 283, 103, 56, 44, 39, 69, 236]
5.8[179, 283, 103, 56, 44, 39, 69, 236]
5.8[179, 283, 103, 56, 44, 39, 69, 236]
5.8[179, 283, 103, 56, 44, 39, 69, 236]
5.8[179, 283, 103, 56, 44, 39, 69, 236]
5.8[179, 283, 103, 56, 44, 39, 69, 236]
5.8[179, 283, 103, 56, 44, 39, 69, 236]
5.8[165, 258, 92, 52, 41, 39, 67, 164]
5.82[165, 258, 92, 52, 41, 39, 67, 164]
5.82[165, 258, 92, 52, 41, 39, 67, 164]
5.82[165, 258, 92, 52, 41, 39, 67, 164]
5.82[165, 258, 92, 52, 41, 39, 67, 164]
5.82[165, 258, 92, 52, 41, 39, 67, 164]
5.82[165, 258, 92, 52, 41, 39, 67, 164]
5.82[165, 258, 92, 52, 41, 39, 67, 164]
5.82[176, 291, 99, 55, 45, 41, 67, 154]
5.84[176, 291, 99, 55, 45, 41, 67, 154]
5.84[176, 291, 99, 55, 45, 41, 67, 154]
5.84[176, 291, 99, 55, 45, 41, 67, 154]
5.84[176, 291, 99, 55, 45, 41, 67, 154]
5.84[176, 291, 99, 55, 45, 41, 67, 154]
5.84[176, 291, 99, 55, 45, 41, 67, 154]
5.84[176, 291, 99, 55, 45, 41, 67, 154]
5.84[179, 300, 106, 63, 47, 43, 67, 170]
5.86[179, 300, 106, 63, 47, 43, 67, 170]
5.86[179, 300, 106, 63, 47, 43, 67, 170]
5.86[179, 300, 106, 63, 47, 43, 67, 170]
5.86[179, 300, 106, 63, 47, 43, 67, 170]
5.86[179, 300, 106, 63, 47, 43, 67, 170]
5.86[179, 300, 106, 63, 47, 43, 67, 170]
5.86[179, 300, 106, 63, 47, 43, 67, 170]
5.86[161, 292, 110, 60, 46, 41, 70, 192]
5.88[161, 292, 110, 60, 46, 41, 70, 192]
5.88[161, 292, 110, 60, 46, 41, 70, 192]
5.88[161, 292, 110, 60, 46, 41, 70, 192]
5.88[161, 292, 110, 60, 46, 41, 70, 192]
5.88[161, 292, 110, 60, 46, 41, 70, 192]
5.88[161, 292, 110, 60, 46, 41, 70, 192]
5.88[161, 292, 110, 60, 46, 41, 70, 192]
5.88[165, 292, 111, 60, 49, 43, 69, 196]
5.9[165, 292, 111, 60, 49, 43, 69, 196]
5.9[165, 292, 111, 60, 49, 43, 69, 196]
5.9[165, 292, 111, 60, 49, 43, 69, 196]
5.9[165, 292, 111, 60, 49, 43, 69, 196]
5.9[165, 292, 111, 60, 49, 43, 69, 196]
5.9[165, 292, 111, 60, 49, 43, 69, 196]
5.9[165, 292, 111, 60, 49, 43, 69, 196]
5.9[176, 305, 114, 60, 49, 43, 69, 241]
5.92[176, 305, 114, 60, 49, 43, 69, 241]
5.92[176, 305, 114, 60, 49, 43, 69, 241]
5.92[176, 305, 114, 60, 49, 43, 69, 241]
5.92[176, 305, 114, 60, 49, 43, 69, 241]
5.92[176, 305, 114, 60, 49, 43, 69, 241]
5.92[176, 305, 114, 60, 49, 43, 69, 241]
5.92[176, 305, 114, 60, 49, 43, 69, 241]
5.92[183, 294, 118, 72, 55, 45, 69, 248]
5.94[183, 294, 118, 72, 55, 45, 69, 248]
5.94[183, 294, 118, 72, 55, 45, 69, 248]
5.94[183, 294, 118, 72, 55, 45, 69, 248]
5.94[183, 294, 118, 72, 55, 45, 69, 248]
5.94[183, 294, 118, 72, 55, 45, 69, 248]
5.94[183, 294, 118, 72, 55, 45, 69, 248]
5.94[183, 294, 118, 72, 55, 45, 69, 248]
5.94[157, 261, 113, 66, 53, 43, 65, 241]
5.96[157, 261, 113, 66, 53, 43, 65, 241]
5.96[157, 261, 113, 66, 53, 43, 65, 241]
5.96[157, 261, 113, 66, 53, 43, 65, 241]
5.96[157, 261, 113, 66, 53, 43, 65, 241]
5.96[157, 261, 113, 66, 53, 43, 65, 241]
5.96[157, 261, 113, 66, 53, 43, 65, 241]
5.96[157, 261, 113, 66, 53, 43, 65, 241]
5.96[146, 214, 98, 68, 51, 42, 64, 284]
5.98[146, 214, 98, 68, 51, 42, 64, 284]
5.98[146, 214, 98, 68, 51, 42, 64, 284]
5.98[146, 214, 98, 68, 51, 42, 64, 284]
5.98[146, 214, 98, 68, 51, 42, 64, 284]
5.98[146, 214, 98, 68, 51, 42, 64, 284]
5.98[146, 214, 98, 68, 51, 42, 64, 284]
5.98[146, 214, 98, 68, 51, 42, 64, 284]
5.98[141, 210, 92, 69, 52, 43, 68, 298]
6.0[141, 210, 92, 69, 52, 43, 68, 298]
6.0[141, 210, 92, 69, 52, 43, 68, 298]
6.0[141, 210, 92, 69, 52, 43, 68, 298]
6.0[141, 210, 92, 69, 52, 43, 68, 298]
6.0[141, 210, 92, 69, 52, 43, 68, 298]
6.0[141, 210, 92, 69, 52, 43, 68, 298]
6.0[141, 210, 92, 69, 52, 43, 68, 298]
6.0[134, 205, 96, 70, 53, 40, 65, 270]
6.02[134, 205, 96, 70, 53, 40, 65, 270]
6.02[134, 205, 96, 70, 53, 40, 65, 270]
6.02[134, 205, 96, 70, 53, 40, 65, 270]
6.02[134, 205, 96, 70, 53, 40, 65, 270]
6.02[134, 205, 96, 70, 53, 40, 65, 270]
6.02[134, 205, 96, 70, 53, 40, 65, 270]
6.02[134, 205, 96, 70, 53, 40, 65, 270]
6.02[116, 222, 88, 56, 43, 36, 56, 315]
6.04[116, 222, 88, 56, 43, 36, 56, 315]
6.04[116, 222, 88, 56, 43, 36, 56, 315]
6.04[116, 222, 88, 56, 43, 36, 56, 315]
6.04[116, 222, 88, 56, 43, 36, 56, 315]
6.04[116, 222, 88, 56, 43, 36, 56, 315]
6.04[116, 222, 88, 56, 43, 36, 56, 315]
6.04[116, 222, 88, 56, 43, 36, 56, 315]
6.04[116, 222, 87, 57, 42, 36, 54, 314]
6.06[116, 222, 87, 57, 42, 36, 54, 314]
6.06[116, 222, 87, 57, 42, 36, 54, 314]
6.06[116, 222, 87, 57, 42, 36, 54, 314]
6.06[116, 222, 87, 57, 42, 36, 54, 314]
6.06[116, 222, 87, 57, 42, 36, 54, 314]
6.06[116, 222, 87, 57, 42, 36, 54, 314]
6.06[116, 222, 87, 57, 42, 36, 54, 314]
6.06[119, 237, 82, 53, 44, 38, 57, 263]
6.08[119, 237, 82, 53, 44, 38, 57, 263]
6.08[119, 237, 82, 53, 44, 38, 57, 263]
6.08[119, 237, 82, 53, 44, 38, 57, 263]
6.08[119, 237, 82, 53, 44, 38, 57, 263]
6.08[119, 237, 82, 53, 44, 38, 57, 263]
6.08[119, 237, 82, 53, 44, 38, 57, 263]
6.08[119, 237, 82, 53, 44, 38, 57, 263]
6.08[122, 230, 83, 54, 42, 37, 48, 253]
6.1[122, 230, 83, 54, 42, 37, 48, 253]
6.1[122, 230, 83, 54, 42, 37, 48, 253]
6.1[122, 230, 83, 54, 42, 37, 48, 253]
6.1[122, 230, 83, 54, 42, 37, 48, 253]
6.1[122, 230, 83, 54, 42, 37, 48, 253]
6.1[122, 230, 83, 54, 42, 37, 48, 253]
6.1[122, 230, 83, 54, 42, 37, 48, 253]
6.1[168, 252, 87, 59, 45, 40, 51, 241]
6.12[168, 252, 87, 59, 45, 40, 51, 241]
6.12[168, 252, 87, 59, 45, 40, 51, 241]
6.12[168, 252, 87, 59, 45, 40, 51, 241]
6.12[168, 252, 87, 59, 45, 40, 51, 241]
6.12[168, 252, 87, 59, 45, 40, 51, 241]
6.12[168, 252, 87, 59, 45, 40, 51, 241]
6.12[168, 252, 87, 59, 45, 40, 51, 241]
6.12[169, 213, 84, 58, 47, 38, 48, 166]
6.14[169, 213, 84, 58, 47, 38, 48, 166]
6.14[169, 213, 84, 58, 47, 38, 48, 166]
6.14[169, 213, 84, 58, 47, 38, 48, 166]
6.14[169, 213, 84, 58, 47, 38, 48, 166]
6.14[169, 213, 84, 58, 47, 38, 48, 166]
6.14[169, 213, 84, 58, 47, 38, 48, 166]
6.14[169, 213, 84, 58, 47, 38, 48, 166]
6.14[172, 218, 81, 56, 48, 37, 63, 173]
6.16[172, 218, 81, 56, 48, 37, 63, 173]
6.16[172, 218, 81, 56, 48, 37, 63, 173]
6.16[172, 218, 81, 56, 48, 37, 63, 173]
6.16[172, 218, 81, 56, 48, 37, 63, 173]
6.16[172, 218, 81, 56, 48, 37, 63, 173]
6.16[172, 218, 81, 56, 48, 37, 63, 173]
6.16[172, 218, 81, 56, 48, 37, 63, 173]
6.16[176, 219, 90, 60, 50, 43, 63, 155]
6.18[176, 219, 90, 60, 50, 43, 63, 155]
6.18[176, 219, 90, 60, 50, 43, 63, 155]
6.18[176, 219, 90, 60, 50, 43, 63, 155]
6.18[176, 219, 90, 60, 50, 43, 63, 155]
6.18[176, 219, 90, 60, 50, 43, 63, 155]
6.18[176, 219, 90, 60, 50, 43, 63, 155]
6.18[176, 219, 90, 60, 50, 43, 63, 155]
6.18[174, 237, 101, 61, 53, 43, 63, 133]
6.2[174, 237, 101, 61, 53, 43, 63, 133]
6.2[174, 237, 101, 61, 53, 43, 63, 133]
6.2[174, 237, 101, 61, 53, 43, 63, 133]
6.2[174, 237, 101, 61, 53, 43, 63, 133]
6.2[174, 237, 101, 61, 53, 43, 63, 133]
6.2[174, 237, 101, 61, 53, 43, 63, 133]
6.2[174, 237, 101, 61, 53, 43, 63, 133]
6.2[135, 227, 106, 60, 51, 41, 79, 165]
6.22[135, 227, 106, 60, 51, 41, 79, 165]
6.22[135, 227, 106, 60, 51, 41, 79, 165]
6.22[135, 227, 106, 60, 51, 41, 79, 165]
6.22[135, 227, 106, 60, 51, 41, 79, 165]
6.22[135, 227, 106, 60, 51, 41, 79, 165]
6.22[135, 227, 106, 60, 51, 41, 79, 165]
6.22[135, 227, 106, 60, 51, 41, 79, 165]
6.22[128, 231, 106, 61, 53, 43, 82, 209]
6.24[128, 231, 106, 61, 53, 43, 82, 209]
6.24[128, 231, 106, 61, 53, 43, 82, 209]
6.24[128, 231, 106, 61, 53, 43, 82, 209]
6.24[128, 231, 106, 61, 53, 43, 82, 209]
6.24[128, 231, 106, 61, 53, 43, 82, 209]
6.24[128, 231, 106, 61, 53, 43, 82, 209]
6.24[128, 231, 106, 61, 53, 43, 82, 209]
6.24[129, 232, 111, 64, 52, 42, 76, 204]
6.26[129, 232, 111, 64, 52, 42, 76, 204]
6.26[129, 232, 111, 64, 52, 42, 76, 204]
6.26[129, 232, 111, 64, 52, 42, 76, 204]
6.26[129, 232, 111, 64, 52, 42, 76, 204]
6.26[129, 232, 111, 64, 52, 42, 76, 204]
6.26[129, 232, 111, 64, 52, 42, 76, 204]
6.26[129, 232, 111, 64, 52, 42, 76, 204]
6.26[125, 227, 109, 59, 48, 35, 76, 199]
6.28[125, 227, 109, 59, 48, 35, 76, 199]
6.28[125, 227, 109, 59, 48, 35, 76, 199]
6.28[125, 227, 109, 59, 48, 35, 76, 199]
6.28[125, 227, 109, 59, 48, 35, 76, 199]
6.28[125, 227, 109, 59, 48, 35, 76, 199]
6.28[125, 227, 109, 59, 48, 35, 76, 199]
6.28[125, 227, 109, 59, 48, 35, 76, 199]
6.28[139, 221, 102, 58, 47, 34, 79, 203]
6.3[139, 221, 102, 58, 47, 34, 79, 203]
6.3[139, 221, 102, 58, 47, 34, 79, 203]
6.3[139, 221, 102, 58, 47, 34, 79, 203]
6.3[139, 221, 102, 58, 47, 34, 79, 203]
6.3[139, 221, 102, 58, 47, 34, 79, 203]
6.3[139, 221, 102, 58, 47, 34, 79, 203]
6.3[139, 221, 102, 58, 47, 34, 79, 203]
6.3[127, 195, 88, 58, 46, 36, 72, 218]
6.32[127, 195, 88, 58, 46, 36, 72, 218]
6.32[127, 195, 88, 58, 46, 36, 72, 218]
6.32[127, 195, 88, 58, 46, 36, 72, 218]
6.32[127, 195, 88, 58, 46, 36, 72, 218]
6.32[127, 195, 88, 58, 46, 36, 72, 218]
6.32[127, 195, 88, 58, 46, 36, 72, 218]
6.32[127, 195, 88, 58, 46, 36, 72, 218]
6.32[125, 188, 89, 55, 40, 35, 70, 189]
6.34[125, 188, 89, 55, 40, 35, 70, 189]
6.34[125, 188, 89, 55, 40, 35, 70, 189]
6.34[125, 188, 89, 55, 40, 35, 70, 189]
6.34[125, 188, 89, 55, 40, 35, 70, 189]
6.34[125, 188, 89, 55, 40, 35, 70, 189]
6.34[125, 188, 89, 55, 40, 35, 70, 189]
6.34[125, 188, 89, 55, 40, 35, 70, 189]
6.34[123, 185, 89, 55, 43, 36, 70, 197]
6.36[123, 185, 89, 55, 43, 36, 70, 197]
6.36[123, 185, 89, 55, 43, 36, 70, 197]
6.36[123, 185, 89, 55, 43, 36, 70, 197]
6.36[123, 185, 89, 55, 43, 36, 70, 197]
6.36[123, 185, 89, 55, 43, 36, 70, 197]
6.36[123, 185, 89, 55, 43, 36, 70, 197]
6.36[123, 185, 89, 55, 43, 36, 70, 197]
6.36[120, 179, 95, 54, 43, 33, 70, 231]
6.38[120, 179, 95, 54, 43, 33, 70, 231]
6.38[120, 179, 95, 54, 43, 33, 70, 231]
6.38[120, 179, 95, 54, 43, 33, 70, 231]
6.38[120, 179, 95, 54, 43, 33, 70, 231]
6.38[120, 179, 95, 54, 43, 33, 70, 231]
6.38[120, 179, 95, 54, 43, 33, 70, 231]
6.38[120, 179, 95, 54, 43, 33, 70, 231]
6.38[110, 210, 98, 52, 42, 35, 67, 242]
6.4[110, 210, 98, 52, 42, 35, 67, 242]
6.4[110, 210, 98, 52, 42, 35, 67, 242]
6.4[110, 210, 98, 52, 42, 35, 67, 242]
6.4[110, 210, 98, 52, 42, 35, 67, 242]
6.4[110, 210, 98, 52, 42, 35, 67, 242]
6.4[110, 210, 98, 52, 42, 35, 67, 242]
6.4[110, 210, 98, 52, 42, 35, 67, 242]
6.4[108, 212, 99, 48, 40, 32, 63, 208]
6.42[108, 212, 99, 48, 40, 32, 63, 208]
6.42[108, 212, 99, 48, 40, 32, 63, 208]
6.42[108, 212, 99, 48, 40, 32, 63, 208]
6.42[108, 212, 99, 48, 40, 32, 63, 208]
6.42[108, 212, 99, 48, 40, 32, 63, 208]
6.42[108, 212, 99, 48, 40, 32, 63, 208]
6.42[108, 212, 99, 48, 40, 32, 63, 208]
6.42[118, 208, 93, 47, 44, 35, 71, 212]
6.44[118, 208, 93, 47, 44, 35, 71, 212]
6.44[118, 208, 93, 47, 44, 35, 71, 212]
6.44[118, 208, 93, 47, 44, 35, 71, 212]
6.44[118, 208, 93, 47, 44, 35, 71, 212]
6.44[118, 208, 93, 47, 44, 35, 71, 212]
6.44[118, 208, 93, 47, 44, 35, 71, 212]
6.44[118, 208, 93, 47, 44, 35, 71, 212]
6.44[126, 212, 95, 45, 41, 35, 70, 203]
6.46[126, 212, 95, 45, 41, 35, 70, 203]
6.46[126, 212, 95, 45, 41, 35, 70, 203]
6.46[126, 212, 95, 45, 41, 35, 70, 203]
6.46[126, 212, 95, 45, 41, 35, 70, 203]
6.46[126, 212, 95, 45, 41, 35, 70, 203]
6.46[126, 212, 95, 45, 41, 35, 70, 203]
6.46[126, 212, 95, 45, 41, 35, 70, 203]
6.46[128, 227, 85, 46, 42, 36, 67, 164]
6.48[128, 227, 85, 46, 42, 36, 67, 164]
6.48[128, 227, 85, 46, 42, 36, 67, 164]
6.48[128, 227, 85, 46, 42, 36, 67, 164]
6.48[128, 227, 85, 46, 42, 36, 67, 164]
6.48[128, 227, 85, 46, 42, 36, 67, 164]
6.48[128, 227, 85, 46, 42, 36, 67, 164]
6.48[128, 227, 85, 46, 42, 36, 67, 164]
6.48[139, 216, 84, 55, 44, 38, 71, 164]
6.5[139, 216, 84, 55, 44, 38, 71, 164]
6.5[139, 216, 84, 55, 44, 38, 71, 164]
6.5[139, 216, 84, 55, 44, 38, 71, 164]
6.5[139, 216, 84, 55, 44, 38, 71, 164]
6.5[139, 216, 84, 55, 44, 38, 71, 164]
6.5[139, 216, 84, 55, 44, 38, 71, 164]
6.5[139, 216, 84, 55, 44, 38, 71, 164]
6.5[153, 232, 89, 58, 47, 41, 65, 202]
6.52[153, 232, 89, 58, 47, 41, 65, 202]
6.52[153, 232, 89, 58, 47, 41, 65, 202]
6.52[153, 232, 89, 58, 47, 41, 65, 202]
6.52[153, 232, 89, 58, 47, 41, 65, 202]
6.52[153, 232, 89, 58, 47, 41, 65, 202]
6.52[153, 232, 89, 58, 47, 41, 65, 202]
6.52[153, 232, 89, 58, 47, 41, 65, 202]
6.52[150, 229, 90, 56, 43, 39, 67, 206]
6.54[150, 229, 90, 56, 43, 39, 67, 206]
6.54[150, 229, 90, 56, 43, 39, 67, 206]
6.54[150, 229, 90, 56, 43, 39, 67, 206]
6.54[150, 229, 90, 56, 43, 39, 67, 206]
6.54[150, 229, 90, 56, 43, 39, 67, 206]
6.54[150, 229, 90, 56, 43, 39, 67, 206]
6.54[150, 229, 90, 56, 43, 39, 67, 206]
6.54[145, 222, 89, 56, 44, 40, 65, 217]
6.56[145, 222, 89, 56, 44, 40, 65, 217]
6.56[145, 222, 89, 56, 44, 40, 65, 217]
6.56[145, 222, 89, 56, 44, 40, 65, 217]
6.56[145, 222, 89, 56, 44, 40, 65, 217]
6.56[145, 222, 89, 56, 44, 40, 65, 217]
6.56[145, 222, 89, 56, 44, 40, 65, 217]
6.56[145, 222, 89, 56, 44, 40, 65, 217]
6.56[152, 242, 96, 59, 46, 41, 67, 229]
6.58[152, 242, 96, 59, 46, 41, 67, 229]
6.58[152, 242, 96, 59, 46, 41, 67, 229]
6.58[152, 242, 96, 59, 46, 41, 67, 229]
6.58[152, 242, 96, 59, 46, 41, 67, 229]
6.58[152, 242, 96, 59, 46, 41, 67, 229]
6.58[152, 242, 96, 59, 46, 41, 67, 229]
6.58[152, 242, 96, 59, 46, 41, 67, 229]
6.58[179, 236, 93, 53, 48, 41, 71, 220]
6.6[179, 236, 93, 53, 48, 41, 71, 220]
6.6[179, 236, 93, 53, 48, 41, 71, 220]
6.6[179, 236, 93, 53, 48, 41, 71, 220]
6.6[179, 236, 93, 53, 48, 41, 71, 220]
6.6[179, 236, 93, 53, 48, 41, 71, 220]
6.6[179, 236, 93, 53, 48, 41, 71, 220]
6.6[179, 236, 93, 53, 48, 41, 71, 220]
6.6[166, 224, 86, 49, 45, 38, 73, 179]
6.62[166, 224, 86, 49, 45, 38, 73, 179]
6.62[166, 224, 86, 49, 45, 38, 73, 179]
6.62[166, 224, 86, 49, 45, 38, 73, 179]
6.62[166, 224, 86, 49, 45, 38, 73, 179]
6.62[166, 224, 86, 49, 45, 38, 73, 179]
6.62[166, 224, 86, 49, 45, 38, 73, 179]
6.62[166, 224, 86, 49, 45, 38, 73, 179]
6.62[174, 241, 91, 57, 51, 40, 59, 165]
6.64[174, 241, 91, 57, 51, 40, 59, 165]
6.64[174, 241, 91, 57, 51, 40, 59, 165]
6.64[174, 241, 91, 57, 51, 40, 59, 165]
6.64[174, 241, 91, 57, 51, 40, 59, 165]
6.64[174, 241, 91, 57, 51, 40, 59, 165]
6.64[174, 241, 91, 57, 51, 40, 59, 165]
6.64[174, 241, 91, 57, 51, 40, 59, 165]
6.64[176, 256, 106, 58, 53, 44, 65, 165]
6.66[176, 256, 106, 58, 53, 44, 65, 165]
6.66[176, 256, 106, 58, 53, 44, 65, 165]
6.66[176, 256, 106, 58, 53, 44, 65, 165]
6.66[176, 256, 106, 58, 53, 44, 65, 165]
6.66[176, 256, 106, 58, 53, 44, 65, 165]
6.66[176, 256, 106, 58, 53, 44, 65, 165]
6.66[176, 256, 106, 58, 53, 44, 65, 165]
6.66[173, 234, 106, 54, 49, 44, 65, 153]
6.68[173, 234, 106, 54, 49, 44, 65, 153]
6.68[173, 234, 106, 54, 49, 44, 65, 153]
6.68[173, 234, 106, 54, 49, 44, 65, 153]
6.68[173, 234, 106, 54, 49, 44, 65, 153]
6.68[173, 234, 106, 54, 49, 44, 65, 153]
6.68[173, 234, 106, 54, 49, 44, 65, 153]
6.68[173, 234, 106, 54, 49, 44, 65, 153]
6.68[130, 206, 100, 50, 44, 41, 69, 170]
6.7[130, 206, 100, 50, 44, 41, 69, 170]
6.7[130, 206, 100, 50, 44, 41, 69, 170]
6.7[130, 206, 100, 50, 44, 41, 69, 170]
6.7[130, 206, 100, 50, 44, 41, 69, 170]
6.7[130, 206, 100, 50, 44, 41, 69, 170]
6.7[130, 206, 100, 50, 44, 41, 69, 170]
6.7[130, 206, 100, 50, 44, 41, 69, 170]
6.7[140, 231, 113, 61, 50, 44, 66, 172]
6.72[140, 231, 113, 61, 50, 44, 66, 172]
6.72[140, 231, 113, 61, 50, 44, 66, 172]
6.72[140, 231, 113, 61, 50, 44, 66, 172]
6.72[140, 231, 113, 61, 50, 44, 66, 172]
6.72[140, 231, 113, 61, 50, 44, 66, 172]
6.72[140, 231, 113, 61, 50, 44, 66, 172]
6.72[140, 231, 113, 61, 50, 44, 66, 172]
6.72[144, 260, 120, 60, 45, 42, 64, 155]
6.74[144, 260, 120, 60, 45, 42, 64, 155]
6.74[144, 260, 120, 60, 45, 42, 64, 155]
6.74[144, 260, 120, 60, 45, 42, 64, 155]
6.74[144, 260, 120, 60, 45, 42, 64, 155]
6.74[144, 260, 120, 60, 45, 42, 64, 155]
6.74[144, 260, 120, 60, 45, 42, 64, 155]
6.74[144, 260, 120, 60, 45, 42, 64, 155]
6.74[143, 247, 102, 61, 44, 36, 55, 137]
6.76[143, 247, 102, 61, 44, 36, 55, 137]
6.76[143, 247, 102, 61, 44, 36, 55, 137]
6.76[143, 247, 102, 61, 44, 36, 55, 137]
6.76[143, 247, 102, 61, 44, 36, 55, 137]
6.76[143, 247, 102, 61, 44, 36, 55, 137]
6.76[143, 247, 102, 61, 44, 36, 55, 137]
6.76[143, 247, 102, 61, 44, 36, 55, 137]
6.76[137, 243, 105, 63, 45, 36, 52, 135]
6.78[137, 243, 105, 63, 45, 36, 52, 135]
6.78[137, 243, 105, 63, 45, 36, 52, 135]
6.78[137, 243, 105, 63, 45, 36, 52, 135]
6.78[137, 243, 105, 63, 45, 36, 52, 135]
6.78[137, 243, 105, 63, 45, 36, 52, 135]
6.78[137, 243, 105, 63, 45, 36, 52, 135]
6.78[137, 243, 105, 63, 45, 36, 52, 135]
6.78[141, 254, 107, 68, 44, 36, 38, 129]
6.8[141, 254, 107, 68, 44, 36, 38, 129]
6.8[141, 254, 107, 68, 44, 36, 38, 129]
6.8[141, 254, 107, 68, 44, 36, 38, 129]
6.8[141, 254, 107, 68, 44, 36, 38, 129]
6.8[141, 254, 107, 68, 44, 36, 38, 129]
6.8[141, 254, 107, 68, 44, 36, 38, 129]
6.8[141, 254, 107, 68, 44, 36, 38, 129]
6.8[136, 235, 96, 61, 37, 32, 59, 142]
6.82[136, 235, 96, 61, 37, 32, 59, 142]
6.82[136, 235, 96, 61, 37, 32, 59, 142]
6.82[136, 235, 96, 61, 37, 32, 59, 142]
6.82[136, 235, 96, 61, 37, 32, 59, 142]
6.82[136, 235, 96, 61, 37, 32, 59, 142]
6.82[136, 235, 96, 61, 37, 32, 59, 142]
6.82[136, 235, 96, 61, 37, 32, 59, 142]
6.82[118, 186, 88, 58, 34, 29, 63, 143]
6.84[118, 186, 88, 58, 34, 29, 63, 143]
6.84[118, 186, 88, 58, 34, 29, 63, 143]
6.84[118, 186, 88, 58, 34, 29, 63, 143]
6.84[118, 186, 88, 58, 34, 29, 63, 143]
6.84[118, 186, 88, 58, 34, 29, 63, 143]
6.84[118, 186, 88, 58, 34, 29, 63, 143]
6.84[118, 186, 88, 58, 34, 29, 63, 143]
6.84[134, 210, 96, 60, 41, 34, 65, 152]
6.86[134, 210, 96, 60, 41, 34, 65, 152]
6.86[134, 210, 96, 60, 41, 34, 65, 152]
6.86[134, 210, 96, 60, 41, 34, 65, 152]
6.86[134, 210, 96, 60, 41, 34, 65, 152]
6.86[134, 210, 96, 60, 41, 34, 65, 152]
6.86[134, 210, 96, 60, 41, 34, 65, 152]
6.86[134, 210, 96, 60, 41, 34, 65, 152]
6.86[132, 200, 89, 54, 41, 35, 64, 170]
6.88[132, 200, 89, 54, 41, 35, 64, 170]
6.88[132, 200, 89, 54, 41, 35, 64, 170]
6.88[132, 200, 89, 54, 41, 35, 64, 170]
6.88[132, 200, 89, 54, 41, 35, 64, 170]
6.88[132, 200, 89, 54, 41, 35, 64, 170]
6.88[132, 200, 89, 54, 41, 35, 64, 170]
6.88[132, 200, 89, 54, 41, 35, 64, 170]
6.88[133, 214, 98, 59, 45, 35, 70, 149]
6.9[133, 214, 98, 59, 45, 35, 70, 149]
6.9[133, 214, 98, 59, 45, 35, 70, 149]
6.9[133, 214, 98, 59, 45, 35, 70, 149]
6.9[133, 214, 98, 59, 45, 35, 70, 149]
6.9[133, 214, 98, 59, 45, 35, 70, 149]
6.9[133, 214, 98, 59, 45, 35, 70, 149]
6.9[133, 214, 98, 59, 45, 35, 70, 149]
6.9[146, 231, 102, 63, 48, 34, 52, 138]
6.92[146, 231, 102, 63, 48, 34, 52, 138]
6.92[146, 231, 102, 63, 48, 34, 52, 138]
6.92[146, 231, 102, 63, 48, 34, 52, 138]
6.92[146, 231, 102, 63, 48, 34, 52, 138]
6.92[146, 231, 102, 63, 48, 34, 52, 138]
6.92[146, 231, 102, 63, 48, 34, 52, 138]
6.92[146, 231, 102, 63, 48, 34, 52, 138]
6.92[155, 258, 115, 67, 54, 37, 48, 140]
6.94[155, 258, 115, 67, 54, 37, 48, 140]
6.94[155, 258, 115, 67, 54, 37, 48, 140]
6.94[155, 258, 115, 67, 54, 37, 48, 140]
6.94[155, 258, 115, 67, 54, 37, 48, 140]
6.94[155, 258, 115, 67, 54, 37, 48, 140]
6.94[155, 258, 115, 67, 54, 37, 48, 140]
6.94[155, 258, 115, 67, 54, 37, 48, 140]
6.94[145, 231, 104, 63, 49, 33, 54, 163]
6.97[145, 231, 104, 63, 49, 33, 54, 163]
6.97[145, 231, 104, 63, 49, 33, 54, 163]
6.97[145, 231, 104, 63, 49, 33, 54, 163]
6.97[145, 231, 104, 63, 49, 33, 54, 163]
6.97[145, 231, 104, 63, 49, 33, 54, 163]
6.97[145, 231, 104, 63, 49, 33, 54, 163]
6.97[145, 231, 104, 63, 49, 33, 54, 163]
6.97[149, 246, 108, 66, 50, 33, 80, 141]
6.98[149, 246, 108, 66, 50, 33, 80, 141]
6.98[149, 246, 108, 66, 50, 33, 80, 141]
6.98[149, 246, 108, 66, 50, 33, 80, 141]
6.98[149, 246, 108, 66, 50, 33, 80, 141]
6.98[149, 246, 108, 66, 50, 33, 80, 141]
6.98[149, 246, 108, 66, 50, 33, 80, 141]
6.98[149, 246, 108, 66, 50, 33, 80, 141]
6.98[145, 243, 100, 57, 46, 32, 77, 140]
7.0[145, 243, 100, 57, 46, 32, 77, 140]
7.0[145, 243, 100, 57, 46, 32, 77, 140]
7.0[145, 243, 100, 57, 46, 32, 77, 140]
7.0[145, 243, 100, 57, 46, 32, 77, 140]
7.0[145, 243, 100, 57, 46, 32, 77, 140]
7.0[145, 243, 100, 57, 46, 32, 77, 140]
7.0[145, 243, 100, 57, 46, 32, 77, 140]
7.0[127, 214, 93, 52, 42, 31, 80, 148]
7.02[127, 214, 93, 52, 42, 31, 80, 148]
7.02[127, 214, 93, 52, 42, 31, 80, 148]
7.02[127, 214, 93, 52, 42, 31, 80, 148]
7.02[127, 214, 93, 52, 42, 31, 80, 148]
7.02[127, 214, 93, 52, 42, 31, 80, 148]
7.02[127, 214, 93, 52, 42, 31, 80, 148]
7.02[127, 214, 93, 52, 42, 31, 80, 148]
7.02[116, 196, 77, 47, 38, 30, 82, 149]
7.04[116, 196, 77, 47, 38, 30, 82, 149]
7.04[116, 196, 77, 47, 38, 30, 82, 149]
7.04[116, 196, 77, 47, 38, 30, 82, 149]
7.04[116, 196, 77, 47, 38, 30, 82, 149]
7.04[116, 196, 77, 47, 38, 30, 82, 149]
7.04[116, 196, 77, 47, 38, 30, 82, 149]
7.04[116, 196, 77, 47, 38, 30, 82, 149]
7.04[129, 232, 84, 50, 37, 33, 79, 109]
7.06[129, 232, 84, 50, 37, 33, 79, 109]
7.06[129, 232, 84, 50, 37, 33, 79, 109]
7.06[129, 232, 84, 50, 37, 33, 79, 109]
7.06[129, 232, 84, 50, 37, 33, 79, 109]
7.06[129, 232, 84, 50, 37, 33, 79, 109]
7.06[129, 232, 84, 50, 37, 33, 79, 109]
7.06[129, 232, 84, 50, 37, 33, 79, 109]
7.06[123, 218, 80, 48, 35, 33, 53, 113]
7.08[123, 218, 80, 48, 35, 33, 53, 113]
7.08[123, 218, 80, 48, 35, 33, 53, 113]
7.08[123, 218, 80, 48, 35, 33, 53, 113]
7.08[123, 218, 80, 48, 35, 33, 53, 113]
7.08[123, 218, 80, 48, 35, 33, 53, 113]
7.08[123, 218, 80, 48, 35, 33, 53, 113]
7.08[123, 218, 80, 48, 35, 33, 53, 113]
7.08[127, 203, 76, 48, 36, 32, 49, 120]
7.1[127, 203, 76, 48, 36, 32, 49, 120]
7.1[127, 203, 76, 48, 36, 32, 49, 120]
7.1[127, 203, 76, 48, 36, 32, 49, 120]
7.1[127, 203, 76, 48, 36, 32, 49, 120]
7.1[127, 203, 76, 48, 36, 32, 49, 120]
7.1[127, 203, 76, 48, 36, 32, 49, 120]
7.1[127, 203, 76, 48, 36, 32, 49, 120]
7.1[127, 214, 79, 49, 36, 32, 48, 102]
7.12[127, 214, 79, 49, 36, 32, 48, 102]
7.12[127, 214, 79, 49, 36, 32, 48, 102]
7.12[127, 214, 79, 49, 36, 32, 48, 102]
7.12[127, 214, 79, 49, 36, 32, 48, 102]
7.12[127, 214, 79, 49, 36, 32, 48, 102]
7.12[127, 214, 79, 49, 36, 32, 48, 102]
7.12[127, 214, 79, 49, 36, 32, 48, 102]
7.12[141, 209, 75, 50, 37, 34, 52, 103]
7.15[141, 209, 75, 50, 37, 34, 52, 103]
7.15[141, 209, 75, 50, 37, 34, 52, 103]
7.15[141, 209, 75, 50, 37, 34, 52, 103]
7.15[141, 209, 75, 50, 37, 34, 52, 103]
7.15[141, 209, 75, 50, 37, 34, 52, 103]
7.15[141, 209, 75, 50, 37, 34, 52, 103]
7.15[141, 209, 75, 50, 37, 34, 52, 103]
7.15[121, 168, 73, 46, 35, 31, 68, 115]
7.16[121, 168, 73, 46, 35, 31, 68, 115]
7.16[121, 168, 73, 46, 35, 31, 68, 115]
7.16[121, 168, 73, 46, 35, 31, 68, 115]
7.16[121, 168, 73, 46, 35, 31, 68, 115]
7.16[121, 168, 73, 46, 35, 31, 68, 115]
7.16[121, 168, 73, 46, 35, 31, 68, 115]
7.16[121, 168, 73, 46, 35, 31, 68, 115]
7.16[120, 165, 69, 45, 38, 33, 67, 114]
7.18[120, 165, 69, 45, 38, 33, 67, 114]
7.18[120, 165, 69, 45, 38, 33, 67, 114]
7.18[120, 165, 69, 45, 38, 33, 67, 114]
7.18[120, 165, 69, 45, 38, 33, 67, 114]
7.18[120, 165, 69, 45, 38, 33, 67, 114]
7.18[120, 165, 69, 45, 38, 33, 67, 114]
7.18[120, 165, 69, 45, 38, 33, 67, 114]
7.18[121, 167, 69, 48, 40, 38, 68, 111]
7.21[121, 167, 69, 48, 40, 38, 68, 111]
7.21[121, 167, 69, 48, 40, 38, 68, 111]
7.21[121, 167, 69, 48, 40, 38, 68, 111]
7.21[121, 167, 69, 48, 40, 38, 68, 111]
7.21[121, 167, 69, 48, 40, 38, 68, 111]
7.21[121, 167, 69, 48, 40, 38, 68, 111]
7.21[121, 167, 69, 48, 40, 38, 68, 111]
7.21[128, 187, 79, 53, 43, 39, 69, 117]
7.22[128, 187, 79, 53, 43, 39, 69, 117]
7.22[128, 187, 79, 53, 43, 39, 69, 117]
7.22[128, 187, 79, 53, 43, 39, 69, 117]
7.22[128, 187, 79, 53, 43, 39, 69, 117]
7.22[128, 187, 79, 53, 43, 39, 69, 117]
7.22[128, 187, 79, 53, 43, 39, 69, 117]
7.22[128, 187, 79, 53, 43, 39, 69, 117]
7.22[119, 190, 81, 58, 46, 36, 66, 134]
7.24[119, 190, 81, 58, 46, 36, 66, 134]
7.24[119, 190, 81, 58, 46, 36, 66, 134]
7.24[119, 190, 81, 58, 46, 36, 66, 134]
7.24[119, 190, 81, 58, 46, 36, 66, 134]
7.24[119, 190, 81, 58, 46, 36, 66, 134]
7.24[119, 190, 81, 58, 46, 36, 66, 134]
7.24[119, 190, 81, 58, 46, 36, 66, 134]
7.24[140, 232, 98, 69, 53, 39, 63, 125]
7.27[140, 232, 98, 69, 53, 39, 63, 125]
7.27[140, 232, 98, 69, 53, 39, 63, 125]
7.27[140, 232, 98, 69, 53, 39, 63, 125]
7.27[140, 232, 98, 69, 53, 39, 63, 125]
7.27[140, 232, 98, 69, 53, 39, 63, 125]
7.27[140, 232, 98, 69, 53, 39, 63, 125]
7.27[140, 232, 98, 69, 53, 39, 63, 125]
7.27[153, 272, 109, 73, 53, 39, 68, 144]
7.28[153, 272, 109, 73, 53, 39, 68, 144]
7.28[153, 272, 109, 73, 53, 39, 68, 144]
7.28[153, 272, 109, 73, 53, 39, 68, 144]
7.28[153, 272, 109, 73, 53, 39, 68, 144]
7.28[153, 272, 109, 73, 53, 39, 68, 144]
7.28[153, 272, 109, 73, 53, 39, 68, 144]
7.28[153, 272, 109, 73, 53, 39, 68, 144]
7.28[157, 277, 114, 73, 53, 35, 67, 156]
7.3[157, 277, 114, 73, 53, 35, 67, 156]
7.3[157, 277, 114, 73, 53, 35, 67, 156]
7.3[157, 277, 114, 73, 53, 35, 67, 156]
7.3[157, 277, 114, 73, 53, 35, 67, 156]
7.3[157, 277, 114, 73, 53, 35, 67, 156]
7.3[157, 277, 114, 73, 53, 35, 67, 156]
7.3[157, 277, 114, 73, 53, 35, 67, 156]
7.3[168, 288, 120, 77, 56, 35, 64, 155]
7.32[168, 288, 120, 77, 56, 35, 64, 155]
7.32[168, 288, 120, 77, 56, 35, 64, 155]
7.32[168, 288, 120, 77, 56, 35, 64, 155]
7.32[168, 288, 120, 77, 56, 35, 64, 155]
7.32[168, 288, 120, 77, 56, 35, 64, 155]
7.32[168, 288, 120, 77, 56, 35, 64, 155]
7.32[168, 288, 120, 77, 56, 35, 64, 155]
7.32[159, 282, 126, 75, 58, 39, 61, 138]
7.34[159, 282, 126, 75, 58, 39, 61, 138]
7.34[159, 282, 126, 75, 58, 39, 61, 138]
7.34[159, 282, 126, 75, 58, 39, 61, 138]
7.34[159, 282, 126, 75, 58, 39, 61, 138]
7.34[159, 282, 126, 75, 58, 39, 61, 138]
7.34[159, 282, 126, 75, 58, 39, 61, 138]
7.34[159, 282, 126, 75, 58, 39, 61, 138]
7.34[140, 251, 115, 64, 50, 35, 45, 157]
7.36[140, 251, 115, 64, 50, 35, 45, 157]
7.36[140, 251, 115, 64, 50, 35, 45, 157]
7.36[140, 251, 115, 64, 50, 35, 45, 157]
7.36[140, 251, 115, 64, 50, 35, 45, 157]
7.36[140, 251, 115, 64, 50, 35, 45, 157]
7.36[140, 251, 115, 64, 50, 35, 45, 157]
7.36[140, 251, 115, 64, 50, 35, 45, 157]
7.36[132, 219, 107, 63, 50, 39, 42, 160]
7.38[132, 219, 107, 63, 50, 39, 42, 160]
7.38[132, 219, 107, 63, 50, 39, 42, 160]
7.38[132, 219, 107, 63, 50, 39, 42, 160]
7.38[132, 219, 107, 63, 50, 39, 42, 160]
7.38[132, 219, 107, 63, 50, 39, 42, 160]
7.38[132, 219, 107, 63, 50, 39, 42, 160]
7.38[132, 219, 107, 63, 50, 39, 42, 160]
7.38[119, 215, 107, 59, 48, 37, 40, 144]
7.4[119, 215, 107, 59, 48, 37, 40, 144]
7.4[119, 215, 107, 59, 48, 37, 40, 144]
7.4[119, 215, 107, 59, 48, 37, 40, 144]
7.4[119, 215, 107, 59, 48, 37, 40, 144]
7.4[119, 215, 107, 59, 48, 37, 40, 144]
7.4[119, 215, 107, 59, 48, 37, 40, 144]
7.4[119, 215, 107, 59, 48, 37, 40, 144]
7.4[94, 172, 89, 49, 40, 37, 62, 140]
7.42[94, 172, 89, 49, 40, 37, 62, 140]
7.42[94, 172, 89, 49, 40, 37, 62, 140]
7.42[94, 172, 89, 49, 40, 37, 62, 140]
7.42[94, 172, 89, 49, 40, 37, 62, 140]
7.42[94, 172, 89, 49, 40, 37, 62, 140]
7.42[94, 172, 89, 49, 40, 37, 62, 140]
7.42[94, 172, 89, 49, 40, 37, 62, 140]
7.42[124, 205, 81, 51, 40, 38, 62, 140]
7.44[124, 205, 81, 51, 40, 38, 62, 140]
7.44[124, 205, 81, 51, 40, 38, 62, 140]
7.44[124, 205, 81, 51, 40, 38, 62, 140]
7.44[124, 205, 81, 51, 40, 38, 62, 140]
7.44[124, 205, 81, 51, 40, 38, 62, 140]
7.44[124, 205, 81, 51, 40, 38, 62, 140]
7.44[124, 205, 81, 51, 40, 38, 62, 140]
7.44[123, 201, 83, 53, 41, 38, 66, 134]
7.46[123, 201, 83, 53, 41, 38, 66, 134]
7.46[123, 201, 83, 53, 41, 38, 66, 134]
7.46[123, 201, 83, 53, 41, 38, 66, 134]
7.46[123, 201, 83, 53, 41, 38, 66, 134]
7.46[123, 201, 83, 53, 41, 38, 66, 134]
7.46[123, 201, 83, 53, 41, 38, 66, 134]
7.46[123, 201, 83, 53, 41, 38, 66, 134]
7.46[121, 192, 78, 49, 42, 36, 65, 124]
7.48[121, 192, 78, 49, 42, 36, 65, 124]
7.48[121, 192, 78, 49, 42, 36, 65, 124]
7.48[121, 192, 78, 49, 42, 36, 65, 124]
7.48[121, 192, 78, 49, 42, 36, 65, 124]
7.48[121, 192, 78, 49, 42, 36, 65, 124]
7.48[121, 192, 78, 49, 42, 36, 65, 124]
7.48[121, 192, 78, 49, 42, 36, 65, 124]
7.48[131, 201, 74, 51, 46, 39, 67, 122]
7.51[131, 201, 74, 51, 46, 39, 67, 122]
7.51[131, 201, 74, 51, 46, 39, 67, 122]
7.51[131, 201, 74, 51, 46, 39, 67, 122]
7.51[131, 201, 74, 51, 46, 39, 67, 122]
7.51[131, 201, 74, 51, 46, 39, 67, 122]
7.51[131, 201, 74, 51, 46, 39, 67, 122]
7.51[131, 201, 74, 51, 46, 39, 67, 122]
7.51[133, 204, 73, 49, 46, 39, 47, 121]
7.52[133, 204, 73, 49, 46, 39, 47, 121]
7.52[133, 204, 73, 49, 46, 39, 47, 121]
7.52[133, 204, 73, 49, 46, 39, 47, 121]
7.52[133, 204, 73, 49, 46, 39, 47, 121]
7.52[133, 204, 73, 49, 46, 39, 47, 121]
7.52[133, 204, 73, 49, 46, 39, 47, 121]
7.52[133, 204, 73, 49, 46, 39, 47, 121]
7.52[110, 169, 70, 44, 42, 36, 51, 119]
7.54[110, 169, 70, 44, 42, 36, 51, 119]
7.54[110, 169, 70, 44, 42, 36, 51, 119]
7.54[110, 169, 70, 44, 42, 36, 51, 119]
7.54[110, 169, 70, 44, 42, 36, 51, 119]
7.54[110, 169, 70, 44, 42, 36, 51, 119]
7.54[110, 169, 70, 44, 42, 36, 51, 119]
7.54[110, 169, 70, 44, 42, 36, 51, 119]
7.54[117, 182, 67, 44, 43, 38, 48, 103]
7.57[117, 182, 67, 44, 43, 38, 48, 103]
7.57[117, 182, 67, 44, 43, 38, 48, 103]
7.57[117, 182, 67, 44, 43, 38, 48, 103]
7.57[117, 182, 67, 44, 43, 38, 48, 103]
7.57[117, 182, 67, 44, 43, 38, 48, 103]
7.57[117, 182, 67, 44, 43, 38, 48, 103]
7.57[117, 182, 67, 44, 43, 38, 48, 103]
7.57[107, 168, 63, 42, 41, 35, 45, 93]
7.58[107, 168, 63, 42, 41, 35, 45, 93]
7.58[107, 168, 63, 42, 41, 35, 45, 93]
7.58[107, 168, 63, 42, 41, 35, 45, 93]
7.58[107, 168, 63, 42, 41, 35, 45, 93]
7.58[107, 168, 63, 42, 41, 35, 45, 93]
7.58[107, 168, 63, 42, 41, 35, 45, 93]
7.58[107, 168, 63, 42, 41, 35, 45, 93]
7.58[91, 146, 62, 40, 36, 33, 41, 94]
7.6[91, 146, 62, 40, 36, 33, 41, 94]
7.6[91, 146, 62, 40, 36, 33, 41, 94]
7.6[91, 146, 62, 40, 36, 33, 41, 94]
7.6[91, 146, 62, 40, 36, 33, 41, 94]
7.6[91, 146, 62, 40, 36, 33, 41, 94]
7.6[91, 146, 62, 40, 36, 33, 41, 94]
7.6[91, 146, 62, 40, 36, 33, 41, 94]
7.6[86, 145, 87, 39, 34, 31, 42, 94]
7.63[86, 145, 87, 39, 34, 31, 42, 94]
7.63[86, 145, 87, 39, 34, 31, 42, 94]
7.63[86, 145, 87, 39, 34, 31, 42, 94]
7.63[86, 145, 87, 39, 34, 31, 42, 94]
7.63[86, 145, 87, 39, 34, 31, 42, 94]
7.63[86, 145, 87, 39, 34, 31, 42, 94]
7.63[86, 145, 87, 39, 34, 31, 42, 94]
7.63[78, 146, 154, 39, 30, 32, 34, 91]
7.64[78, 146, 154, 39, 30, 32, 34, 91]
7.64[78, 146, 154, 39, 30, 32, 34, 91]
7.64[78, 146, 154, 39, 30, 32, 34, 91]
7.64[78, 146, 154, 39, 30, 32, 34, 91]
7.64[78, 146, 154, 39, 30, 32, 34, 91]
7.64[78, 146, 154, 39, 30, 32, 34, 91]
7.64[78, 146, 154, 39, 30, 32, 34, 91]
7.64[78, 137, 182, 39, 30, 32, 41, 86]
7.66[78, 137, 182, 39, 30, 32, 41, 86]
7.66[78, 137, 182, 39, 30, 32, 41, 86]
7.66[78, 137, 182, 39, 30, 32, 41, 86]
7.66[78, 137, 182, 39, 30, 32, 41, 86]
7.66[78, 137, 182, 39, 30, 32, 41, 86]
7.66[78, 137, 182, 39, 30, 32, 41, 86]
7.66[78, 137, 182, 39, 30, 32, 41, 86]
7.66[98, 175, 226, 49, 34, 35, 42, 66]
7.69[98, 175, 226, 49, 34, 35, 42, 66]
7.69[98, 175, 226, 49, 34, 35, 42, 66]
7.69[98, 175, 226, 49, 34, 35, 42, 66]
7.69[98, 175, 226, 49, 34, 35, 42, 66]
7.69[98, 175, 226, 49, 34, 35, 42, 66]
7.69[98, 175, 226, 49, 34, 35, 42, 66]
7.69[98, 175, 226, 49, 34, 35, 42, 66]
7.69[99, 170, 262, 53, 32, 34, 45, 66]
7.7[99, 170, 262, 53, 32, 34, 45, 66]
7.7[99, 170, 262, 53, 32, 34, 45, 66]
7.7[99, 170, 262, 53, 32, 34, 45, 66]
7.7[99, 170, 262, 53, 32, 34, 45, 66]
7.7[99, 170, 262, 53, 32, 34, 45, 66]
7.7[99, 170, 262, 53, 32, 34, 45, 66]
7.7[99, 170, 262, 53, 32, 34, 45, 66]
7.7[102, 171, 271, 56, 35, 37, 43, 64]
7.72[102, 171, 271, 56, 35, 37, 43, 64]
7.72[102, 171, 271, 56, 35, 37, 43, 64]
7.72[102, 171, 271, 56, 35, 37, 43, 64]
7.72[102, 171, 271, 56, 35, 37, 43, 64]
7.72[102, 171, 271, 56, 35, 37, 43, 64]
7.72[102, 171, 271, 56, 35, 37, 43, 64]
7.72[102, 171, 271, 56, 35, 37, 43, 64]
7.72[110, 164, 240, 68, 41, 37, 42, 69]
7.75[110, 164, 240, 68, 41, 37, 42, 69]
7.75[110, 164, 240, 68, 41, 37, 42, 69]
7.75[110, 164, 240, 68, 41, 37, 42, 69]
7.75[110, 164, 240, 68, 41, 37, 42, 69]
7.75[110, 164, 240, 68, 41, 37, 42, 69]
7.75[110, 164, 240, 68, 41, 37, 42, 69]
7.75[110, 164, 240, 68, 41, 37, 42, 69]
7.75[103, 154, 227, 68, 43, 37, 40, 67]
7.76[103, 154, 227, 68, 43, 37, 40, 67]
7.76[103, 154, 227, 68, 43, 37, 40, 67]
7.76[103, 154, 227, 68, 43, 37, 40, 67]
7.76[103, 154, 227, 68, 43, 37, 40, 67]
7.76[103, 154, 227, 68, 43, 37, 40, 67]
7.76[103, 154, 227, 68, 43, 37, 40, 67]
7.76[103, 154, 227, 68, 43, 37, 40, 67]
7.76[83, 111, 191, 63, 41, 34, 41, 60]
7.78[83, 111, 191, 63, 41, 34, 41, 60]
7.78[83, 111, 191, 63, 41, 34, 41, 60]
7.78[83, 111, 191, 63, 41, 34, 41, 60]
7.78[83, 111, 191, 63, 41, 34, 41, 60]
7.78[83, 111, 191, 63, 41, 34, 41, 60]
7.78[83, 111, 191, 63, 41, 34, 41, 60]
7.78[83, 111, 191, 63, 41, 34, 41, 60]
7.78[82, 115, 227, 70, 44, 37, 40, 59]
7.81[82, 115, 227, 70, 44, 37, 40, 59]
7.81[82, 115, 227, 70, 44, 37, 40, 59]
7.81[82, 115, 227, 70, 44, 37, 40, 59]
7.81[82, 115, 227, 70, 44, 37, 40, 59]
7.81[82, 115, 227, 70, 44, 37, 40, 59]
7.81[82, 115, 227, 70, 44, 37, 40, 59]
7.81[82, 115, 227, 70, 44, 37, 40, 59]
7.81[99, 164, 351, 112, 53, 34, 43, 60]
7.82[99, 164, 351, 112, 53, 34, 43, 60]
7.82[99, 164, 351, 112, 53, 34, 43, 60]
7.82[99, 164, 351, 112, 53, 34, 43, 60]
7.82[99, 164, 351, 112, 53, 34, 43, 60]
7.82[99, 164, 351, 112, 53, 34, 43, 60]
7.82[99, 164, 351, 112, 53, 34, 43, 60]
7.82[99, 164, 351, 112, 53, 34, 43, 60]
7.82[103, 165, 363, 110, 50, 32, 43, 58]
7.84[103, 165, 363, 110, 50, 32, 43, 58]
7.84[103, 165, 363, 110, 50, 32, 43, 58]
7.84[103, 165, 363, 110, 50, 32, 43, 58]
7.84[103, 165, 363, 110, 50, 32, 43, 58]
7.84[103, 165, 363, 110, 50, 32, 43, 58]
7.84[103, 165, 363, 110, 50, 32, 43, 58]
7.84[103, 165, 363, 110, 50, 32, 43, 58]
7.84[110, 175, 371, 111, 50, 32, 33, 58]
7.87[110, 175, 371, 111, 50, 32, 33, 58]
7.87[110, 175, 371, 111, 50, 32, 33, 58]
7.87[110, 175, 371, 111, 50, 32, 33, 58]
7.87[110, 175, 371, 111, 50, 32, 33, 58]
7.87[110, 175, 371, 111, 50, 32, 33, 58]
7.87[110, 175, 371, 111, 50, 32, 33, 58]
7.87[110, 175, 371, 111, 50, 32, 33, 58]
7.87[111, 176, 370, 109, 49, 32, 30, 58]
7.88[111, 176, 370, 109, 49, 32, 30, 58]
7.88[111, 176, 370, 109, 49, 32, 30, 58]
7.88[111, 176, 370, 109, 49, 32, 30, 58]
7.88[111, 176, 370, 109, 49, 32, 30, 58]
7.88[111, 176, 370, 109, 49, 32, 30, 58]
7.88[111, 176, 370, 109, 49, 32, 30, 58]
7.88[111, 176, 370, 109, 49, 32, 30, 58]
7.88[111, 179, 331, 106, 49, 31, 25, 54]
7.9[111, 179, 331, 106, 49, 31, 25, 54]
7.9[111, 179, 331, 106, 49, 31, 25, 54]
7.9[111, 179, 331, 106, 49, 31, 25, 54]
7.9[111, 179, 331, 106, 49, 31, 25, 54]
7.9[111, 179, 331, 106, 49, 31, 25, 54]
7.9[111, 179, 331, 106, 49, 31, 25, 54]
7.9[111, 179, 331, 106, 49, 31, 25, 54]
7.9[97, 133, 202, 60, 38, 29, 35, 57]
7.93[97, 133, 202, 60, 38, 29, 35, 57]
7.93[97, 133, 202, 60, 38, 29, 35, 57]
7.93[97, 133, 202, 60, 38, 29, 35, 57]
7.93[97, 133, 202, 60, 38, 29, 35, 57]
7.93[97, 133, 202, 60, 38, 29, 35, 57]
7.93[97, 133, 202, 60, 38, 29, 35, 57]
7.93[97, 133, 202, 60, 38, 29, 35, 57]
7.93[95, 143, 185, 79, 54, 32, 39, 53]
7.94[95, 143, 185, 79, 54, 32, 39, 53]
7.94[95, 143, 185, 79, 54, 32, 39, 53]
7.94[95, 143, 185, 79, 54, 32, 39, 53]
7.94[95, 143, 185, 79, 54, 32, 39, 53]
7.94[95, 143, 185, 79, 54, 32, 39, 53]
7.94[95, 143, 185, 79, 54, 32, 39, 53]
7.94[95, 143, 185, 79, 54, 32, 39, 53]
7.94[84, 129, 169, 82, 55, 35, 40, 53]
7.96[84, 129, 169, 82, 55, 35, 40, 53]
7.96[84, 129, 169, 82, 55, 35, 40, 53]
7.96[84, 129, 169, 82, 55, 35, 40, 53]
7.96[84, 129, 169, 82, 55, 35, 40, 53]
7.96[84, 129, 169, 82, 55, 35, 40, 53]
7.96[84, 129, 169, 82, 55, 35, 40, 53]
7.96[84, 129, 169, 82, 55, 35, 40, 53]
7.96[85, 130, 163, 83, 55, 35, 40, 51]
7.99[85, 130, 163, 83, 55, 35, 40, 51]
7.99[85, 130, 163, 83, 55, 35, 40, 51]
7.99[85, 130, 163, 83, 55, 35, 40, 51]
7.99[85, 130, 163, 83, 55, 35, 40, 51]
7.99[85, 130, 163, 83, 55, 35, 40, 51]
7.99[85, 130, 163, 83, 55, 35, 40, 51]
7.99[85, 130, 163, 83, 55, 35, 40, 51]
7.99[111, 163, 207, 87, 55, 37, 43, 58]
8.0[111, 163, 207, 87, 55, 37, 43, 58]
8.0[111, 163, 207, 87, 55, 37, 43, 58]
8.0[111, 163, 207, 87, 55, 37, 43, 58]
8.0[111, 163, 207, 87, 55, 37, 43, 58]
8.0[111, 163, 207, 87, 55, 37, 43, 58]
8.0[111, 163, 207, 87, 55, 37, 43, 58]
8.0[111, 163, 207, 87, 55, 37, 43, 58]
8.0[128, 183, 247, 95, 56, 39, 34, 51]
8.02[128, 183, 247, 95, 56, 39, 34, 51]
