[26, 41, 145, 157, 45, 29, 26, 21]
[26, 41, 145, 157, 45, 29, 26, 21]
[26, 41, 145, 157, 45, 29, 26, 21]
[26, 41, 145, 157, 45, 29, 26, 21]
[26, 41, 145, 157, 45, 29, 26, 21]
[26, 41, 145, 157, 45, 29, 26, 21]
[26, 41, 145, 157, 45, 29, 26, 21]
[26, 41, 145, 157, 45, 29, 26, 21]
[25, 38, 146, 149, 47, 31, 26, 19]
[25, 38, 146, 149, 47, 31, 26, 19]
[25, 38, 146, 149, 47, 31, 26, 19]
[25, 38, 146, 149, 47, 31, 26, 19]
[25, 38, 146, 149, 47, 31, 26, 19]
[25, 38, 146, 149, 47, 31, 26, 19]
[25, 38, 146, 149, 47, 31, 26, 19]
[25, 38, 146, 149, 47, 31, 26, 19]
[26, 44, 162, 197, 51, 31, 26, 16]
[26, 44, 162, 197, 51, 31, 26, 16]
[26, 44, 162, 197, 51, 31, 26, 16]
[26, 44, 162, 197, 51, 31, 26, 16]
[26, 44, 162, 197, 51, 31, 26, 16]
[26, 44, 162, 197, 51, 31, 26, 16]
[26, 44, 162, 197, 51, 31, 26, 16]
[26, 44, 162, 197, 51, 31, 26, 16]
[24, 46, 139, 166, 44, 30, 25, 18]
[24, 46, 139, 166, 44, 30, 25, 18]
[24, 46, 139, 166, 44, 30, 25, 18]
[24, 46, 139, 166, 44, 30, 25, 18]
[24, 46, 139, 166, 44, 30, 25, 18]
[24, 46, 139, 166, 44, 30, 25, 18]
[24, 46, 139, 166, 44, 30, 25, 18]
[24, 46, 139, 166, 44, 30, 25, 18]
[24, 47, 125, 166, 47, 28, 22, 22]
[24, 47, 125, 166, 47, 28, 22, 22]
[24, 47, 125, 166, 47, 28, 22, 22]
[24, 47, 125, 166, 47, 28, 22, 22]
[24, 47, 125, 166, 47, 28, 22, 22]
[24, 47, 125, 166, 47, 28, 22, 22]
[24, 47, 125, 166, 47, 28, 22, 22]
[24, 47, 125, 166, 47, 28, 22, 22]
[24, 46, 150, 161, 46, 27, 23, 22]
[24, 46, 150, 161, 46, 27, 23, 22]
[24, 46, 150, 161, 46, 27, 23, 22]
[24, 46, 150, 161, 46, 27, 23, 22]
[24, 46, 150, 161, 46, 27, 23, 22]
[24, 46, 150, 161, 46, 27, 23, 22]
[24, 46, 150, 161, 46, 27, 23, 22]
[24, 46, 150, 161, 46, 27, 23, 22]
[23, 47, 171, 168, 48, 31, 33, 24]
[23, 47, 171, 168, 48, 31, 33, 24]
[23, 47, 171, 168, 48, 31, 33, 24]
[23, 47, 171, 168, 48, 31, 33, 24]
[23, 47, 171, 168, 48, 31, 33, 24]
[23, 47, 171, 168, 48, 31, 33, 24]
[23, 47, 171, 168, 48, 31, 33, 24]
[23, 47, 171, 168, 48, 31, 33, 24]
[26, 48, 158, 109, 48, 32, 33, 26]
[26, 48, 158, 109, 48, 32, 33, 26]
[26, 48, 158, 109, 48, 32, 33, 26]
[26, 48, 158, 109, 48, 32, 33, 26]
[26, 48, 158, 109, 48, 32, 33, 26]
[26, 48, 158, 109, 48, 32, 33, 26]
[26, 48, 158, 109, 48, 32, 33, 26]
[26, 48, 158, 109, 48, 32, 33, 26]
[28, 54, 159, 114, 52, 32, 34, 28]
[28, 54, 159, 114, 52, 32, 34, 28]
[28, 54, 159, 114, 52, 32, 34, 28]
[28, 54, 159, 114, 52, 32, 34, 28]
[28, 54, 159, 114, 52, 32, 34, 28]
[28, 54, 159, 114, 52, 32, 34, 28]
[28, 54, 159, 114, 52, 32, 34, 28]
[28, 54, 159, 114, 52, 32, 34, 28]
[31, 61, 170, 179, 55, 32, 34, 25]
[31, 61, 170, 179, 55, 32, 34, 25]
[31, 61, 170, 179, 55, 32, 34, 25]
[31, 61, 170, 179, 55, 32, 34, 25]
[31, 61, 170, 179, 55, 32, 34, 25]
[31, 61, 170, 179, 55, 32, 34, 25]
[31, 61, 170, 179, 55, 32, 34, 25]
[31, 61, 170, 179, 55, 32, 34, 25]
[32, 62, 175, 197, 57, 35, 33, 26]
[32, 62, 175, 197, 57, 35, 33, 26]
[32, 62, 175, 197, 57, 35, 33, 26]
[32, 62, 175, 197, 57, 35, 33, 26]
[32, 62, 175, 197, 57, 35, 33, 26]
[32, 62, 175, 197, 57, 35, 33, 26]
[32, 62, 175, 197, 57, 35, 33, 26]
[32, 62, 175, 197, 57, 35, 33, 26]
[36, 64, 155, 196, 54, 33, 25, 26]
[36, 64, 155, 196, 54, 33, 25, 26]
[36, 64, 155, 196, 54, 33, 25, 26]
[36, 64, 155, 196, 54, 33, 25, 26]
[36, 64, 155, 196, 54, 33, 25, 26]
[36, 64, 155, 196, 54, 33, 25, 26]
[36, 64, 155, 196, 54, 33, 25, 26]
[36, 64, 155, 196, 54, 33, 25, 26]
[34, 61, 155, 194, 51, 33, 25, 25]
[34, 61, 155, 194, 51, 33, 25, 25]
[34, 61, 155, 194, 51, 33, 25, 25]
[34, 61, 155, 194, 51, 33, 25, 25]
[34, 61, 155, 194, 51, 33, 25, 25]
[34, 61, 155, 194, 51, 33, 25, 25]
[34, 61, 155, 194, 51, 33, 25, 25]
[34, 61, 155, 194, 51, 33, 25, 25]
[35, 56, 157, 221, 49, 32, 25, 24]
[35, 56, 157, 221, 49, 32, 25, 24]
[35, 56, 157, 221, 49, 32, 25, 24]
[35, 56, 157, 221, 49, 32, 25, 24]
[35, 56, 157, 221, 49, 32, 25, 24]
[35, 56, 157, 221, 49, 32, 25, 24]
[35, 56, 157, 221, 49, 32, 25, 24]
[35, 56, 157, 221, 49, 32, 25, 24]
[33, 46, 147, 195, 47, 32, 24, 26]
[33, 46, 147, 195, 47, 32, 24, 26]
[33, 46, 147, 195, 47, 32, 24, 26]
[33, 46, 147, 195, 47, 32, 24, 26]
[33, 46, 147, 195, 47, 32, 24, 26]
[33, 46, 147, 195, 47, 32, 24, 26]
[33, 46, 147, 195, 47, 32, 24, 26]
[33, 46, 147, 195, 47, 32, 24, 26]
[32, 51, 117, 189, 45, 29, 25, 26]
[32, 51, 117, 189, 45, 29, 25, 26]
[32, 51, 117, 189, 45, 29, 25, 26]
[32, 51, 117, 189, 45, 29, 25, 26]
[32, 51, 117, 189, 45, 29, 25, 26]
[32, 51, 117, 189, 45, 29, 25, 26]
[32, 51, 117, 189, 45, 29, 25, 26]
[32, 51, 117, 189, 45, 29, 25, 26]
[31, 53, 118, 202, 44, 25, 28, 26]
[31, 53, 118, 202, 44, 25, 28, 26]
[31, 53, 118, 202, 44, 25, 28, 26]
[31, 53, 118, 202, 44, 25, 28, 26]
[31, 53, 118, 202, 44, 25, 28, 26]
[31, 53, 118, 202, 44, 25, 28, 26]
[31, 53, 118, 202, 44, 25, 28, 26]
[31, 53, 118, 202, 44, 25, 28, 26]
[31, 55, 124, 228, 45, 24, 28, 27]
[31, 55, 124, 228, 45, 24, 28, 27]
[31, 55, 124, 228, 45, 24, 28, 27]
[31, 55, 124, 228, 45, 24, 28, 27]
[31, 55, 124, 228, 45, 24, 28, 27]
[31, 55, 124, 228, 45, 24, 28, 27]
[31, 55, 124, 228, 45, 24, 28, 27]
[31, 55, 124, 228, 45, 24, 28, 27]
[31, 57, 125, 201, 45, 23, 29, 27]
[31, 57, 125, 201, 45, 23, 29, 27]
[31, 57, 125, 201, 45, 23, 29, 27]
[31, 57, 125, 201, 45, 23, 29, 27]
[31, 57, 125, 201, 45, 23, 29, 27]
[31, 57, 125, 201, 45, 23, 29, 27]
[31, 57, 125, 201, 45, 23, 29, 27]
[31, 57, 125, 201, 45, 23, 29, 27]
[32, 58, 118, 192, 48, 26, 28, 24]
[32, 58, 118, 192, 48, 26, 28, 24]
[32, 58, 118, 192, 48, 26, 28, 24]
[32, 58, 118, 192, 48, 26, 28, 24]
[32, 58, 118, 192, 48, 26, 28, 24]
[32, 58, 118, 192, 48, 26, 28, 24]
[32, 58, 118, 192, 48, 26, 28, 24]
[32, 58, 118, 192, 48, 26, 28, 24]
[32, 52, 119, 208, 46, 25, 27, 23]
[32, 52, 119, 208, 46, 25, 27, 23]
[32, 52, 119, 208, 46, 25, 27, 23]
[32, 52, 119, 208, 46, 25, 27, 23]
[32, 52, 119, 208, 46, 25, 27, 23]
[32, 52, 119, 208, 46, 25, 27, 23]
[32, 52, 119, 208, 46, 25, 27, 23]
[32, 52, 119, 208, 46, 25, 27, 23]
[28, 45, 111, 199, 46, 26, 24, 22]
[28, 45, 111, 199, 46, 26, 24, 22]
[28, 45, 111, 199, 46, 26, 24, 22]
[28, 45, 111, 199, 46, 26, 24, 22]
[28, 45, 111, 199, 46, 26, 24, 22]
[28, 45, 111, 199, 46, 26, 24, 22]
[28, 45, 111, 199, 46, 26, 24, 22]
[28, 45, 111, 199, 46, 26, 24, 22]
[29, 40, 105, 182, 48, 25, 23, 23]
[29, 40, 105, 182, 48, 25, 23, 23]
[29, 40, 105, 182, 48, 25, 23, 23]
[29, 40, 105, 182, 48, 25, 23, 23]
[29, 40, 105, 182, 48, 25, 23, 23]
[29, 40, 105, 182, 48, 25, 23, 23]
[29, 40, 105, 182, 48, 25, 23, 23]
[29, 40, 105, 182, 48, 25, 23, 23]
[28, 40, 116, 189, 49, 29, 25, 22]
[28, 40, 116, 189, 49, 29, 25, 22]
[28, 40, 116, 189, 49, 29, 25, 22]
[28, 40, 116, 189, 49, 29, 25, 22]
[28, 40, 116, 189, 49, 29, 25, 22]
[28, 40, 116, 189, 49, 29, 25, 22]
[28, 40, 116, 189, 49, 29, 25, 22]
[28, 40, 116, 189, 49, 29, 25, 22]
[29, 46, 117, 222, 49, 29, 28, 25]
[29, 46, 117, 222, 49, 29, 28, 25]
[29, 46, 117, 222, 49, 29, 28, 25]
[29, 46, 117, 222, 49, 29, 28, 25]
[29, 46, 117, 222, 49, 29, 28, 25]
[29, 46, 117, 222, 49, 29, 28, 25]
[29, 46, 117, 222, 49, 29, 28, 25]
[29, 46, 117, 222, 49, 29, 28, 25]
[30, 47, 119, 218, 51, 29, 27, 26]
[30, 47, 119, 218, 51, 29, 27, 26]
[30, 47, 119, 218, 51, 29, 27, 26]
[30, 47, 119, 218, 51, 29, 27, 26]
[30, 47, 119, 218, 51, 29, 27, 26]
[30, 47, 119, 218, 51, 29, 27, 26]
[30, 47, 119, 218, 51, 29, 27, 26]
[30, 47, 119, 218, 51, 29, 27, 26]
[34, 49, 129, 227, 51, 31, 28, 30]
[34, 49, 129, 227, 51, 31, 28, 30]
[34, 49, 129, 227, 51, 31, 28, 30]
[34, 49, 129, 227, 51, 31, 28, 30]
[34, 49, 129, 227, 51, 31, 28, 30]
[34, 49, 129, 227, 51, 31, 28, 30]
[34, 49, 129, 227, 51, 31, 28, 30]
[34, 49, 129, 227, 51, 31, 28, 30]
[37, 56, 148, 225, 51, 34, 33, 28]
[37, 56, 148, 225, 51, 34, 33, 28]
[37, 56, 148, 225, 51, 34, 33, 28]
[37, 56, 148, 225, 51, 34, 33, 28]
[37, 56, 148, 225, 51, 34, 33, 28]
[37, 56, 148, 225, 51, 34, 33, 28]
[37, 56, 148, 225, 51, 34, 33, 28]
[37, 56, 148, 225, 51, 34, 33, 28]
[36, 52, 135, 255, 51, 32, 31, 28]
[36, 52, 135, 255, 51, 32, 31, 28]
[36, 52, 135, 255, 51, 32, 31, 28]
[36, 52, 135, 255, 51, 32, 31, 28]
[36, 52, 135, 255, 51, 32, 31, 28]
[36, 52, 135, 255, 51, 32, 31, 28]
[36, 52, 135, 255, 51, 32, 31, 28]
[36, 52, 135, 255, 51, 32, 31, 28]
[34, 45, 156, 220, 47, 34, 31, 28]
[34, 45, 156, 220, 47, 34, 31, 28]
[34, 45, 156, 220, 47, 34, 31, 28]
[34, 45, 156, 220, 47, 34, 31, 28]
[34, 45, 156, 220, 47, 34, 31, 28]
[34, 45, 156, 220, 47, 34, 31, 28]
[34, 45, 156, 220, 47, 34, 31, 28]
[34, 45, 156, 220, 47, 34, 31, 28]
[33, 47, 168, 228, 47, 33, 33, 27]
[33, 47, 168, 228, 47, 33, 33, 27]
[33, 47, 168, 228, 47, 33, 33, 27]
[33, 47, 168, 228, 47, 33, 33, 27]
[33, 47, 168, 228, 47, 33, 33, 27]
[33, 47, 168, 228, 47, 33, 33, 27]
[33, 47, 168, 228, 47, 33, 33, 27]
[33, 47, 168, 228, 47, 33, 33, 27]
[35, 57, 162, 215, 49, 31, 30, 24]
[35, 57, 162, 215, 49, 31, 30, 24]
[35, 57, 162, 215, 49, 31, 30, 24]
[35, 57, 162, 215, 49, 31, 30, 24]
[35, 57, 162, 215, 49, 31, 30, 24]
[35, 57, 162, 215, 49, 31, 30, 24]
[35, 57, 162, 215, 49, 31, 30, 24]
[35, 57, 162, 215, 49, 31, 30, 24]
[31, 54, 161, 207, 45, 28, 27, 24]
[31, 54, 161, 207, 45, 28, 27, 24]
[31, 54, 161, 207, 45, 28, 27, 24]
[31, 54, 161, 207, 45, 28, 27, 24]
[31, 54, 161, 207, 45, 28, 27, 24]
[31, 54, 161, 207, 45, 28, 27, 24]
[31, 54, 161, 207, 45, 28, 27, 24]
[31, 54, 161, 207, 45, 28, 27, 24]
[33, 61, 180, 168, 44, 28, 28, 26]
[33, 61, 180, 168, 44, 28, 28, 26]
[33, 61, 180, 168, 44, 28, 28, 26]
[33, 61, 180, 168, 44, 28, 28, 26]
[33, 61, 180, 168, 44, 28, 28, 26]
[33, 61, 180, 168, 44, 28, 28, 26]
[33, 61, 180, 168, 44, 28, 28, 26]
[33, 61, 180, 168, 44, 28, 28, 26]
[33, 62, 163, 240, 43, 21, 24, 24]
[33, 62, 163, 240, 43, 21, 24, 24]
[33, 62, 163, 240, 43, 21, 24, 24]
[33, 62, 163, 240, 43, 21, 24, 24]
[33, 62, 163, 240, 43, 21, 24, 24]
[33, 62, 163, 240, 43, 21, 24, 24]
[33, 62, 163, 240, 43, 21, 24, 24]
[33, 62, 163, 240, 43, 21, 24, 24]
[33, 62, 153, 227, 45, 23, 22, 25]
[33, 62, 153, 227, 45, 23, 22, 25]
[33, 62, 153, 227, 45, 23, 22, 25]
[33, 62, 153, 227, 45, 23, 22, 25]
[33, 62, 153, 227, 45, 23, 22, 25]
[33, 62, 153, 227, 45, 23, 22, 25]
[33, 62, 153, 227, 45, 23, 22, 25]
[33, 62, 153, 227, 45, 23, 22, 25]
[29, 60, 171, 242, 44, 25, 23, 21]
[29, 60, 171, 242, 44, 25, 23, 21]
[29, 60, 171, 242, 44, 25, 23, 21]
[29, 60, 171, 242, 44, 25, 23, 21]
[29, 60, 171, 242, 44, 25, 23, 21]
[29, 60, 171, 242, 44, 25, 23, 21]
[29, 60, 171, 242, 44, 25, 23, 21]
[29, 60, 171, 242, 44, 25, 23, 21]
[27, 57, 173, 248, 45, 27, 23, 24]
[27, 57, 173, 248, 45, 27, 23, 24]
[27, 57, 173, 248, 45, 27, 23, 24]
[27, 57, 173, 248, 45, 27, 23, 24]
[27, 57, 173, 248, 45, 27, 23, 24]
[27, 57, 173, 248, 45, 27, 23, 24]
[27, 57, 173, 248, 45, 27, 23, 24]
[27, 57, 173, 248, 45, 27, 23, 24]
[27, 56, 155, 256, 49, 28, 21, 22]
[27, 56, 155, 256, 49, 28, 21, 22]
[27, 56, 155, 256, 49, 28, 21, 22]
[27, 56, 155, 256, 49, 28, 21, 22]
[27, 56, 155, 256, 49, 28, 21, 22]
[27, 56, 155, 256, 49, 28, 21, 22]
[27, 56, 155, 256, 49, 28, 21, 22]
[27, 56, 155, 256, 49, 28, 21, 22]
[27, 61, 163, 193, 48, 30, 23, 22]
[27, 61, 163, 193, 48, 30, 23, 22]
[27, 61, 163, 193, 48, 30, 23, 22]
[27, 61, 163, 193, 48, 30, 23, 22]
[27, 61, 163, 193, 48, 30, 23, 22]
[27, 61, 163, 193, 48, 30, 23, 22]
[27, 61, 163, 193, 48, 30, 23, 22]
[27, 61, 163, 193, 48, 30, 23, 22]
[27, 61, 175, 186, 48, 29, 22, 20]
[27, 61, 175, 186, 48, 29, 22, 20]
[27, 61, 175, 186, 48, 29, 22, 20]
[27, 61, 175, 186, 48, 29, 22, 20]
[27, 61, 175, 186, 48, 29, 22, 20]
[27, 61, 175, 186, 48, 29, 22, 20]
[27, 61, 175, 186, 48, 29, 22, 20]
[27, 61, 175, 186, 48, 29, 22, 20]
[27, 54, 157, 171, 50, 27, 25, 23]
[27, 54, 157, 171, 50, 27, 25, 23]
[27, 54, 157, 171, 50, 27, 25, 23]
[27, 54, 157, 171, 50, 27, 25, 23]
[27, 54, 157, 171, 50, 27, 25, 23]
[27, 54, 157, 171, 50, 27, 25, 23]
[27, 54, 157, 171, 50, 27, 25, 23]
[27, 54, 157, 171, 50, 27, 25, 23]
[29, 57, 138, 170, 54, 25, 26, 22]
[29, 57, 138, 170, 54, 25, 26, 22]
[29, 57, 138, 170, 54, 25, 26, 22]
[29, 57, 138, 170, 54, 25, 26, 22]
[29, 57, 138, 170, 54, 25, 26, 22]
[29, 57, 138, 170, 54, 25, 26, 22]
[29, 57, 138, 170, 54, 25, 26, 22]
[29, 57, 138, 170, 54, 25, 26, 22]
[26, 52, 141, 194, 49, 27, 25, 21]
[26, 52, 141, 194, 49, 27, 25, 21]
[26, 52, 141, 194, 49, 27, 25, 21]
[26, 52, 141, 194, 49, 27, 25, 21]
[26, 52, 141, 194, 49, 27, 25, 21]
[26, 52, 141, 194, 49, 27, 25, 21]
[26, 52, 141, 194, 49, 27, 25, 21]
[26, 52, 141, 194, 49, 27, 25, 21]
[26, 44, 128, 192, 49, 28, 26, 23]
[26, 44, 128, 192, 49, 28, 26, 23]
[26, 44, 128, 192, 49, 28, 26, 23]
[26, 44, 128, 192, 49, 28, 26, 23]
[26, 44, 128, 192, 49, 28, 26, 23]
[26, 44, 128, 192, 49, 28, 26, 23]
[26, 44, 128, 192, 49, 28, 26, 23]
[26, 44, 128, 192, 49, 28, 26, 23]
[27, 48, 111, 196, 47, 28, 27, 22]
[27, 48, 111, 196, 47, 28, 27, 22]
[27, 48, 111, 196, 47, 28, 27, 22]
[27, 48, 111, 196, 47, 28, 27, 22]
[27, 48, 111, 196, 47, 28, 27, 22]
[27, 48, 111, 196, 47, 28, 27, 22]
[27, 48, 111, 196, 47, 28, 27, 22]
[27, 48, 111, 196, 47, 28, 27, 22]
[28, 50, 121, 213, 47, 28, 25, 20]
[28, 50, 121, 213, 47, 28, 25, 20]
[28, 50, 121, 213, 47, 28, 25, 20]
[28, 50, 121, 213, 47, 28, 25, 20]
[28, 50, 121, 213, 47, 28, 25, 20]
[28, 50, 121, 213, 47, 28, 25, 20]
[28, 50, 121, 213, 47, 28, 25, 20]
[28, 50, 121, 213, 47, 28, 25, 20]
[28, 52, 125, 225, 44, 30, 24, 19]
[28, 52, 125, 225, 44, 30, 24, 19]
[28, 52, 125, 225, 44, 30, 24, 19]
[28, 52, 125, 225, 44, 30, 24, 19]
[28, 52, 125, 225, 44, 30, 24, 19]
[28, 52, 125, 225, 44, 30, 24, 19]
[28, 52, 125, 225, 44, 30, 24, 19]
[28, 52, 125, 225, 44, 30, 24, 19]
[32, 52, 135, 213, 47, 26, 23, 20]
[32, 52, 135, 213, 47, 26, 23, 20]
[32, 52, 135, 213, 47, 26, 23, 20]
[32, 52, 135, 213, 47, 26, 23, 20]
[32, 52, 135, 213, 47, 26, 23, 20]
[32, 52, 135, 213, 47, 26, 23, 20]
[32, 52, 135, 213, 47, 26, 23, 20]
[32, 52, 135, 213, 47, 26, 23, 20]
[30, 53, 143, 223, 47, 23, 24, 18]
[30, 53, 143, 223, 47, 23, 24, 18]
[30, 53, 143, 223, 47, 23, 24, 18]
[30, 53, 143, 223, 47, 23, 24, 18]
[30, 53, 143, 223, 47, 23, 24, 18]
[30, 53, 143, 223, 47, 23, 24, 18]
[30, 53, 143, 223, 47, 23, 24, 18]
[30, 53, 143, 223, 47, 23, 24, 18]
[33, 47, 151, 215, 45, 25, 24, 20]
[33, 47, 151, 215, 45, 25, 24, 20]
[33, 47, 151, 215, 45, 25, 24, 20]
[33, 47, 151, 215, 45, 25, 24, 20]
[33, 47, 151, 215, 45, 25, 24, 20]
[33, 47, 151, 215, 45, 25, 24, 20]
[33, 47, 151, 215, 45, 25, 24, 20]
[33, 47, 151, 215, 45, 25, 24, 20]
[33, 49, 142, 193, 49, 24, 24, 21]
[33, 49, 142, 193, 49, 24, 24, 21]
[33, 49, 142, 193, 49, 24, 24, 21]
[33, 49, 142, 193, 49, 24, 24, 21]
[33, 49, 142, 193, 49, 24, 24, 21]
[33, 49, 142, 193, 49, 24, 24, 21]
[33, 49, 142, 193, 49, 24, 24, 21]
[33, 49, 142, 193, 49, 24, 24, 21]
[33, 53, 144, 204, 55, 22, 22, 21]
[33, 53, 144, 204, 55, 22, 22, 21]
[33, 53, 144, 204, 55, 22, 22, 21]
[33, 53, 144, 204, 55, 22, 22, 21]
[33, 53, 144, 204, 55, 22, 22, 21]
[33, 53, 144, 204, 55, 22, 22, 21]
[33, 53, 144, 204, 55, 22, 22, 21]
[33, 53, 144, 204, 55, 22, 22, 21]
[32, 53, 145, 183, 53, 25, 24, 19]
[32, 53, 145, 183, 53, 25, 24, 19]
[32, 53, 145, 183, 53, 25, 24, 19]
[32, 53, 145, 183, 53, 25, 24, 19]
[32, 53, 145, 183, 53, 25, 24, 19]
[32, 53, 145, 183, 53, 25, 24, 19]
[32, 53, 145, 183, 53, 25, 24, 19]
[32, 53, 145, 183, 53, 25, 24, 19]
[32, 53, 133, 164, 51, 28, 19, 20]
[32, 53, 133, 164, 51, 28, 19, 20]
[32, 53, 133, 164, 51, 28, 19, 20]
[32, 53, 133, 164, 51, 28, 19, 20]
[32, 53, 133, 164, 51, 28, 19, 20]
[32, 53, 133, 164, 51, 28, 19, 20]
[32, 53, 133, 164, 51, 28, 19, 20]
[32, 53, 133, 164, 51, 28, 19, 20]
[32, 60, 118, 168, 53, 27, 22, 21]
[32, 60, 118, 168, 53, 27, 22, 21]
[32, 60, 118, 168, 53, 27, 22, 21]
[32, 60, 118, 168, 53, 27, 22, 21]
[32, 60, 118, 168, 53, 27, 22, 21]
[32, 60, 118, 168, 53, 27, 22, 21]
[32, 60, 118, 168, 53, 27, 22, 21]
[32, 60, 118, 168, 53, 27, 22, 21]
[31, 57, 115, 172, 46, 28, 23, 25]
[31, 57, 115, 172, 46, 28, 23, 25]
[31, 57, 115, 172, 46, 28, 23, 25]
[31, 57, 115, 172, 46, 28, 23, 25]
[31, 57, 115, 172, 46, 28, 23, 25]
[31, 57, 115, 172, 46, 28, 23, 25]
[31, 57, 115, 172, 46, 28, 23, 25]
[31, 57, 115, 172, 46, 28, 23, 25]
[30, 54, 103, 174, 42, 31, 25, 25]
[30, 54, 103, 174, 42, 31, 25, 25]
[30, 54, 103, 174, 42, 31, 25, 25]
[30, 54, 103, 174, 42, 31, 25, 25]
[30, 54, 103, 174, 42, 31, 25, 25]
[30, 54, 103, 174, 42, 31, 25, 25]
[30, 54, 103, 174, 42, 31, 25, 25]
[30, 54, 103, 174, 42, 31, 25, 25]
[29, 54, 101, 173, 41, 28, 25, 25]
[29, 54, 101, 173, 41, 28, 25, 25]
[29, 54, 101, 173, 41, 28, 25, 25]
[29, 54, 101, 173, 41, 28, 25, 25]
[29, 54, 101, 173, 41, 28, 25, 25]
[29, 54, 101, 173, 41, 28, 25, 25]
[29, 54, 101, 173, 41, 28, 25, 25]
[29, 54, 101, 173, 41, 28, 25, 25]
[31, 58, 104, 176, 45, 30, 29, 26]
[31, 58, 104, 176, 45, 30, 29, 26]
[31, 58, 104, 176, 45, 30, 29, 26]
[31, 58, 104, 176, 45, 30, 29, 26]
[31, 58, 104, 176, 45, 30, 29, 26]
[31, 58, 104, 176, 45, 30, 29, 26]
[31, 58, 104, 176, 45, 30, 29, 26]
[31, 58, 104, 176, 45, 30, 29, 26]
[28, 57, 113, 181, 44, 31, 26, 25]
[28, 57, 113, 181, 44, 31, 26, 25]
[28, 57, 113, 181, 44, 31, 26, 25]
[28, 57, 113, 181, 44, 31, 26, 25]
[28, 57, 113, 181, 44, 31, 26, 25]
[28, 57, 113, 181, 44, 31, 26, 25]
[28, 57, 113, 181, 44, 31, 26, 25]
[28, 57, 113, 181, 44, 31, 26, 25]
[28, 58, 122, 197, 47, 33, 25, 21]
[28, 58, 122, 197, 47, 33, 25, 21]
[28, 58, 122, 197, 47, 33, 25, 21]
[28, 58, 122, 197, 47, 33, 25, 21]
[28, 58, 122, 197, 47, 33, 25, 21]
[28, 58, 122, 197, 47, 33, 25, 21]
[28, 58, 122, 197, 47, 33, 25, 21]
[28, 58, 122, 197, 47, 33, 25, 21]
[26, 55, 126, 169, 44, 29, 27, 23]
[26, 55, 126, 169, 44, 29, 27, 23]
[26, 55, 126, 169, 44, 29, 27, 23]
[26, 55, 126, 169, 44, 29, 27, 23]
[26, 55, 126, 169, 44, 29, 27, 23]
[26, 55, 126, 169, 44, 29, 27, 23]
[26, 55, 126, 169, 44, 29, 27, 23]
[26, 55, 126, 169, 44, 29, 27, 23]
[24, 53, 107, 163, 43, 28, 27, 24]
[24, 53, 107, 163, 43, 28, 27, 24]
[24, 53, 107, 163, 43, 28, 27, 24]
[24, 53, 107, 163, 43, 28, 27, 24]
[24, 53, 107, 163, 43, 28, 27, 24]
[24, 53, 107, 163, 43, 28, 27, 24]
[24, 53, 107, 163, 43, 28, 27, 24]
[24, 53, 107, 163, 43, 28, 27, 24]
[22, 50, 107, 155, 40, 25, 27, 23]
[22, 50, 107, 155, 40, 25, 27, 23]
[22, 50, 107, 155, 40, 25, 27, 23]
[22, 50, 107, 155, 40, 25, 27, 23]
[22, 50, 107, 155, 40, 25, 27, 23]
[22, 50, 107, 155, 40, 25, 27, 23]
[22, 50, 107, 155, 40, 25, 27, 23]
[22, 50, 107, 155, 40, 25, 27, 23]
[22, 45, 125, 171, 42, 27, 28, 24]
[22, 45, 125, 171, 42, 27, 28, 24]
[22, 45, 125, 171, 42, 27, 28, 24]
[22, 45, 125, 171, 42, 27, 28, 24]
[22, 45, 125, 171, 42, 27, 28, 24]
[22, 45, 125, 171, 42, 27, 28, 24]
[22, 45, 125, 171, 42, 27, 28, 24]
[22, 45, 125, 171, 42, 27, 28, 24]
[21, 51, 132, 145, 40, 26, 29, 24]
[21, 51, 132, 145, 40, 26, 29, 24]
[21, 51, 132, 145, 40, 26, 29, 24]
[21, 51, 132, 145, 40, 26, 29, 24]
[21, 51, 132, 145, 40, 26, 29, 24]
[21, 51, 132, 145, 40, 26, 29, 24]
[21, 51, 132, 145, 40, 26, 29, 24]
[21, 51, 132, 145, 40, 26, 29, 24]
[24, 51, 133, 137, 42, 26, 26, 22]
[24, 51, 133, 137, 42, 26, 26, 22]
[24, 51, 133, 137, 42, 26, 26, 22]
[24, 51, 133, 137, 42, 26, 26, 22]
[24, 51, 133, 137, 42, 26, 26, 22]
[24, 51, 133, 137, 42, 26, 26, 22]
[24, 51, 133, 137, 42, 26, 26, 22]
[24, 51, 133, 137, 42, 26, 26, 22]
[26, 55, 143, 159, 47, 28, 25, 21]
[26, 55, 143, 159, 47, 28, 25, 21]
[26, 55, 143, 159, 47, 28, 25, 21]
[26, 55, 143, 159, 47, 28, 25, 21]
[26, 55, 143, 159, 47, 28, 25, 21]
[26, 55, 143, 159, 47, 28, 25, 21]
[26, 55, 143, 159, 47, 28, 25, 21]
[26, 55, 143, 159, 47, 28, 25, 21]
[28, 56, 139, 179, 52, 27, 21, 20]
[28, 56, 139, 179, 52, 27, 21, 20]
[28, 56, 139, 179, 52, 27, 21, 20]
[28, 56, 139, 179, 52, 27, 21, 20]
[28, 56, 139, 179, 52, 27, 21, 20]
[28, 56, 139, 179, 52, 27, 21, 20]
[28, 56, 139, 179, 52, 27, 21, 20]
[28, 56, 139, 179, 52, 27, 21, 20]
[27, 55, 140, 157, 50, 25, 22, 19]
[27, 55, 140, 157, 50, 25, 22, 19]
[27, 55, 140, 157, 50, 25, 22, 19]
[27, 55, 140, 157, 50, 25, 22, 19]
[27, 55, 140, 157, 50, 25, 22, 19]
[27, 55, 140, 157, 50, 25, 22, 19]
[27, 55, 140, 157, 50, 25, 22, 19]
[27, 55, 140, 157, 50, 25, 22, 19]
[30, 55, 162, 164, 53, 27, 21, 22]
[30, 55, 162, 164, 53, 27, 21, 22]
[30, 55, 162, 164, 53, 27, 21, 22]
[30, 55, 162, 164, 53, 27, 21, 22]
[30, 55, 162, 164, 53, 27, 21, 22]
[30, 55, 162, 164, 53, 27, 21, 22]
[30, 55, 162, 164, 53, 27, 21, 22]
[30, 55, 162, 164, 53, 27, 21, 22]
[29, 57, 173, 184, 54, 28, 23, 22]
[29, 57, 173, 184, 54, 28, 23, 22]
[29, 57, 173, 184, 54, 28, 23, 22]
[29, 57, 173, 184, 54, 28, 23, 22]
[29, 57, 173, 184, 54, 28, 23, 22]
[29, 57, 173, 184, 54, 28, 23, 22]
[29, 57, 173, 184, 54, 28, 23, 22]
[29, 57, 173, 184, 54, 28, 23, 22]
[28, 54, 174, 189, 52, 29, 25, 25]
[28, 54, 174, 189, 52, 29, 25, 25]
[28, 54, 174, 189, 52, 29, 25, 25]
[28, 54, 174, 189, 52, 29, 25, 25]
[28, 54, 174, 189, 52, 29, 25, 25]
[28, 54, 174, 189, 52, 29, 25, 25]
[28, 54, 174, 189, 52, 29, 25, 25]
[28, 54, 174, 189, 52, 29, 25, 25]
[26, 51, 178, 174, 46, 31, 26, 24]
[26, 51, 178, 174, 46, 31, 26, 24]
[26, 51, 178, 174, 46, 31, 26, 24]
[26, 51, 178, 174, 46, 31, 26, 24]
[26, 51, 178, 174, 46, 31, 26, 24]
[26, 51, 178, 174, 46, 31, 26, 24]
[26, 51, 178, 174, 46, 31, 26, 24]
[26, 51, 178, 174, 46, 31, 26, 24]
[29, 52, 157, 167, 46, 30, 27, 27]
[29, 52, 157, 167, 46, 30, 27, 27]
[29, 52, 157, 167, 46, 30, 27, 27]
[29, 52, 157, 167, 46, 30, 27, 27]
[29, 52, 157, 167, 46, 30, 27, 27]
[29, 52, 157, 167, 46, 30, 27, 27]
[29, 52, 157, 167, 46, 30, 27, 27]
[29, 52, 157, 167, 46, 30, 27, 27]
[30, 44, 123, 163, 43, 27, 28, 26]
[30, 44, 123, 163, 43, 27, 28, 26]
[30, 44, 123, 163, 43, 27, 28, 26]
[30, 44, 123, 163, 43, 27, 28, 26]
[30, 44, 123, 163, 43, 27, 28, 26]
[30, 44, 123, 163, 43, 27, 28, 26]
[30, 44, 123, 163, 43, 27, 28, 26]
[30, 44, 123, 163, 43, 27, 28, 26]
[29, 43, 125, 157, 41, 29, 26, 26]
[29, 43, 125, 157, 41, 29, 26, 26]
[29, 43, 125, 157, 41, 29, 26, 26]
[29, 43, 125, 157, 41, 29, 26, 26]
[29, 43, 125, 157, 41, 29, 26, 26]
[29, 43, 125, 157, 41, 29, 26, 26]
[29, 43, 125, 157, 41, 29, 26, 26]
[29, 43, 125, 157, 41, 29, 26, 26]
[33, 43, 115, 137, 38, 29, 26, 25]
[33, 43, 115, 137, 38, 29, 26, 25]
[33, 43, 115, 137, 38, 29, 26, 25]
[33, 43, 115, 137, 38, 29, 26, 25]
[33, 43, 115, 137, 38, 29, 26, 25]
[33, 43, 115, 137, 38, 29, 26, 25]
[33, 43, 115, 137, 38, 29, 26, 25]
[33, 43, 115, 137, 38, 29, 26, 25]
[33, 45, 119, 135, 44, 29, 28, 26]
[33, 45, 119, 135, 44, 29, 28, 26]
[33, 45, 119, 135, 44, 29, 28, 26]
[33, 45, 119, 135, 44, 29, 28, 26]
[33, 45, 119, 135, 44, 29, 28, 26]
[33, 45, 119, 135, 44, 29, 28, 26]
[33, 45, 119, 135, 44, 29, 28, 26]
[33, 45, 119, 135, 44, 29, 28, 26]
[31, 44, 118, 137, 49, 31, 26, 22]
[31, 44, 118, 137, 49, 31, 26, 22]
[31, 44, 118, 137, 49, 31, 26, 22]
[31, 44, 118, 137, 49, 31, 26, 22]
[31, 44, 118, 137, 49, 31, 26, 22]
[31, 44, 118, 137, 49, 31, 26, 22]
[31, 44, 118, 137, 49, 31, 26, 22]
[31, 44, 118, 137, 49, 31, 26, 22]
[27, 43, 117, 142, 50, 30, 24, 21]
[27, 43, 117, 142, 50, 30, 24, 21]
[27, 43, 117, 142, 50, 30, 24, 21]
[27, 43, 117, 142, 50, 30, 24, 21]
[27, 43, 117, 142, 50, 30, 24, 21]
[27, 43, 117, 142, 50, 30, 24, 21]
[27, 43, 117, 142, 50, 30, 24, 21]
[27, 43, 117, 142, 50, 30, 24, 21]
[26, 43, 124, 134, 51, 33, 27, 27]
[26, 43, 124, 134, 51, 33, 27, 27]
[26, 43, 124, 134, 51, 33, 27, 27]
[26, 43, 124, 134, 51, 33, 27, 27]
[26, 43, 124, 134, 51, 33, 27, 27]
[26, 43, 124, 134, 51, 33, 27, 27]
[26, 43, 124, 134, 51, 33, 27, 27]
[26, 43, 124, 134, 51, 33, 27, 27]
[20, 38, 128, 137, 51, 32, 25, 26]
[20, 38, 128, 137, 51, 32, 25, 26]
[20, 38, 128, 137, 51, 32, 25, 26]
[20, 38, 128, 137, 51, 32, 25, 26]
[20, 38, 128, 137, 51, 32, 25, 26]
[20, 38, 128, 137, 51, 32, 25, 26]
[20, 38, 128, 137, 51, 32, 25, 26]
[20, 38, 128, 137, 51, 32, 25, 26]
[24, 44, 127, 136, 51, 32, 22, 25]
[24, 44, 127, 136, 51, 32, 22, 25]
[24, 44, 127, 136, 51, 32, 22, 25]
[24, 44, 127, 136, 51, 32, 22, 25]
[24, 44, 127, 136, 51, 32, 22, 25]
[24, 44, 127, 136, 51, 32, 22, 25]
[24, 44, 127, 136, 51, 32, 22, 25]
[24, 44, 127, 136, 51, 32, 22, 25]
[24, 42, 139, 141, 46, 29, 23, 26]
[24, 42, 139, 141, 46, 29, 23, 26]
[24, 42, 139, 141, 46, 29, 23, 26]
[24, 42, 139, 141, 46, 29, 23, 26]
[24, 42, 139, 141, 46, 29, 23, 26]
[24, 42, 139, 141, 46, 29, 23, 26]
[24, 42, 139, 141, 46, 29, 23, 26]
[24, 42, 139, 141, 46, 29, 23, 26]
[25, 50, 138, 132, 43, 29, 24, 27]
[25, 50, 138, 132, 43, 29, 24, 27]
[25, 50, 138, 132, 43, 29, 24, 27]
[25, 50, 138, 132, 43, 29, 24, 27]
[25, 50, 138, 132, 43, 29, 24, 27]
[25, 50, 138, 132, 43, 29, 24, 27]
[25, 50, 138, 132, 43, 29, 24, 27]
[25, 50, 138, 132, 43, 29, 24, 27]
[26, 50, 115, 118, 42, 23, 23, 21]
[26, 50, 115, 118, 42, 23, 23, 21]
[26, 50, 115, 118, 42, 23, 23, 21]
[26, 50, 115, 118, 42, 23, 23, 21]
[26, 50, 115, 118, 42, 23, 23, 21]
[26, 50, 115, 118, 42, 23, 23, 21]
[26, 50, 115, 118, 42, 23, 23, 21]
[26, 50, 115, 118, 42, 23, 23, 21]
[27, 51, 115, 163, 45, 22, 23, 22]
[27, 51, 115, 163, 45, 22, 23, 22]
[27, 51, 115, 163, 45, 22, 23, 22]
[27, 51, 115, 163, 45, 22, 23, 22]
[27, 51, 115, 163, 45, 22, 23, 22]
[27, 51, 115, 163, 45, 22, 23, 22]
[27, 51, 115, 163, 45, 22, 23, 22]
[27, 51, 115, 163, 45, 22, 23, 22]
[29, 52, 135, 189, 40, 25, 25, 26]
[29, 52, 135, 189, 40, 25, 25, 26]
[29, 52, 135, 189, 40, 25, 25, 26]
[29, 52, 135, 189, 40, 25, 25, 26]
[29, 52, 135, 189, 40, 25, 25, 26]
[29, 52, 135, 189, 40, 25, 25, 26]
[29, 52, 135, 189, 40, 25, 25, 26]
[29, 52, 135, 189, 40, 25, 25, 26]
[29, 53, 146, 193, 41, 26, 26, 26]
[29, 53, 146, 193, 41, 26, 26, 26]
[29, 53, 146, 193, 41, 26, 26, 26]
[29, 53, 146, 193, 41, 26, 26, 26]
[29, 53, 146, 193, 41, 26, 26, 26]
[29, 53, 146, 193, 41, 26, 26, 26]
[29, 53, 146, 193, 41, 26, 26, 26]
[29, 53, 146, 193, 41, 26, 26, 26]
[31, 48, 144, 197, 49, 29, 25, 25]
[31, 48, 144, 197, 49, 29, 25, 25]
[31, 48, 144, 197, 49, 29, 25, 25]
[31, 48, 144, 197, 49, 29, 25, 25]
[31, 48, 144, 197, 49, 29, 25, 25]
[31, 48, 144, 197, 49, 29, 25, 25]
[31, 48, 144, 197, 49, 29, 25, 25]
[31, 48, 144, 197, 49, 29, 25, 25]
[31, 46, 143, 203, 50, 30, 24, 26]
[31, 46, 143, 203, 50, 30, 24, 26]
[31, 46, 143, 203, 50, 30, 24, 26]
[31, 46, 143, 203, 50, 30, 24, 26]
[31, 46, 143, 203, 50, 30, 24, 26]
[31, 46, 143, 203, 50, 30, 24, 26]
[31, 46, 143, 203, 50, 30, 24, 26]
[31, 46, 143, 203, 50, 30, 24, 26]
[33, 47, 144, 161, 46, 30, 25, 26]
[33, 47, 144, 161, 46, 30, 25, 26]
[33, 47, 144, 161, 46, 30, 25, 26]
[33, 47, 144, 161, 46, 30, 25, 26]
[33, 47, 144, 161, 46, 30, 25, 26]
[33, 47, 144, 161, 46, 30, 25, 26]
[33, 47, 144, 161, 46, 30, 25, 26]
[33, 47, 144, 161, 46, 30, 25, 26]
[30, 42, 125, 162, 51, 29, 23, 23]
[30, 42, 125, 162, 51, 29, 23, 23]
[30, 42, 125, 162, 51, 29, 23, 23]
[30, 42, 125, 162, 51, 29, 23, 23]
[30, 42, 125, 162, 51, 29, 23, 23]
[30, 42, 125, 162, 51, 29, 23, 23]
[30, 42, 125, 162, 51, 29, 23, 23]
[30, 42, 125, 162, 51, 29, 23, 23]
[33, 54, 117, 190, 52, 29, 24, 24]
[33, 54, 117, 190, 52, 29, 24, 24]
[33, 54, 117, 190, 52, 29, 24, 24]
[33, 54, 117, 190, 52, 29, 24, 24]
[33, 54, 117, 190, 52, 29, 24, 24]
[33, 54, 117, 190, 52, 29, 24, 24]
[33, 54, 117, 190, 52, 29, 24, 24]
[33, 54, 117, 190, 52, 29, 24, 24]
[29, 52, 117, 189, 47, 26, 24, 23]
[29, 52, 117, 189, 47, 26, 24, 23]
[29, 52, 117, 189, 47, 26, 24, 23]
[29, 52, 117, 189, 47, 26, 24, 23]
[29, 52, 117, 189, 47, 26, 24, 23]
[29, 52, 117, 189, 47, 26, 24, 23]
[29, 52, 117, 189, 47, 26, 24, 23]
[29, 52, 117, 189, 47, 26, 24, 23]
[33, 60, 126, 186, 44, 27, 22, 23]
[33, 60, 126, 186, 44, 27, 22, 23]
[33, 60, 126, 186, 44, 27, 22, 23]
[33, 60, 126, 186, 44, 27, 22, 23]
[33, 60, 126, 186, 44, 27, 22, 23]
[33, 60, 126, 186, 44, 27, 22, 23]
[33, 60, 126, 186, 44, 27, 22, 23]
[33, 60, 126, 186, 44, 27, 22, 23]
[30, 60, 119, 188, 46, 29, 22, 22]
[30, 60, 119, 188, 46, 29, 22, 22]
[30, 60, 119, 188, 46, 29, 22, 22]
[30, 60, 119, 188, 46, 29, 22, 22]
[30, 60, 119, 188, 46, 29, 22, 22]
[30, 60, 119, 188, 46, 29, 22, 22]
[30, 60, 119, 188, 46, 29, 22, 22]
[30, 60, 119, 188, 46, 29, 22, 22]
[30, 58, 120, 164, 42, 31, 23, 21]
[30, 58, 120, 164, 42, 31, 23, 21]
[30, 58, 120, 164, 42, 31, 23, 21]
[30, 58, 120, 164, 42, 31, 23, 21]
[30, 58, 120, 164, 42, 31, 23, 21]
[30, 58, 120, 164, 42, 31, 23, 21]
[30, 58, 120, 164, 42, 31, 23, 21]
[30, 58, 120, 164, 42, 31, 23, 21]
[26, 47, 101, 116, 37, 32, 22, 21]
[26, 47, 101, 116, 37, 32, 22, 21]
[26, 47, 101, 116, 37, 32, 22, 21]
[26, 47, 101, 116, 37, 32, 22, 21]
[26, 47, 101, 116, 37, 32, 22, 21]
[26, 47, 101, 116, 37, 32, 22, 21]
[26, 47, 101, 116, 37, 32, 22, 21]
[26, 47, 101, 116, 37, 32, 22, 21]
[26, 48, 106, 168, 38, 32, 23, 21]
[26, 48, 106, 168, 38, 32, 23, 21]
[26, 48, 106, 168, 38, 32, 23, 21]
[26, 48, 106, 168, 38, 32, 23, 21]
[26, 48, 106, 168, 38, 32, 23, 21]
[26, 48, 106, 168, 38, 32, 23, 21]
[26, 48, 106, 168, 38, 32, 23, 21]
[26, 48, 106, 168, 38, 32, 23, 21]
[21, 39, 100, 167, 39, 31, 24, 22]
[21, 39, 100, 167, 39, 31, 24, 22]
[21, 39, 100, 167, 39, 31, 24, 22]
[21, 39, 100, 167, 39, 31, 24, 22]
[21, 39, 100, 167, 39, 31, 24, 22]
[21, 39, 100, 167, 39, 31, 24, 22]
[21, 39, 100, 167, 39, 31, 24, 22]
[21, 39, 100, 167, 39, 31, 24, 22]
[25, 43, 112, 174, 36, 28, 22, 22]
[25, 43, 112, 174, 36, 28, 22, 22]
[25, 43, 112, 174, 36, 28, 22, 22]
[25, 43, 112, 174, 36, 28, 22, 22]
[25, 43, 112, 174, 36, 28, 22, 22]
[25, 43, 112, 174, 36, 28, 22, 22]
[25, 43, 112, 174, 36, 28, 22, 22]
[25, 43, 112, 174, 36, 28, 22, 22]
[24, 45, 117, 200, 44, 30, 23, 21]
[24, 45, 117, 200, 44, 30, 23, 21]
[24, 45, 117, 200, 44, 30, 23, 21]
[24, 45, 117, 200, 44, 30, 23, 21]
[24, 45, 117, 200, 44, 30, 23, 21]
[24, 45, 117, 200, 44, 30, 23, 21]
[24, 45, 117, 200, 44, 30, 23, 21]
[24, 45, 117, 200, 44, 30, 23, 21]
[26, 44, 117, 202, 47, 29, 22, 20]
[26, 44, 117, 202, 47, 29, 22, 20]
[26, 44, 117, 202, 47, 29, 22, 20]
[26, 44, 117, 202, 47, 29, 22, 20]
[26, 44, 117, 202, 47, 29, 22, 20]
[26, 44, 117, 202, 47, 29, 22, 20]
[26, 44, 117, 202, 47, 29, 22, 20]
[26, 44, 117, 202, 47, 29, 22, 20]
[26, 44, 109, 173, 45, 30, 24, 20]
[26, 44, 109, 173, 45, 30, 24, 20]
[26, 44, 109, 173, 45, 30, 24, 20]
[26, 44, 109, 173, 45, 30, 24, 20]
[26, 44, 109, 173, 45, 30, 24, 20]
[26, 44, 109, 173, 45, 30, 24, 20]
[26, 44, 109, 173, 45, 30, 24, 20]
[26, 44, 109, 173, 45, 30, 24, 20]
[28, 46, 127, 193, 49, 33, 24, 18]
[28, 46, 127, 193, 49, 33, 24, 18]
[28, 46, 127, 193, 49, 33, 24, 18]
[28, 46, 127, 193, 49, 33, 24, 18]
[28, 46, 127, 193, 49, 33, 24, 18]
[28, 46, 127, 193, 49, 33, 24, 18]
[28, 46, 127, 193, 49, 33, 24, 18]
[28, 46, 127, 193, 49, 33, 24, 18]
[25, 47, 122, 190, 53, 32, 23, 17]
[25, 47, 122, 190, 53, 32, 23, 17]
[25, 47, 122, 190, 53, 32, 23, 17]
[25, 47, 122, 190, 53, 32, 23, 17]
[25, 47, 122, 190, 53, 32, 23, 17]
[25, 47, 122, 190, 53, 32, 23, 17]
[25, 47, 122, 190, 53, 32, 23, 17]
[25, 47, 122, 190, 53, 32, 23, 17]
[25, 44, 113, 158, 45, 26, 21, 18]
[25, 44, 113, 158, 45, 26, 21, 18]
[25, 44, 113, 158, 45, 26, 21, 18]
[25, 44, 113, 158, 45, 26, 21, 18]
[25, 44, 113, 158, 45, 26, 21, 18]
[25, 44, 113, 158, 45, 26, 21, 18]
[25, 44, 113, 158, 45, 26, 21, 18]
[25, 44, 113, 158, 45, 26, 21, 18]
[24, 44, 118, 152, 44, 25, 21, 21]
[24, 44, 118, 152, 44, 25, 21, 21]
[24, 44, 118, 152, 44, 25, 21, 21]
[24, 44, 118, 152, 44, 25, 21, 21]
[24, 44, 118, 152, 44, 25, 21, 21]
[24, 44, 118, 152, 44, 25, 21, 21]
[24, 44, 118, 152, 44, 25, 21, 21]
[24, 44, 118, 152, 44, 25, 21, 21]
[25, 48, 121, 150, 43, 23, 18, 20]
[25, 48, 121, 150, 43, 23, 18, 20]
[25, 48, 121, 150, 43, 23, 18, 20]
[25, 48, 121, 150, 43, 23, 18, 20]
[25, 48, 121, 150, 43, 23, 18, 20]
[25, 48, 121, 150, 43, 23, 18, 20]
[25, 48, 121, 150, 43, 23, 18, 20]
[25, 48, 121, 150, 43, 23, 18, 20]
[22, 47, 155, 141, 43, 23, 18, 22]
[22, 47, 155, 141, 43, 23, 18, 22]
[22, 47, 155, 141, 43, 23, 18, 22]
[22, 47, 155, 141, 43, 23, 18, 22]
[22, 47, 155, 141, 43, 23, 18, 22]
[22, 47, 155, 141, 43, 23, 18, 22]
[22, 47, 155, 141, 43, 23, 18, 22]
[22, 47, 155, 141, 43, 23, 18, 22]
[28, 52, 153, 137, 39, 22, 21, 21]
[28, 52, 153, 137, 39, 22, 21, 21]
[28, 52, 153, 137, 39, 22, 21, 21]
[28, 52, 153, 137, 39, 22, 21, 21]
[28, 52, 153, 137, 39, 22, 21, 21]
[28, 52, 153, 137, 39, 22, 21, 21]
[28, 52, 153, 137, 39, 22, 21, 21]
[28, 52, 153, 137, 39, 22, 21, 21]
[28, 54, 156, 145, 38, 21, 22, 22]
[28, 54, 156, 145, 38, 21, 22, 22]
[28, 54, 156, 145, 38, 21, 22, 22]
[28, 54, 156, 145, 38, 21, 22, 22]
[28, 54, 156, 145, 38, 21, 22, 22]
[28, 54, 156, 145, 38, 21, 22, 22]
[28, 54, 156, 145, 38, 21, 22, 22]
[28, 54, 156, 145, 38, 21, 22, 22]
[29, 55, 159, 159, 37, 23, 25, 19]
[29, 55, 159, 159, 37, 23, 25, 19]
[29, 55, 159, 159, 37, 23, 25, 19]
[29, 55, 159, 159, 37, 23, 25, 19]
[29, 55, 159, 159, 37, 23, 25, 19]
[29, 55, 159, 159, 37, 23, 25, 19]
[29, 55, 159, 159, 37, 23, 25, 19]
[29, 55, 159, 159, 37, 23, 25, 19]
[29, 52, 163, 180, 39, 24, 24, 20]
[29, 52, 163, 180, 39, 24, 24, 20]
[29, 52, 163, 180, 39, 24, 24, 20]
[29, 52, 163, 180, 39, 24, 24, 20]
[29, 52, 163, 180, 39, 24, 24, 20]
[29, 52, 163, 180, 39, 24, 24, 20]
[29, 52, 163, 180, 39, 24, 24, 20]
[29, 52, 163, 180, 39, 24, 24, 20]
[31, 51, 113, 174, 46, 22, 24, 20]
[31, 51, 113, 174, 46, 22, 24, 20]
[31, 51, 113, 174, 46, 22, 24, 20]
[31, 51, 113, 174, 46, 22, 24, 20]
[31, 51, 113, 174, 46, 22, 24, 20]
[31, 51, 113, 174, 46, 22, 24, 20]
[31, 51, 113, 174, 46, 22, 24, 20]
[31, 51, 113, 174, 46, 22, 24, 20]
[27, 46, 107, 170, 44, 24, 25, 22]
[27, 46, 107, 170, 44, 24, 25, 22]
[27, 46, 107, 170, 44, 24, 25, 22]
[27, 46, 107, 170, 44, 24, 25, 22]
[27, 46, 107, 170, 44, 24, 25, 22]
[27, 46, 107, 170, 44, 24, 25, 22]
[27, 46, 107, 170, 44, 24, 25, 22]
[27, 46, 107, 170, 44, 24, 25, 22]
[28, 48, 105, 170, 48, 26, 23, 21]
[28, 48, 105, 170, 48, 26, 23, 21]
[28, 48, 105, 170, 48, 26, 23, 21]
[28, 48, 105, 170, 48, 26, 23, 21]
[28, 48, 105, 170, 48, 26, 23, 21]
[28, 48, 105, 170, 48, 26, 23, 21]
[28, 48, 105, 170, 48, 26, 23, 21]
[28, 48, 105, 170, 48, 26, 23, 21]
[30, 50, 122, 267, 60, 25, 23, 21]
[30, 50, 122, 267, 60, 25, 23, 21]
[30, 50, 122, 267, 60, 25, 23, 21]
[30, 50, 122, 267, 60, 25, 23, 21]
[30, 50, 122, 267, 60, 25, 23, 21]
[30, 50, 122, 267, 60, 25, 23, 21]
[30, 50, 122, 267, 60, 25, 23, 21]
[30, 50, 122, 267, 60, 25, 23, 21]
[32, 50, 117, 254, 62, 29, 24, 21]
[32, 50, 117, 254, 62, 29, 24, 21]
[32, 50, 117, 254, 62, 29, 24, 21]
[32, 50, 117, 254, 62, 29, 24, 21]
[32, 50, 117, 254, 62, 29, 24, 21]
[32, 50, 117, 254, 62, 29, 24, 21]
[32, 50, 117, 254, 62, 29, 24, 21]
[32, 50, 117, 254, 62, 29, 24, 21]
[32, 52, 124, 254, 56, 29, 29, 21]
[32, 52, 124, 254, 56, 29, 29, 21]
[32, 52, 124, 254, 56, 29, 29, 21]
[32, 52, 124, 254, 56, 29, 29, 21]
[32, 52, 124, 254, 56, 29, 29, 21]
[32, 52, 124, 254, 56, 29, 29, 21]
[32, 52, 124, 254, 56, 29, 29, 21]
[32, 52, 124, 254, 56, 29, 29, 21]
[32, 48, 123, 256, 58, 30, 28, 21]
[32, 48, 123, 256, 58, 30, 28, 21]
[32, 48, 123, 256, 58, 30, 28, 21]
[32, 48, 123, 256, 58, 30, 28, 21]
[32, 48, 123, 256, 58, 30, 28, 21]
[32, 48, 123, 256, 58, 30, 28, 21]
[32, 48, 123, 256, 58, 30, 28, 21]
[32, 48, 123, 256, 58, 30, 28, 21]
[32, 44, 128, 257, 56, 29, 30, 22]
[32, 44, 128, 257, 56, 29, 30, 22]
[32, 44, 128, 257, 56, 29, 30, 22]
[32, 44, 128, 257, 56, 29, 30, 22]
[32, 44, 128, 257, 56, 29, 30, 22]
[32, 44, 128, 257, 56, 29, 30, 22]
[32, 44, 128, 257, 56, 29, 30, 22]
[32, 44, 128, 257, 56, 29, 30, 22]
[32, 45, 118, 204, 46, 31, 31, 24]
[32, 45, 118, 204, 46, 31, 31, 24]
[32, 45, 118, 204, 46, 31, 31, 24]
[32, 45, 118, 204, 46, 31, 31, 24]
[32, 45, 118, 204, 46, 31, 31, 24]
[32, 45, 118, 204, 46, 31, 31, 24]
[32, 45, 118, 204, 46, 31, 31, 24]
[32, 45, 118, 204, 46, 31, 31, 24]
[29, 45, 123, 204, 43, 27, 33, 24]
[29, 45, 123, 204, 43, 27, 33, 24]
[29, 45, 123, 204, 43, 27, 33, 24]
[29, 45, 123, 204, 43, 27, 33, 24]
[29, 45, 123, 204, 43, 27, 33, 24]
[29, 45, 123, 204, 43, 27, 33, 24]
[29, 45, 123, 204, 43, 27, 33, 24]
[29, 45, 123, 204, 43, 27, 33, 24]
[28, 44, 121, 216, 45, 28, 29, 29]
[28, 44, 121, 216, 45, 28, 29, 29]
[28, 44, 121, 216, 45, 28, 29, 29]
[28, 44, 121, 216, 45, 28, 29, 29]
[28, 44, 121, 216, 45, 28, 29, 29]
[28, 44, 121, 216, 45, 28, 29, 29]
[28, 44, 121, 216, 45, 28, 29, 29]
[28, 44, 121, 216, 45, 28, 29, 29]
[28, 46, 154, 224, 46, 28, 29, 27]
[28, 46, 154, 224, 46, 28, 29, 27]
[28, 46, 154, 224, 46, 28, 29, 27]
[28, 46, 154, 224, 46, 28, 29, 27]
[28, 46, 154, 224, 46, 28, 29, 27]
[28, 46, 154, 224, 46, 28, 29, 27]
[28, 46, 154, 224, 46, 28, 29, 27]
[28, 46, 154, 224, 46, 28, 29, 27]
[28, 50, 153, 228, 49, 28, 27, 27]
[28, 50, 153, 228, 49, 28, 27, 27]
[28, 50, 153, 228, 49, 28, 27, 27]
[28, 50, 153, 228, 49, 28, 27, 27]
[28, 50, 153, 228, 49, 28, 27, 27]
[28, 50, 153, 228, 49, 28, 27, 27]
[28, 50, 153, 228, 49, 28, 27, 27]
[28, 50, 153, 228, 49, 28, 27, 27]
[25, 47, 150, 175, 51, 28, 24, 25]
[25, 47, 150, 175, 51, 28, 24, 25]
[25, 47, 150, 175, 51, 28, 24, 25]
[25, 47, 150, 175, 51, 28, 24, 25]
[25, 47, 150, 175, 51, 28, 24, 25]
[25, 47, 150, 175, 51, 28, 24, 25]
[25, 47, 150, 175, 51, 28, 24, 25]
[25, 47, 150, 175, 51, 28, 24, 25]
[27, 49, 152, 187, 51, 29, 21, 25]
[27, 49, 152, 187, 51, 29, 21, 25]
[27, 49, 152, 187, 51, 29, 21, 25]
[27, 49, 152, 187, 51, 29, 21, 25]
[27, 49, 152, 187, 51, 29, 21, 25]
[27, 49, 152, 187, 51, 29, 21, 25]
[27, 49, 152, 187, 51, 29, 21, 25]
[27, 49, 152, 187, 51, 29, 21, 25]
[27, 48, 153, 164, 49, 27, 21, 19]
[27, 48, 153, 164, 49, 27, 21, 19]
[27, 48, 153, 164, 49, 27, 21, 19]
[27, 48, 153, 164, 49, 27, 21, 19]
[27, 48, 153, 164, 49, 27, 21, 19]
[27, 48, 153, 164, 49, 27, 21, 19]
[27, 48, 153, 164, 49, 27, 21, 19]
[27, 48, 153, 164, 49, 27, 21, 19]
[30, 47, 146, 175, 49, 26, 23, 19]
[30, 47, 146, 175, 49, 26, 23, 19]
[30, 47, 146, 175, 49, 26, 23, 19]
[30, 47, 146, 175, 49, 26, 23, 19]
[30, 47, 146, 175, 49, 26, 23, 19]
[30, 47, 146, 175, 49, 26, 23, 19]
[30, 47, 146, 175, 49, 26, 23, 19]
[30, 47, 146, 175, 49, 26, 23, 19]
[28, 45, 138, 169, 46, 25, 26, 19]
[28, 45, 138, 169, 46, 25, 26, 19]
[28, 45, 138, 169, 46, 25, 26, 19]
[28, 45, 138, 169, 46, 25, 26, 19]
[28, 45, 138, 169, 46, 25, 26, 19]
[28, 45, 138, 169, 46, 25, 26, 19]
[28, 45, 138, 169, 46, 25, 26, 19]
[28, 45, 138, 169, 46, 25, 26, 19]
[33, 55, 149, 181, 44, 21, 26, 21]
[33, 55, 149, 181, 44, 21, 26, 21]
[33, 55, 149, 181, 44, 21, 26, 21]
[33, 55, 149, 181, 44, 21, 26, 21]
[33, 55, 149, 181, 44, 21, 26, 21]
[33, 55, 149, 181, 44, 21, 26, 21]
[33, 55, 149, 181, 44, 21, 26, 21]
[33, 55, 149, 181, 44, 21, 26, 21]
[30, 51, 143, 157, 49, 21, 27, 20]
[30, 51, 143, 157, 49, 21, 27, 20]
[30, 51, 143, 157, 49, 21, 27, 20]
[30, 51, 143, 157, 49, 21, 27, 20]
[30, 51, 143, 157, 49, 21, 27, 20]
[30, 51, 143, 157, 49, 21, 27, 20]
[30, 51, 143, 157, 49, 21, 27, 20]
[30, 51, 143, 157, 49, 21, 27, 20]
[30, 51, 131, 154, 48, 22, 27, 20]
[30, 51, 131, 154, 48, 22, 27, 20]
[30, 51, 131, 154, 48, 22, 27, 20]
[30, 51, 131, 154, 48, 22, 27, 20]
[30, 51, 131, 154, 48, 22, 27, 20]
[30, 51, 131, 154, 48, 22, 27, 20]
[30, 51, 131, 154, 48, 22, 27, 20]
[30, 51, 131, 154, 48, 22, 27, 20]
[29, 52, 108, 140, 46, 23, 25, 21]
[29, 52, 108, 140, 46, 23, 25, 21]
[29, 52, 108, 140, 46, 23, 25, 21]
[29, 52, 108, 140, 46, 23, 25, 21]
[29, 52, 108, 140, 46, 23, 25, 21]
[29, 52, 108, 140, 46, 23, 25, 21]
[29, 52, 108, 140, 46, 23, 25, 21]
[29, 52, 108, 140, 46, 23, 25, 21]
[28, 51, 136, 209, 53, 25, 22, 20]
[28, 51, 136, 209, 53, 25, 22, 20]
[28, 51, 136, 209, 53, 25, 22, 20]
[28, 51, 136, 209, 53, 25, 22, 20]
[28, 51, 136, 209, 53, 25, 22, 20]
[28, 51, 136, 209, 53, 25, 22, 20]
[28, 51, 136, 209, 53, 25, 22, 20]
[28, 51, 136, 209, 53, 25, 22, 20]
[26, 44, 142, 212, 52, 25, 24, 21]
[26, 44, 142, 212, 52, 25, 24, 21]
[26, 44, 142, 212, 52, 25, 24, 21]
[26, 44, 142, 212, 52, 25, 24, 21]
[26, 44, 142, 212, 52, 25, 24, 21]
[26, 44, 142, 212, 52, 25, 24, 21]
[26, 44, 142, 212, 52, 25, 24, 21]
[26, 44, 142, 212, 52, 25, 24, 21]
[26, 42, 147, 225, 49, 25, 24, 21]
[26, 42, 147, 225, 49, 25, 24, 21]
[26, 42, 147, 225, 49, 25, 24, 21]
[26, 42, 147, 225, 49, 25, 24, 21]
[26, 42, 147, 225, 49, 25, 24, 21]
[26, 42, 147, 225, 49, 25, 24, 21]
[26, 42, 147, 225, 49, 25, 24, 21]
[26, 42, 147, 225, 49, 25, 24, 21]
[25, 42, 149, 225, 49, 25, 24, 21]
[25, 42, 149, 225, 49, 25, 24, 21]
[25, 42, 149, 225, 49, 25, 24, 21]
[25, 42, 149, 225, 49, 25, 24, 21]
[25, 42, 149, 225, 49, 25, 24, 21]
[25, 42, 149, 225, 49, 25, 24, 21]
[25, 42, 149, 225, 49, 25, 24, 21]
[25, 42, 149, 225, 49, 25, 24, 21]
[26, 45, 147, 218, 54, 24, 24, 22]
[26, 45, 147, 218, 54, 24, 24, 22]
[26, 45, 147, 218, 54, 24, 24, 22]
[26, 45, 147, 218, 54, 24, 24, 22]
[26, 45, 147, 218, 54, 24, 24, 22]
[26, 45, 147, 218, 54, 24, 24, 22]
[26, 45, 147, 218, 54, 24, 24, 22]
[26, 45, 147, 218, 54, 24, 24, 22]
[26, 46, 128, 199, 52, 22, 24, 21]
[26, 46, 128, 199, 52, 22, 24, 21]
[26, 46, 128, 199, 52, 22, 24, 21]
[26, 46, 128, 199, 52, 22, 24, 21]
[26, 46, 128, 199, 52, 22, 24, 21]
[26, 46, 128, 199, 52, 22, 24, 21]
[26, 46, 128, 199, 52, 22, 24, 21]
[26, 46, 128, 199, 52, 22, 24, 21]
[25, 43, 109, 187, 55, 24, 24, 20]
[25, 43, 109, 187, 55, 24, 24, 20]
[25, 43, 109, 187, 55, 24, 24, 20]
[25, 43, 109, 187, 55, 24, 24, 20]
[25, 43, 109, 187, 55, 24, 24, 20]
[25, 43, 109, 187, 55, 24, 24, 20]
[25, 43, 109, 187, 55, 24, 24, 20]
[25, 43, 109, 187, 55, 24, 24, 20]
[26, 45, 106, 173, 54, 24, 24, 20]
[26, 45, 106, 173, 54, 24, 24, 20]
[26, 45, 106, 173, 54, 24, 24, 20]
[26, 45, 106, 173, 54, 24, 24, 20]
[26, 45, 106, 173, 54, 24, 24, 20]
[26, 45, 106, 173, 54, 24, 24, 20]
[26, 45, 106, 173, 54, 24, 24, 20]
[26, 45, 106, 173, 54, 24, 24, 20]
[27, 46, 117, 179, 55, 24, 23, 21]
[27, 46, 117, 179, 55, 24, 23, 21]
[27, 46, 117, 179, 55, 24, 23, 21]
[27, 46, 117, 179, 55, 24, 23, 21]
[27, 46, 117, 179, 55, 24, 23, 21]
[27, 46, 117, 179, 55, 24, 23, 21]
[27, 46, 117, 179, 55, 24, 23, 21]
[27, 46, 117, 179, 55, 24, 23, 21]
[25, 43, 124, 183, 52, 24, 25, 19]
[25, 43, 124, 183, 52, 24, 25, 19]
[25, 43, 124, 183, 52, 24, 25, 19]
[25, 43, 124, 183, 52, 24, 25, 19]
[25, 43, 124, 183, 52, 24, 25, 19]
[25, 43, 124, 183, 52, 24, 25, 19]
[25, 43, 124, 183, 52, 24, 25, 19]
[25, 43, 124, 183, 52, 24, 25, 19]
[24, 39, 121, 131, 45, 26, 24, 19]
[24, 39, 121, 131, 45, 26, 24, 19]
[24, 39, 121, 131, 45, 26, 24, 19]
[24, 39, 121, 131, 45, 26, 24, 19]
[24, 39, 121, 131, 45, 26, 24, 19]
[24, 39, 121, 131, 45, 26, 24, 19]
[24, 39, 121, 131, 45, 26, 24, 19]
[24, 39, 121, 131, 45, 26, 24, 19]
[24, 44, 122, 141, 43, 25, 22, 18]
[24, 44, 122, 141, 43, 25, 22, 18]
[24, 44, 122, 141, 43, 25, 22, 18]
[24, 44, 122, 141, 43, 25, 22, 18]
[24, 44, 122, 141, 43, 25, 22, 18]
[24, 44, 122, 141, 43, 25, 22, 18]
[24, 44, 122, 141, 43, 25, 22, 18]
[24, 44, 122, 141, 43, 25, 22, 18]
[26, 44, 121, 159, 48, 26, 25, 18]
[26, 44, 121, 159, 48, 26, 25, 18]
[26, 44, 121, 159, 48, 26, 25, 18]
[26, 44, 121, 159, 48, 26, 25, 18]
[26, 44, 121, 159, 48, 26, 25, 18]
[26, 44, 121, 159, 48, 26, 25, 18]
[26, 44, 121, 159, 48, 26, 25, 18]
[26, 44, 121, 159, 48, 26, 25, 18]
[26, 43, 110, 166, 50, 25, 27, 18]
[26, 43, 110, 166, 50, 25, 27, 18]
[26, 43, 110, 166, 50, 25, 27, 18]
[26, 43, 110, 166, 50, 25, 27, 18]
[26, 43, 110, 166, 50, 25, 27, 18]
[26, 43, 110, 166, 50, 25, 27, 18]
[26, 43, 110, 166, 50, 25, 27, 18]
[26, 43, 110, 166, 50, 25, 27, 18]
[27, 41, 108, 204, 52, 28, 26, 19]
[27, 41, 108, 204, 52, 28, 26, 19]
[27, 41, 108, 204, 52, 28, 26, 19]
[27, 41, 108, 204, 52, 28, 26, 19]
[27, 41, 108, 204, 52, 28, 26, 19]
[27, 41, 108, 204, 52, 28, 26, 19]
[27, 41, 108, 204, 52, 28, 26, 19]
[27, 41, 108, 204, 52, 28, 26, 19]
[31, 46, 141, 216, 54, 27, 25, 21]
[31, 46, 141, 216, 54, 27, 25, 21]
[31, 46, 141, 216, 54, 27, 25, 21]
[31, 46, 141, 216, 54, 27, 25, 21]
[31, 46, 141, 216, 54, 27, 25, 21]
[31, 46, 141, 216, 54, 27, 25, 21]
[31, 46, 141, 216, 54, 27, 25, 21]
[31, 46, 141, 216, 54, 27, 25, 21]
[30, 45, 144, 213, 53, 27, 23, 23]
[30, 45, 144, 213, 53, 27, 23, 23]
[30, 45, 144, 213, 53, 27, 23, 23]
[30, 45, 144, 213, 53, 27, 23, 23]
[30, 45, 144, 213, 53, 27, 23, 23]
[30, 45, 144, 213, 53, 27, 23, 23]
[30, 45, 144, 213, 53, 27, 23, 23]
[30, 45, 144, 213, 53, 27, 23, 23]
[29, 50, 158, 197, 49, 28, 21, 23]
[29, 50, 158, 197, 49, 28, 21, 23]
[29, 50, 158, 197, 49, 28, 21, 23]
[29, 50, 158, 197, 49, 28, 21, 23]
[29, 50, 158, 197, 49, 28, 21, 23]
[29, 50, 158, 197, 49, 28, 21, 23]
[29, 50, 158, 197, 49, 28, 21, 23]
[29, 50, 158, 197, 49, 28, 21, 23]
[28, 49, 163, 202, 53, 31, 18, 21]
[28, 49, 163, 202, 53, 31, 18, 21]
[28, 49, 163, 202, 53, 31, 18, 21]
[28, 49, 163, 202, 53, 31, 18, 21]
[28, 49, 163, 202, 53, 31, 18, 21]
[28, 49, 163, 202, 53, 31, 18, 21]
[28, 49, 163, 202, 53, 31, 18, 21]
[28, 49, 163, 202, 53, 31, 18, 21]
[31, 53, 164, 197, 59, 28, 18, 23]
[31, 53, 164, 197, 59, 28, 18, 23]
[31, 53, 164, 197, 59, 28, 18, 23]
[31, 53, 164, 197, 59, 28, 18, 23]
[31, 53, 164, 197, 59, 28, 18, 23]
[31, 53, 164, 197, 59, 28, 18, 23]
[31, 53, 164, 197, 59, 28, 18, 23]
[31, 53, 164, 197, 59, 28, 18, 23]
[30, 53, 152, 188, 57, 28, 19, 21]
[30, 53, 152, 188, 57, 28, 19, 21]
[30, 53, 152, 188, 57, 28, 19, 21]
[30, 53, 152, 188, 57, 28, 19, 21]
[30, 53, 152, 188, 57, 28, 19, 21]
[30, 53, 152, 188, 57, 28, 19, 21]
[30, 53, 152, 188, 57, 28, 19, 21]
[30, 53, 152, 188, 57, 28, 19, 21]
[31, 50, 149, 185, 54, 27, 19, 20]
[31, 50, 149, 185, 54, 27, 19, 20]
[31, 50, 149, 185, 54, 27, 19, 20]
[31, 50, 149, 185, 54, 27, 19, 20]
[31, 50, 149, 185, 54, 27, 19, 20]
[31, 50, 149, 185, 54, 27, 19, 20]
[31, 50, 149, 185, 54, 27, 19, 20]
[31, 50, 149, 185, 54, 27, 19, 20]
[32, 49, 156, 211, 60, 29, 22, 23]
[32, 49, 156, 211, 60, 29, 22, 23]
[32, 49, 156, 211, 60, 29, 22, 23]
[32, 49, 156, 211, 60, 29, 22, 23]
[32, 49, 156, 211, 60, 29, 22, 23]
[32, 49, 156, 211, 60, 29, 22, 23]
[32, 49, 156, 211, 60, 29, 22, 23]
[32, 49, 156, 211, 60, 29, 22, 23]
[33, 53, 153, 201, 57, 26, 21, 25]
[33, 53, 153, 201, 57, 26, 21, 25]
[33, 53, 153, 201, 57, 26, 21, 25]
[33, 53, 153, 201, 57, 26, 21, 25]
[33, 53, 153, 201, 57, 26, 21, 25]
[33, 53, 153, 201, 57, 26, 21, 25]
[33, 53, 153, 201, 57, 26, 21, 25]
[33, 53, 153, 201, 57, 26, 21, 25]
[31, 49, 146, 171, 50, 25, 21, 23]
[31, 49, 146, 171, 50, 25, 21, 23]
[31, 49, 146, 171, 50, 25, 21, 23]
[31, 49, 146, 171, 50, 25, 21, 23]
[31, 49, 146, 171, 50, 25, 21, 23]
[31, 49, 146, 171, 50, 25, 21, 23]
[31, 49, 146, 171, 50, 25, 21, 23]
[31, 49, 146, 171, 50, 25, 21, 23]
[29, 46, 137, 165, 50, 26, 21, 24]
[29, 46, 137, 165, 50, 26, 21, 24]
[29, 46, 137, 165, 50, 26, 21, 24]
[29, 46, 137, 165, 50, 26, 21, 24]
[29, 46, 137, 165, 50, 26, 21, 24]
[29, 46, 137, 165, 50, 26, 21, 24]
[29, 46, 137, 165, 50, 26, 21, 24]
[29, 46, 137, 165, 50, 26, 21, 24]
[30, 50, 175, 201, 58, 28, 23, 25]
[30, 50, 175, 201, 58, 28, 23, 25]
[30, 50, 175, 201, 58, 28, 23, 25]
[30, 50, 175, 201, 58, 28, 23, 25]
[30, 50, 175, 201, 58, 28, 23, 25]
[30, 50, 175, 201, 58, 28, 23, 25]
[30, 50, 175, 201, 58, 28, 23, 25]
[30, 50, 175, 201, 58, 28, 23, 25]
[29, 47, 153, 177, 54, 26, 22, 22]
[29, 47, 153, 177, 54, 26, 22, 22]
[29, 47, 153, 177, 54, 26, 22, 22]
[29, 47, 153, 177, 54, 26, 22, 22]
[29, 47, 153, 177, 54, 26, 22, 22]
[29, 47, 153, 177, 54, 26, 22, 22]
[29, 47, 153, 177, 54, 26, 22, 22]
[29, 47, 153, 177, 54, 26, 22, 22]
[29, 45, 157, 192, 51, 27, 22, 22]
[29, 45, 157, 192, 51, 27, 22, 22]
[29, 45, 157, 192, 51, 27, 22, 22]
[29, 45, 157, 192, 51, 27, 22, 22]
[29, 45, 157, 192, 51, 27, 22, 22]
[29, 45, 157, 192, 51, 27, 22, 22]
[29, 45, 157, 192, 51, 27, 22, 22]
[29, 45, 157, 192, 51, 27, 22, 22]
[26, 45, 158, 185, 48, 27, 24, 24]
[26, 45, 158, 185, 48, 27, 24, 24]
[26, 45, 158, 185, 48, 27, 24, 24]
[26, 45, 158, 185, 48, 27, 24, 24]
[26, 45, 158, 185, 48, 27, 24, 24]
[26, 45, 158, 185, 48, 27, 24, 24]
[26, 45, 158, 185, 48, 27, 24, 24]
[26, 45, 158, 185, 48, 27, 24, 24]
[28, 48, 149, 225, 55, 28, 24, 24]
[28, 48, 149, 225, 55, 28, 24, 24]
[28, 48, 149, 225, 55, 28, 24, 24]
[28, 48, 149, 225, 55, 28, 24, 24]
[28, 48, 149, 225, 55, 28, 24, 24]
[28, 48, 149, 225, 55, 28, 24, 24]
[28, 48, 149, 225, 55, 28, 24, 24]
[28, 48, 149, 225, 55, 28, 24, 24]
[29, 47, 81, 193, 50, 31, 26, 22]
[29, 47, 81, 193, 50, 31, 26, 22]
[29, 47, 81, 193, 50, 31, 26, 22]
[29, 47, 81, 193, 50, 31, 26, 22]
[29, 47, 81, 193, 50, 31, 26, 22]
[29, 47, 81, 193, 50, 31, 26, 22]
[29, 47, 81, 193, 50, 31, 26, 22]
[29, 47, 81, 193, 50, 31, 26, 22]
[30, 47, 138, 214, 58, 30, 27, 22]
[30, 47, 138, 214, 58, 30, 27, 22]
[30, 47, 138, 214, 58, 30, 27, 22]
[30, 47, 138, 214, 58, 30, 27, 22]
[30, 47, 138, 214, 58, 30, 27, 22]
[30, 47, 138, 214, 58, 30, 27, 22]
[30, 47, 138, 214, 58, 30, 27, 22]
[30, 47, 138, 214, 58, 30, 27, 22]
[29, 50, 130, 198, 61, 29, 28, 24]
[29, 50, 130, 198, 61, 29, 28, 24]
[29, 50, 130, 198, 61, 29, 28, 24]
[29, 50, 130, 198, 61, 29, 28, 24]
[29, 50, 130, 198, 61, 29, 28, 24]
[29, 50, 130, 198, 61, 29, 28, 24]
[29, 50, 130, 198, 61, 29, 28, 24]
[29, 50, 130, 198, 61, 29, 28, 24]
[30, 48, 129, 258, 65, 32, 29, 22]
[30, 48, 129, 258, 65, 32, 29, 22]
[30, 48, 129, 258, 65, 32, 29, 22]
[30, 48, 129, 258, 65, 32, 29, 22]
[30, 48, 129, 258, 65, 32, 29, 22]
[30, 48, 129, 258, 65, 32, 29, 22]
[30, 48, 129, 258, 65, 32, 29, 22]
[30, 48, 129, 258, 65, 32, 29, 22]
[29, 44, 145, 240, 63, 30, 30, 21]
[29, 44, 145, 240, 63, 30, 30, 21]
[29, 44, 145, 240, 63, 30, 30, 21]
[29, 44, 145, 240, 63, 30, 30, 21]
[29, 44, 145, 240, 63, 30, 30, 21]
[29, 44, 145, 240, 63, 30, 30, 21]
[29, 44, 145, 240, 63, 30, 30, 21]
[29, 44, 145, 240, 63, 30, 30, 21]
[31, 46, 148, 242, 61, 29, 28, 24]
[31, 46, 148, 242, 61, 29, 28, 24]
[31, 46, 148, 242, 61, 29, 28, 24]
[31, 46, 148, 242, 61, 29, 28, 24]
[31, 46, 148, 242, 61, 29, 28, 24]
[31, 46, 148, 242, 61, 29, 28, 24]
[31, 46, 148, 242, 61, 29, 28, 24]
[31, 46, 148, 242, 61, 29, 28, 24]
[29, 44, 96, 223, 50, 32, 27, 23]
[29, 44, 96, 223, 50, 32, 27, 23]
[29, 44, 96, 223, 50, 32, 27, 23]
[29, 44, 96, 223, 50, 32, 27, 23]
[29, 44, 96, 223, 50, 32, 27, 23]
[29, 44, 96, 223, 50, 32, 27, 23]
[29, 44, 96, 223, 50, 32, 27, 23]
[29, 44, 96, 223, 50, 32, 27, 23]
[29, 41, 101, 227, 50, 34, 27, 21]
[29, 41, 101, 227, 50, 34, 27, 21]
[29, 41, 101, 227, 50, 34, 27, 21]
[29, 41, 101, 227, 50, 34, 27, 21]
[29, 41, 101, 227, 50, 34, 27, 21]
[29, 41, 101, 227, 50, 34, 27, 21]
[29, 41, 101, 227, 50, 34, 27, 21]
[29, 41, 101, 227, 50, 34, 27, 21]
[31, 45, 109, 153, 46, 32, 25, 21]
[31, 45, 109, 153, 46, 32, 25, 21]
[31, 45, 109, 153, 46, 32, 25, 21]
[31, 45, 109, 153, 46, 32, 25, 21]
[31, 45, 109, 153, 46, 32, 25, 21]
[31, 45, 109, 153, 46, 32, 25, 21]
[31, 45, 109, 153, 46, 32, 25, 21]
[31, 45, 109, 153, 46, 32, 25, 21]
[30, 47, 100, 158, 44, 32, 25, 21]
[30, 47, 100, 158, 44, 32, 25, 21]
[30, 47, 100, 158, 44, 32, 25, 21]
[30, 47, 100, 158, 44, 32, 25, 21]
[30, 47, 100, 158, 44, 32, 25, 21]
[30, 47, 100, 158, 44, 32, 25, 21]
[30, 47, 100, 158, 44, 32, 25, 21]
[30, 47, 100, 158, 44, 32, 25, 21]
[27, 49, 109, 168, 45, 29, 25, 19]
[27, 49, 109, 168, 45, 29, 25, 19]
[27, 49, 109, 168, 45, 29, 25, 19]
[27, 49, 109, 168, 45, 29, 25, 19]
[27, 49, 109, 168, 45, 29, 25, 19]
[27, 49, 109, 168, 45, 29, 25, 19]
[27, 49, 109, 168, 45, 29, 25, 19]
[27, 49, 109, 168, 45, 29, 25, 19]
[27, 52, 164, 189, 46, 30, 30, 21]
[27, 52, 164, 189, 46, 30, 30, 21]
[27, 52, 164, 189, 46, 30, 30, 21]
[27, 52, 164, 189, 46, 30, 30, 21]
[27, 52, 164, 189, 46, 30, 30, 21]
[27, 52, 164, 189, 46, 30, 30, 21]
[27, 52, 164, 189, 46, 30, 30, 21]
[27, 52, 164, 189, 46, 30, 30, 21]
[27, 52, 165, 181, 47, 29, 29, 20]
[27, 52, 165, 181, 47, 29, 29, 20]
[27, 52, 165, 181, 47, 29, 29, 20]
[27, 52, 165, 181, 47, 29, 29, 20]
[27, 52, 165, 181, 47, 29, 29, 20]
[27, 52, 165, 181, 47, 29, 29, 20]
[27, 52, 165, 181, 47, 29, 29, 20]
[27, 52, 165, 181, 47, 29, 29, 20]
[31, 53, 175, 199, 50, 31, 27, 22]
[31, 53, 175, 199, 50, 31, 27, 22]
[31, 53, 175, 199, 50, 31, 27, 22]
[31, 53, 175, 199, 50, 31, 27, 22]
[31, 53, 175, 199, 50, 31, 27, 22]
[31, 53, 175, 199, 50, 31, 27, 22]
[31, 53, 175, 199, 50, 31, 27, 22]
[31, 53, 175, 199, 50, 31, 27, 22]
[30, 51, 179, 218, 48, 31, 27, 22]
[30, 51, 179, 218, 48, 31, 27, 22]
[30, 51, 179, 218, 48, 31, 27, 22]
[30, 51, 179, 218, 48, 31, 27, 22]
[30, 51, 179, 218, 48, 31, 27, 22]
[30, 51, 179, 218, 48, 31, 27, 22]
[30, 51, 179, 218, 48, 31, 27, 22]
[30, 51, 179, 218, 48, 31, 27, 22]
[34, 52, 175, 230, 52, 30, 28, 23]
[34, 52, 175, 230, 52, 30, 28, 23]
[34, 52, 175, 230, 52, 30, 28, 23]
[34, 52, 175, 230, 52, 30, 28, 23]
[34, 52, 175, 230, 52, 30, 28, 23]
[34, 52, 175, 230, 52, 30, 28, 23]
[34, 52, 175, 230, 52, 30, 28, 23]
[34, 52, 175, 230, 52, 30, 28, 23]
[34, 52, 127, 217, 54, 28, 24, 24]
[34, 52, 127, 217, 54, 28, 24, 24]
[34, 52, 127, 217, 54, 28, 24, 24]
[34, 52, 127, 217, 54, 28, 24, 24]
[34, 52, 127, 217, 54, 28, 24, 24]
[34, 52, 127, 217, 54, 28, 24, 24]
[34, 52, 127, 217, 54, 28, 24, 24]
[34, 52, 127, 217, 54, 28, 24, 24]
[33, 50, 123, 220, 51, 26, 23, 25]
[33, 50, 123, 220, 51, 26, 23, 25]
[33, 50, 123, 220, 51, 26, 23, 25]
[33, 50, 123, 220, 51, 26, 23, 25]
[33, 50, 123, 220, 51, 26, 23, 25]
[33, 50, 123, 220, 51, 26, 23, 25]
[33, 50, 123, 220, 51, 26, 23, 25]
[33, 50, 123, 220, 51, 26, 23, 25]
[28, 48, 99, 207, 47, 22, 23, 26]
[28, 48, 99, 207, 47, 22, 23, 26]
[28, 48, 99, 207, 47, 22, 23, 26]
[28, 48, 99, 207, 47, 22, 23, 26]
[28, 48, 99, 207, 47, 22, 23, 26]
[28, 48, 99, 207, 47, 22, 23, 26]
[28, 48, 99, 207, 47, 22, 23, 26]
[28, 48, 99, 207, 47, 22, 23, 26]
[30, 50, 101, 187, 45, 23, 26, 27]
[30, 50, 101, 187, 45, 23, 26, 27]
[30, 50, 101, 187, 45, 23, 26, 27]
[30, 50, 101, 187, 45, 23, 26, 27]
[30, 50, 101, 187, 45, 23, 26, 27]
[30, 50, 101, 187, 45, 23, 26, 27]
[30, 50, 101, 187, 45, 23, 26, 27]
[30, 50, 101, 187, 45, 23, 26, 27]
[26, 45, 95, 199, 42, 25, 27, 25]
[26, 45, 95, 199, 42, 25, 27, 25]
[26, 45, 95, 199, 42, 25, 27, 25]
[26, 45, 95, 199, 42, 25, 27, 25]
[26, 45, 95, 199, 42, 25, 27, 25]
[26, 45, 95, 199, 42, 25, 27, 25]
[26, 45, 95, 199, 42, 25, 27, 25]
[26, 45, 95, 199, 42, 25, 27, 25]
[25, 44, 108, 197, 39, 25, 25, 24]
[25, 44, 108, 197, 39, 25, 25, 24]
[25, 44, 108, 197, 39, 25, 25, 24]
[25, 44, 108, 197, 39, 25, 25, 24]
[25, 44, 108, 197, 39, 25, 25, 24]
[25, 44, 108, 197, 39, 25, 25, 24]
[25, 44, 108, 197, 39, 25, 25, 24]
[25, 44, 108, 197, 39, 25, 25, 24]
[26, 48, 112, 199, 39, 24, 25, 25]
[26, 48, 112, 199, 39, 24, 25, 25]
[26, 48, 112, 199, 39, 24, 25, 25]
[26, 48, 112, 199, 39, 24, 25, 25]
[26, 48, 112, 199, 39, 24, 25, 25]
[26, 48, 112, 199, 39, 24, 25, 25]
[26, 48, 112, 199, 39, 24, 25, 25]
[26, 48, 112, 199, 39, 24, 25, 25]
[25, 49, 114, 203, 42, 29, 27, 22]
[25, 49, 114, 203, 42, 29, 27, 22]
[25, 49, 114, 203, 42, 29, 27, 22]
[25, 49, 114, 203, 42, 29, 27, 22]
[25, 49, 114, 203, 42, 29, 27, 22]
[25, 49, 114, 203, 42, 29, 27, 22]
[25, 49, 114, 203, 42, 29, 27, 22]
[25, 49, 114, 203, 42, 29, 27, 22]
[27, 52, 112, 176, 50, 30, 24, 24]
[27, 52, 112, 176, 50, 30, 24, 24]
[27, 52, 112, 176, 50, 30, 24, 24]
[27, 52, 112, 176, 50, 30, 24, 24]
[27, 52, 112, 176, 50, 30, 24, 24]
[27, 52, 112, 176, 50, 30, 24, 24]
[27, 52, 112, 176, 50, 30, 24, 24]
[27, 52, 112, 176, 50, 30, 24, 24]
[26, 53, 138, 131, 56, 31, 21, 24]
[26, 53, 138, 131, 56, 31, 21, 24]
[26, 53, 138, 131, 56, 31, 21, 24]
[26, 53, 138, 131, 56, 31, 21, 24]
[26, 53, 138, 131, 56, 31, 21, 24]
[26, 53, 138, 131, 56, 31, 21, 24]
[26, 53, 138, 131, 56, 31, 21, 24]
[26, 53, 138, 131, 56, 31, 21, 24]
[25, 56, 126, 125, 53, 31, 20, 25]
[25, 56, 126, 125, 53, 31, 20, 25]
[25, 56, 126, 125, 53, 31, 20, 25]
[25, 56, 126, 125, 53, 31, 20, 25]
[25, 56, 126, 125, 53, 31, 20, 25]
[25, 56, 126, 125, 53, 31, 20, 25]
[25, 56, 126, 125, 53, 31, 20, 25]
[25, 56, 126, 125, 53, 31, 20, 25]
[27, 55, 130, 154, 59, 35, 22, 25]
[27, 55, 130, 154, 59, 35, 22, 25]
[27, 55, 130, 154, 59, 35, 22, 25]
[27, 55, 130, 154, 59, 35, 22, 25]
[27, 55, 130, 154, 59, 35, 22, 25]
[27, 55, 130, 154, 59, 35, 22, 25]
[27, 55, 130, 154, 59, 35, 22, 25]
[27, 55, 130, 154, 59, 35, 22, 25]
[29, 56, 130, 141, 58, 32, 22, 28]
[29, 56, 130, 141, 58, 32, 22, 28]
[29, 56, 130, 141, 58, 32, 22, 28]
[29, 56, 130, 141, 58, 32, 22, 28]
[29, 56, 130, 141, 58, 32, 22, 28]
[29, 56, 130, 141, 58, 32, 22, 28]
[29, 56, 130, 141, 58, 32, 22, 28]
[29, 56, 130, 141, 58, 32, 22, 28]
[27, 51, 122, 159, 53, 30, 22, 24]
[27, 51, 122, 159, 53, 30, 22, 24]
[27, 51, 122, 159, 53, 30, 22, 24]
[27, 51, 122, 159, 53, 30, 22, 24]
[27, 51, 122, 159, 53, 30, 22, 24]
[27, 51, 122, 159, 53, 30, 22, 24]
[27, 51, 122, 159, 53, 30, 22, 24]
[27, 51, 122, 159, 53, 30, 22, 24]
[31, 59, 94, 152, 49, 30, 24, 26]
[31, 59, 94, 152, 49, 30, 24, 26]
[31, 59, 94, 152, 49, 30, 24, 26]
[31, 59, 94, 152, 49, 30, 24, 26]
[31, 59, 94, 152, 49, 30, 24, 26]
[31, 59, 94, 152, 49, 30, 24, 26]
[31, 59, 94, 152, 49, 30, 24, 26]
[31, 59, 94, 152, 49, 30, 24, 26]
[30, 54, 111, 212, 53, 32, 28, 27]
[30, 54, 111, 212, 53, 32, 28, 27]
[30, 54, 111, 212, 53, 32, 28, 27]
[30, 54, 111, 212, 53, 32, 28, 27]
[30, 54, 111, 212, 53, 32, 28, 27]
[30, 54, 111, 212, 53, 32, 28, 27]
[30, 54, 111, 212, 53, 32, 28, 27]
[30, 54, 111, 212, 53, 32, 28, 27]
[27, 53, 109, 185, 47, 29, 27, 24]
[27, 53, 109, 185, 47, 29, 27, 24]
[27, 53, 109, 185, 47, 29, 27, 24]
[27, 53, 109, 185, 47, 29, 27, 24]
[27, 53, 109, 185, 47, 29, 27, 24]
[27, 53, 109, 185, 47, 29, 27, 24]
[27, 53, 109, 185, 47, 29, 27, 24]
[27, 53, 109, 185, 47, 29, 27, 24]
[27, 52, 131, 207, 55, 29, 29, 25]
[27, 52, 131, 207, 55, 29, 29, 25]
[27, 52, 131, 207, 55, 29, 29, 25]
[27, 52, 131, 207, 55, 29, 29, 25]
[27, 52, 131, 207, 55, 29, 29, 25]
[27, 52, 131, 207, 55, 29, 29, 25]
[27, 52, 131, 207, 55, 29, 29, 25]
[27, 52, 131, 207, 55, 29, 29, 25]
[28, 55, 139, 198, 56, 32, 28, 24]
[28, 55, 139, 198, 56, 32, 28, 24]
[28, 55, 139, 198, 56, 32, 28, 24]
[28, 55, 139, 198, 56, 32, 28, 24]
[28, 55, 139, 198, 56, 32, 28, 24]
[28, 55, 139, 198, 56, 32, 28, 24]
[28, 55, 139, 198, 56, 32, 28, 24]
[28, 55, 139, 198, 56, 32, 28, 24]
[27, 47, 144, 217, 54, 30, 26, 22]
[27, 47, 144, 217, 54, 30, 26, 22]
[27, 47, 144, 217, 54, 30, 26, 22]
[27, 47, 144, 217, 54, 30, 26, 22]
[27, 47, 144, 217, 54, 30, 26, 22]
[27, 47, 144, 217, 54, 30, 26, 22]
[27, 47, 144, 217, 54, 30, 26, 22]
[27, 47, 144, 217, 54, 30, 26, 22]
[27, 47, 134, 189, 50, 28, 22, 22]
[27, 47, 134, 189, 50, 28, 22, 22]
[27, 47, 134, 189, 50, 28, 22, 22]
[27, 47, 134, 189, 50, 28, 22, 22]
[27, 47, 134, 189, 50, 28, 22, 22]
[27, 47, 134, 189, 50, 28, 22, 22]
[27, 47, 134, 189, 50, 28, 22, 22]
[27, 47, 134, 189, 50, 28, 22, 22]
[28, 48, 135, 199, 53, 28, 21, 23]
[28, 48, 135, 199, 53, 28, 21, 23]
[28, 48, 135, 199, 53, 28, 21, 23]
[28, 48, 135, 199, 53, 28, 21, 23]
[28, 48, 135, 199, 53, 28, 21, 23]
[28, 48, 135, 199, 53, 28, 21, 23]
[28, 48, 135, 199, 53, 28, 21, 23]
[28, 48, 135, 199, 53, 28, 21, 23]
[31, 46, 151, 178, 41, 27, 18, 20]
[31, 46, 151, 178, 41, 27, 18, 20]
[31, 46, 151, 178, 41, 27, 18, 20]
[31, 46, 151, 178, 41, 27, 18, 20]
[31, 46, 151, 178, 41, 27, 18, 20]
[31, 46, 151, 178, 41, 27, 18, 20]
[31, 46, 151, 178, 41, 27, 18, 20]
[31, 46, 151, 178, 41, 27, 18, 20]
[30, 49, 150, 186, 39, 26, 22, 21]
[30, 49, 150, 186, 39, 26, 22, 21]
[30, 49, 150, 186, 39, 26, 22, 21]
[30, 49, 150, 186, 39, 26, 22, 21]
[30, 49, 150, 186, 39, 26, 22, 21]
[30, 49, 150, 186, 39, 26, 22, 21]
[30, 49, 150, 186, 39, 26, 22, 21]
[30, 49, 150, 186, 39, 26, 22, 21]
[28, 45, 164, 183, 44, 24, 25, 22]
[28, 45, 164, 183, 44, 24, 25, 22]
[28, 45, 164, 183, 44, 24, 25, 22]
[28, 45, 164, 183, 44, 24, 25, 22]
[28, 45, 164, 183, 44, 24, 25, 22]
[28, 45, 164, 183, 44, 24, 25, 22]
[28, 45, 164, 183, 44, 24, 25, 22]
[28, 45, 164, 183, 44, 24, 25, 22]
[29, 47, 166, 153, 42, 24, 24, 19]
[29, 47, 166, 153, 42, 24, 24, 19]
[29, 47, 166, 153, 42, 24, 24, 19]
[29, 47, 166, 153, 42, 24, 24, 19]
[29, 47, 166, 153, 42, 24, 24, 19]
[29, 47, 166, 153, 42, 24, 24, 19]
[29, 47, 166, 153, 42, 24, 24, 19]
[29, 47, 166, 153, 42, 24, 24, 19]
[28, 45, 183, 181, 39, 26, 25, 19]
[28, 45, 183, 181, 39, 26, 25, 19]
[28, 45, 183, 181, 39, 26, 25, 19]
[28, 45, 183, 181, 39, 26, 25, 19]
[28, 45, 183, 181, 39, 26, 25, 19]
[28, 45, 183, 181, 39, 26, 25, 19]
[28, 45, 183, 181, 39, 26, 25, 19]
[28, 45, 183, 181, 39, 26, 25, 19]
[26, 45, 158, 185, 41, 28, 24, 18]
[26, 45, 158, 185, 41, 28, 24, 18]
[26, 45, 158, 185, 41, 28, 24, 18]
[26, 45, 158, 185, 41, 28, 24, 18]
[26, 45, 158, 185, 41, 28, 24, 18]
[26, 45, 158, 185, 41, 28, 24, 18]
[26, 45, 158, 185, 41, 28, 24, 18]
[26, 45, 158, 185, 41, 28, 24, 18]
[26, 37, 156, 184, 41, 28, 23, 23]
[26, 37, 156, 184, 41, 28, 23, 23]
[26, 37, 156, 184, 41, 28, 23, 23]
[26, 37, 156, 184, 41, 28, 23, 23]
[26, 37, 156, 184, 41, 28, 23, 23]
[26, 37, 156, 184, 41, 28, 23, 23]
[26, 37, 156, 184, 41, 28, 23, 23]
[26, 37, 156, 184, 41, 28, 23, 23]
[26, 44, 152, 171, 36, 29, 21, 24]
[26, 44, 152, 171, 36, 29, 21, 24]
[26, 44, 152, 171, 36, 29, 21, 24]
[26, 44, 152, 171, 36, 29, 21, 24]
[26, 44, 152, 171, 36, 29, 21, 24]
[26, 44, 152, 171, 36, 29, 21, 24]
[26, 44, 152, 171, 36, 29, 21, 24]
[26, 44, 152, 171, 36, 29, 21, 24]
[25, 42, 150, 168, 38, 29, 24, 25]
[25, 42, 150, 168, 38, 29, 24, 25]
[25, 42, 150, 168, 38, 29, 24, 25]
[25, 42, 150, 168, 38, 29, 24, 25]
[25, 42, 150, 168, 38, 29, 24, 25]
[25, 42, 150, 168, 38, 29, 24, 25]
[25, 42, 150, 168, 38, 29, 24, 25]
[25, 42, 150, 168, 38, 29, 24, 25]
[24, 42, 125, 124, 40, 26, 22, 25]
[24, 42, 125, 124, 40, 26, 22, 25]
[24, 42, 125, 124, 40, 26, 22, 25]
[24, 42, 125, 124, 40, 26, 22, 25]
[24, 42, 125, 124, 40, 26, 22, 25]
[24, 42, 125, 124, 40, 26, 22, 25]
[24, 42, 125, 124, 40, 26, 22, 25]
[24, 42, 125, 124, 40, 26, 22, 25]
[25, 46, 126, 154, 40, 28, 22, 27]
[25, 46, 126, 154, 40, 28, 22, 27]
[25, 46, 126, 154, 40, 28, 22, 27]
[25, 46, 126, 154, 40, 28, 22, 27]
[25, 46, 126, 154, 40, 28, 22, 27]
[25, 46, 126, 154, 40, 28, 22, 27]
[25, 46, 126, 154, 40, 28, 22, 27]
[25, 46, 126, 154, 40, 28, 22, 27]
[23, 51, 118, 153, 39, 25, 23, 24]
[23, 51, 118, 153, 39, 25, 23, 24]
[23, 51, 118, 153, 39, 25, 23, 24]
[23, 51, 118, 153, 39, 25, 23, 24]
[23, 51, 118, 153, 39, 25, 23, 24]
[23, 51, 118, 153, 39, 25, 23, 24]
[23, 51, 118, 153, 39, 25, 23, 24]
[23, 51, 118, 153, 39, 25, 23, 24]
[24, 45, 123, 158, 38, 28, 24, 24]
[24, 45, 123, 158, 38, 28, 24, 24]
[24, 45, 123, 158, 38, 28, 24, 24]
[24, 45, 123, 158, 38, 28, 24, 24]
[24, 45, 123, 158, 38, 28, 24, 24]
[24, 45, 123, 158, 38, 28, 24, 24]
[24, 45, 123, 158, 38, 28, 24, 24]
[24, 45, 123, 158, 38, 28, 24, 24]
[25, 48, 119, 162, 38, 29, 23, 23]
[25, 48, 119, 162, 38, 29, 23, 23]
[25, 48, 119, 162, 38, 29, 23, 23]
[25, 48, 119, 162, 38, 29, 23, 23]
[25, 48, 119, 162, 38, 29, 23, 23]
[25, 48, 119, 162, 38, 29, 23, 23]
[25, 48, 119, 162, 38, 29, 23, 23]
[25, 48, 119, 162, 38, 29, 23, 23]
[28, 51, 132, 177, 35, 30, 24, 22]
[28, 51, 132, 177, 35, 30, 24, 22]
[28, 51, 132, 177, 35, 30, 24, 22]
[28, 51, 132, 177, 35, 30, 24, 22]
[28, 51, 132, 177, 35, 30, 24, 22]
[28, 51, 132, 177, 35, 30, 24, 22]
[28, 51, 132, 177, 35, 30, 24, 22]
[28, 51, 132, 177, 35, 30, 24, 22]
[28, 49, 131, 159, 38, 28, 24, 19]
[28, 49, 131, 159, 38, 28, 24, 19]
[28, 49, 131, 159, 38, 28, 24, 19]
[28, 49, 131, 159, 38, 28, 24, 19]
[28, 49, 131, 159, 38, 28, 24, 19]
[28, 49, 131, 159, 38, 28, 24, 19]
[28, 49, 131, 159, 38, 28, 24, 19]
[28, 49, 131, 159, 38, 28, 24, 19]
[28, 55, 132, 147, 40, 30, 27, 19]
[28, 55, 132, 147, 40, 30, 27, 19]
[28, 55, 132, 147, 40, 30, 27, 19]
[28, 55, 132, 147, 40, 30, 27, 19]
[28, 55, 132, 147, 40, 30, 27, 19]
[28, 55, 132, 147, 40, 30, 27, 19]
[28, 55, 132, 147, 40, 30, 27, 19]
[28, 55, 132, 147, 40, 30, 27, 19]
[27, 54, 120, 135, 39, 27, 27, 18]
[27, 54, 120, 135, 39, 27, 27, 18]
[27, 54, 120, 135, 39, 27, 27, 18]
[27, 54, 120, 135, 39, 27, 27, 18]
[27, 54, 120, 135, 39, 27, 27, 18]
[27, 54, 120, 135, 39, 27, 27, 18]
[27, 54, 120, 135, 39, 27, 27, 18]
[27, 54, 120, 135, 39, 27, 27, 18]
[27, 53, 124, 135, 36, 28, 27, 21]
[27, 53, 124, 135, 36, 28, 27, 21]
[27, 53, 124, 135, 36, 28, 27, 21]
[27, 53, 124, 135, 36, 28, 27, 21]
[27, 53, 124, 135, 36, 28, 27, 21]
[27, 53, 124, 135, 36, 28, 27, 21]
[27, 53, 124, 135, 36, 28, 27, 21]
[27, 53, 124, 135, 36, 28, 27, 21]
[25, 54, 115, 137, 38, 27, 29, 22]
[25, 54, 115, 137, 38, 27, 29, 22]
[25, 54, 115, 137, 38, 27, 29, 22]
[25, 54, 115, 137, 38, 27, 29, 22]
[25, 54, 115, 137, 38, 27, 29, 22]
[25, 54, 115, 137, 38, 27, 29, 22]
[25, 54, 115, 137, 38, 27, 29, 22]
[25, 54, 115, 137, 38, 27, 29, 22]
[23, 54, 128, 155, 35, 29, 29, 25]
[23, 54, 128, 155, 35, 29, 29, 25]
[23, 54, 128, 155, 35, 29, 29, 25]
[23, 54, 128, 155, 35, 29, 29, 25]
[23, 54, 128, 155, 35, 29, 29, 25]
[23, 54, 128, 155, 35, 29, 29, 25]
[23, 54, 128, 155, 35, 29, 29, 25]
[23, 54, 128, 155, 35, 29, 29, 25]
[23, 47, 137, 161, 33, 28, 23, 26]
[23, 47, 137, 161, 33, 28, 23, 26]
[23, 47, 137, 161, 33, 28, 23, 26]
[23, 47, 137, 161, 33, 28, 23, 26]
[23, 47, 137, 161, 33, 28, 23, 26]
[23, 47, 137, 161, 33, 28, 23, 26]
[23, 47, 137, 161, 33, 28, 23, 26]
[23, 47, 137, 161, 33, 28, 23, 26]
[24, 47, 131, 166, 34, 28, 24, 26]
[24, 47, 131, 166, 34, 28, 24, 26]
[24, 47, 131, 166, 34, 28, 24, 26]
[24, 47, 131, 166, 34, 28, 24, 26]
[24, 47, 131, 166, 34, 28, 24, 26]
[24, 47, 131, 166, 34, 28, 24, 26]
[24, 47, 131, 166, 34, 28, 24, 26]
[24, 47, 131, 166, 34, 28, 24, 26]
[26, 47, 135, 161, 39, 27, 24, 23]
[26, 47, 135, 161, 39, 27, 24, 23]
[26, 47, 135, 161, 39, 27, 24, 23]
[26, 47, 135, 161, 39, 27, 24, 23]
[26, 47, 135, 161, 39, 27, 24, 23]
[26, 47, 135, 161, 39, 27, 24, 23]
[26, 47, 135, 161, 39, 27, 24, 23]
[26, 47, 135, 161, 39, 27, 24, 23]
[25, 40, 129, 193, 45, 27, 21, 23]
[25, 40, 129, 193, 45, 27, 21, 23]
[25, 40, 129, 193, 45, 27, 21, 23]
[25, 40, 129, 193, 45, 27, 21, 23]
[25, 40, 129, 193, 45, 27, 21, 23]
[25, 40, 129, 193, 45, 27, 21, 23]
[25, 40, 129, 193, 45, 27, 21, 23]
[25, 40, 129, 193, 45, 27, 21, 23]
[25, 39, 142, 177, 47, 22, 21, 20]
[25, 39, 142, 177, 47, 22, 21, 20]
[25, 39, 142, 177, 47, 22, 21, 20]
[25, 39, 142, 177, 47, 22, 21, 20]
[25, 39, 142, 177, 47, 22, 21, 20]
[25, 39, 142, 177, 47, 22, 21, 20]
[25, 39, 142, 177, 47, 22, 21, 20]
[25, 39, 142, 177, 47, 22, 21, 20]
[26, 38, 146, 196, 50, 24, 22, 19]
[26, 38, 146, 196, 50, 24, 22, 19]
[26, 38, 146, 196, 50, 24, 22, 19]
[26, 38, 146, 196, 50, 24, 22, 19]
[26, 38, 146, 196, 50, 24, 22, 19]
[26, 38, 146, 196, 50, 24, 22, 19]
[26, 38, 146, 196, 50, 24, 22, 19]
[26, 38, 146, 196, 50, 24, 22, 19]
[25, 41, 146, 227, 52, 21, 23, 18]
[25, 41, 146, 227, 52, 21, 23, 18]
[25, 41, 146, 227, 52, 21, 23, 18]
[25, 41, 146, 227, 52, 21, 23, 18]
[25, 41, 146, 227, 52, 21, 23, 18]
[25, 41, 146, 227, 52, 21, 23, 18]
[25, 41, 146, 227, 52, 21, 23, 18]
[25, 41, 146, 227, 52, 21, 23, 18]
[23, 38, 161, 247, 54, 22, 20, 20]
[23, 38, 161, 247, 54, 22, 20, 20]
[23, 38, 161, 247, 54, 22, 20, 20]
[23, 38, 161, 247, 54, 22, 20, 20]
[23, 38, 161, 247, 54, 22, 20, 20]
[23, 38, 161, 247, 54, 22, 20, 20]
[23, 38, 161, 247, 54, 22, 20, 20]
[23, 38, 161, 247, 54, 22, 20, 20]
[23, 41, 170, 228, 55, 24, 21, 19]
[23, 41, 170, 228, 55, 24, 21, 19]
[23, 41, 170, 228, 55, 24, 21, 19]
[23, 41, 170, 228, 55, 24, 21, 19]
[23, 41, 170, 228, 55, 24, 21, 19]
[23, 41, 170, 228, 55, 24, 21, 19]
[23, 41, 170, 228, 55, 24, 21, 19]
[23, 41, 170, 228, 55, 24, 21, 19]
[24, 39, 156, 224, 53, 26, 21, 19]
[24, 39, 156, 224, 53, 26, 21, 19]
[24, 39, 156, 224, 53, 26, 21, 19]
[24, 39, 156, 224, 53, 26, 21, 19]
[24, 39, 156, 224, 53, 26, 21, 19]
[24, 39, 156, 224, 53, 26, 21, 19]
[24, 39, 156, 224, 53, 26, 21, 19]
[24, 39, 156, 224, 53, 26, 21, 19]
[24, 39, 145, 205, 50, 23, 20, 19]
[24, 39, 145, 205, 50, 23, 20, 19]
[24, 39, 145, 205, 50, 23, 20, 19]
[24, 39, 145, 205, 50, 23, 20, 19]
[24, 39, 145, 205, 50, 23, 20, 19]
[24, 39, 145, 205, 50, 23, 20, 19]
[24, 39, 145, 205, 50, 23, 20, 19]
[24, 39, 145, 205, 50, 23, 20, 19]
[26, 39, 145, 171, 52, 26, 22, 22]
[26, 39, 145, 171, 52, 26, 22, 22]
[26, 39, 145, 171, 52, 26, 22, 22]
[26, 39, 145, 171, 52, 26, 22, 22]
[26, 39, 145, 171, 52, 26, 22, 22]
[26, 39, 145, 171, 52, 26, 22, 22]
[26, 39, 145, 171, 52, 26, 22, 22]
[26, 39, 145, 171, 52, 26, 22, 22]
[27, 42, 128, 185, 51, 30, 22, 22]
[27, 42, 128, 185, 51, 30, 22, 22]
[27, 42, 128, 185, 51, 30, 22, 22]
[27, 42, 128, 185, 51, 30, 22, 22]
[27, 42, 128, 185, 51, 30, 22, 22]
[27, 42, 128, 185, 51, 30, 22, 22]
[27, 42, 128, 185, 51, 30, 22, 22]
[27, 42, 128, 185, 51, 30, 22, 22]
[29, 45, 119, 176, 43, 28, 25, 23]
[29, 45, 119, 176, 43, 28, 25, 23]
[29, 45, 119, 176, 43, 28, 25, 23]
[29, 45, 119, 176, 43, 28, 25, 23]
[29, 45, 119, 176, 43, 28, 25, 23]
[29, 45, 119, 176, 43, 28, 25, 23]
[29, 45, 119, 176, 43, 28, 25, 23]
[29, 45, 119, 176, 43, 28, 25, 23]
[34, 59, 114, 172, 46, 28, 25, 23]
[34, 59, 114, 172, 46, 28, 25, 23]
[34, 59, 114, 172, 46, 28, 25, 23]
[34, 59, 114, 172, 46, 28, 25, 23]
[34, 59, 114, 172, 46, 28, 25, 23]
[34, 59, 114, 172, 46, 28, 25, 23]
[34, 59, 114, 172, 46, 28, 25, 23]
[34, 59, 114, 172, 46, 28, 25, 23]
[34, 61, 117, 221, 52, 29, 25, 23]
[34, 61, 117, 221, 52, 29, 25, 23]
[34, 61, 117, 221, 52, 29, 25, 23]
[34, 61, 117, 221, 52, 29, 25, 23]
[34, 61, 117, 221, 52, 29, 25, 23]
[34, 61, 117, 221, 52, 29, 25, 23]
[34, 61, 117, 221, 52, 29, 25, 23]
[34, 61, 117, 221, 52, 29, 25, 23]
[33, 59, 131, 222, 48, 28, 22, 19]
[33, 59, 131, 222, 48, 28, 22, 19]
[33, 59, 131, 222, 48, 28, 22, 19]
[33, 59, 131, 222, 48, 28, 22, 19]
[33, 59, 131, 222, 48, 28, 22, 19]
[33, 59, 131, 222, 48, 28, 22, 19]
[33, 59, 131, 222, 48, 28, 22, 19]
[33, 59, 131, 222, 48, 28, 22, 19]
[35, 62, 140, 200, 44, 22, 25, 20]
[35, 62, 140, 200, 44, 22, 25, 20]
[35, 62, 140, 200, 44, 22, 25, 20]
[35, 62, 140, 200, 44, 22, 25, 20]
[35, 62, 140, 200, 44, 22, 25, 20]
[35, 62, 140, 200, 44, 22, 25, 20]
[35, 62, 140, 200, 44, 22, 25, 20]
[35, 62, 140, 200, 44, 22, 25, 20]
[36, 59, 138, 194, 44, 23, 29, 20]
[36, 59, 138, 194, 44, 23, 29, 20]
[36, 59, 138, 194, 44, 23, 29, 20]
[36, 59, 138, 194, 44, 23, 29, 20]
[36, 59, 138, 194, 44, 23, 29, 20]
[36, 59, 138, 194, 44, 23, 29, 20]
[36, 59, 138, 194, 44, 23, 29, 20]
[36, 59, 138, 194, 44, 23, 29, 20]
[30, 46, 133, 203, 43, 25, 29, 21]
[30, 46, 133, 203, 43, 25, 29, 21]
[30, 46, 133, 203, 43, 25, 29, 21]
[30, 46, 133, 203, 43, 25, 29, 21]
[30, 46, 133, 203, 43, 25, 29, 21]
[30, 46, 133, 203, 43, 25, 29, 21]
[30, 46, 133, 203, 43, 25, 29, 21]
[30, 46, 133, 203, 43, 25, 29, 21]
[32, 48, 133, 164, 43, 24, 28, 21]
[32, 48, 133, 164, 43, 24, 28, 21]
[32, 48, 133, 164, 43, 24, 28, 21]
[32, 48, 133, 164, 43, 24, 28, 21]
[32, 48, 133, 164, 43, 24, 28, 21]
[32, 48, 133, 164, 43, 24, 28, 21]
[32, 48, 133, 164, 43, 24, 28, 21]
[32, 48, 133, 164, 43, 24, 28, 21]
[33, 48, 117, 176, 45, 24, 30, 22]
[33, 48, 117, 176, 45, 24, 30, 22]
[33, 48, 117, 176, 45, 24, 30, 22]
[33, 48, 117, 176, 45, 24, 30, 22]
[33, 48, 117, 176, 45, 24, 30, 22]
[33, 48, 117, 176, 45, 24, 30, 22]
[33, 48, 117, 176, 45, 24, 30, 22]
[33, 48, 117, 176, 45, 24, 30, 22]
[29, 43, 131, 181, 46, 27, 28, 22]
[29, 43, 131, 181, 46, 27, 28, 22]
[29, 43, 131, 181, 46, 27, 28, 22]
[29, 43, 131, 181, 46, 27, 28, 22]
[29, 43, 131, 181, 46, 27, 28, 22]
[29, 43, 131, 181, 46, 27, 28, 22]
[29, 43, 131, 181, 46, 27, 28, 22]
[29, 43, 131, 181, 46, 27, 28, 22]
[26, 44, 137, 194, 46, 28, 22, 22]
[26, 44, 137, 194, 46, 28, 22, 22]
[26, 44, 137, 194, 46, 28, 22, 22]
[26, 44, 137, 194, 46, 28, 22, 22]
[26, 44, 137, 194, 46, 28, 22, 22]
[26, 44, 137, 194, 46, 28, 22, 22]
[26, 44, 137, 194, 46, 28, 22, 22]
[26, 44, 137, 194, 46, 28, 22, 22]
[25, 49, 139, 234, 51, 27, 23, 23]
[25, 49, 139, 234, 51, 27, 23, 23]
[25, 49, 139, 234, 51, 27, 23, 23]
[25, 49, 139, 234, 51, 27, 23, 23]
[25, 49, 139, 234, 51, 27, 23, 23]
[25, 49, 139, 234, 51, 27, 23, 23]
[25, 49, 139, 234, 51, 27, 23, 23]
[25, 49, 139, 234, 51, 27, 23, 23]
[26, 46, 138, 225, 47, 26, 24, 23]
[26, 46, 138, 225, 47, 26, 24, 23]
[26, 46, 138, 225, 47, 26, 24, 23]
[26, 46, 138, 225, 47, 26, 24, 23]
[26, 46, 138, 225, 47, 26, 24, 23]
[26, 46, 138, 225, 47, 26, 24, 23]
[26, 46, 138, 225, 47, 26, 24, 23]
[26, 46, 138, 225, 47, 26, 24, 23]
[28, 46, 145, 215, 47, 28, 23, 23]
[28, 46, 145, 215, 47, 28, 23, 23]
[28, 46, 145, 215, 47, 28, 23, 23]
[28, 46, 145, 215, 47, 28, 23, 23]
[28, 46, 145, 215, 47, 28, 23, 23]
[28, 46, 145, 215, 47, 28, 23, 23]
[28, 46, 145, 215, 47, 28, 23, 23]
[28, 46, 145, 215, 47, 28, 23, 23]
[30, 48, 131, 203, 50, 27, 23, 22]
[30, 48, 131, 203, 50, 27, 23, 22]
[30, 48, 131, 203, 50, 27, 23, 22]
[30, 48, 131, 203, 50, 27, 23, 22]
[30, 48, 131, 203, 50, 27, 23, 22]
[30, 48, 131, 203, 50, 27, 23, 22]
[30, 48, 131, 203, 50, 27, 23, 22]
[30, 48, 131, 203, 50, 27, 23, 22]
[30, 46, 130, 190, 49, 27, 24, 22]
[30, 46, 130, 190, 49, 27, 24, 22]
[30, 46, 130, 190, 49, 27, 24, 22]
[30, 46, 130, 190, 49, 27, 24, 22]
[30, 46, 130, 190, 49, 27, 24, 22]
[30, 46, 130, 190, 49, 27, 24, 22]
[30, 46, 130, 190, 49, 27, 24, 22]
[30, 46, 130, 190, 49, 27, 24, 22]
[30, 44, 128, 171, 45, 26, 24, 21]
[30, 44, 128, 171, 45, 26, 24, 21]
[30, 44, 128, 171, 45, 26, 24, 21]
[30, 44, 128, 171, 45, 26, 24, 21]
[30, 44, 128, 171, 45, 26, 24, 21]
[30, 44, 128, 171, 45, 26, 24, 21]
[30, 44, 128, 171, 45, 26, 24, 21]
[30, 44, 128, 171, 45, 26, 24, 21]
[27, 41, 127, 178, 45, 29, 26, 21]
[27, 41, 127, 178, 45, 29, 26, 21]
[27, 41, 127, 178, 45, 29, 26, 21]
[27, 41, 127, 178, 45, 29, 26, 21]
[27, 41, 127, 178, 45, 29, 26, 21]
[27, 41, 127, 178, 45, 29, 26, 21]
[27, 41, 127, 178, 45, 29, 26, 21]
[27, 41, 127, 178, 45, 29, 26, 21]
[24, 40, 127, 178, 46, 26, 26, 24]
[24, 40, 127, 178, 46, 26, 26, 24]
[24, 40, 127, 178, 46, 26, 26, 24]
[24, 40, 127, 178, 46, 26, 26, 24]
[24, 40, 127, 178, 46, 26, 26, 24]
[24, 40, 127, 178, 46, 26, 26, 24]
[24, 40, 127, 178, 46, 26, 26, 24]
[24, 40, 127, 178, 46, 26, 26, 24]
[23, 40, 120, 198, 49, 25, 26, 23]
[23, 40, 120, 198, 49, 25, 26, 23]
[23, 40, 120, 198, 49, 25, 26, 23]
[23, 40, 120, 198, 49, 25, 26, 23]
[23, 40, 120, 198, 49, 25, 26, 23]
[23, 40, 120, 198, 49, 25, 26, 23]
[23, 40, 120, 198, 49, 25, 26, 23]
[23, 40, 120, 198, 49, 25, 26, 23]
[24, 42, 128, 204, 49, 25, 24, 23]
[24, 42, 128, 204, 49, 25, 24, 23]
[24, 42, 128, 204, 49, 25, 24, 23]
[24, 42, 128, 204, 49, 25, 24, 23]
[24, 42, 128, 204, 49, 25, 24, 23]
[24, 42, 128, 204, 49, 25, 24, 23]
[24, 42, 128, 204, 49, 25, 24, 23]
[24, 42, 128, 204, 49, 25, 24, 23]
[25, 41, 128, 204, 48, 25, 24, 23]
[25, 41, 128, 204, 48, 25, 24, 23]
[25, 41, 128, 204, 48, 25, 24, 23]
[25, 41, 128, 204, 48, 25, 24, 23]
[25, 41, 128, 204, 48, 25, 24, 23]
[25, 41, 128, 204, 48, 25, 24, 23]
[25, 41, 128, 204, 48, 25, 24, 23]
[25, 41, 128, 204, 48, 25, 24, 23]
[25, 43, 142, 209, 47, 25, 25, 22]
[25, 43, 142, 209, 47, 25, 25, 22]
[25, 43, 142, 209, 47, 25, 25, 22]
[25, 43, 142, 209, 47, 25, 25, 22]
[25, 43, 142, 209, 47, 25, 25, 22]
[25, 43, 142, 209, 47, 25, 25, 22]
[25, 43, 142, 209, 47, 25, 25, 22]
[25, 43, 142, 209, 47, 25, 25, 22]
[28, 45, 147, 202, 46, 26, 26, 20]
[28, 45, 147, 202, 46, 26, 26, 20]
[28, 45, 147, 202, 46, 26, 26, 20]
[28, 45, 147, 202, 46, 26, 26, 20]
[28, 45, 147, 202, 46, 26, 26, 20]
[28, 45, 147, 202, 46, 26, 26, 20]
[28, 45, 147, 202, 46, 26, 26, 20]
[28, 45, 147, 202, 46, 26, 26, 20]
[28, 49, 161, 180, 40, 25, 27, 21]
[28, 49, 161, 180, 40, 25, 27, 21]
[28, 49, 161, 180, 40, 25, 27, 21]
[28, 49, 161, 180, 40, 25, 27, 21]
[28, 49, 161, 180, 40, 25, 27, 21]
[28, 49, 161, 180, 40, 25, 27, 21]
[28, 49, 161, 180, 40, 25, 27, 21]
[28, 49, 161, 180, 40, 25, 27, 21]
[27, 51, 166, 217, 44, 25, 25, 21]
[27, 51, 166, 217, 44, 25, 25, 21]
[27, 51, 166, 217, 44, 25, 25, 21]
[27, 51, 166, 217, 44, 25, 25, 21]
[27, 51, 166, 217, 44, 25, 25, 21]
[27, 51, 166, 217, 44, 25, 25, 21]
[27, 51, 166, 217, 44, 25, 25, 21]
[27, 51, 166, 217, 44, 25, 25, 21]
[30, 56, 165, 254, 58, 29, 27, 22]
[30, 56, 165, 254, 58, 29, 27, 22]
[30, 56, 165, 254, 58, 29, 27, 22]
[30, 56, 165, 254, 58, 29, 27, 22]
[30, 56, 165, 254, 58, 29, 27, 22]
[30, 56, 165, 254, 58, 29, 27, 22]
[30, 56, 165, 254, 58, 29, 27, 22]
[30, 56, 165, 254, 58, 29, 27, 22]
[29, 56, 192, 280, 62, 28, 25, 23]
[29, 56, 192, 280, 62, 28, 25, 23]
[29, 56, 192, 280, 62, 28, 25, 23]
[29, 56, 192, 280, 62, 28, 25, 23]
[29, 56, 192, 280, 62, 28, 25, 23]
[29, 56, 192, 280, 62, 28, 25, 23]
[29, 56, 192, 280, 62, 28, 25, 23]
[29, 56, 192, 280, 62, 28, 25, 23]
[28, 56, 198, 281, 63, 27, 23, 22]
[28, 56, 198, 281, 63, 27, 23, 22]
[28, 56, 198, 281, 63, 27, 23, 22]
[28, 56, 198, 281, 63, 27, 23, 22]
[28, 56, 198, 281, 63, 27, 23, 22]
[28, 56, 198, 281, 63, 27, 23, 22]
[28, 56, 198, 281, 63, 27, 23, 22]
[28, 56, 198, 281, 63, 27, 23, 22]
[29, 54, 187, 281, 65, 32, 24, 22]
[29, 54, 187, 281, 65, 32, 24, 22]
[29, 54, 187, 281, 65, 32, 24, 22]
[29, 54, 187, 281, 65, 32, 24, 22]
[29, 54, 187, 281, 65, 32, 24, 22]
[29, 54, 187, 281, 65, 32, 24, 22]
[29, 54, 187, 281, 65, 32, 24, 22]
[29, 54, 187, 281, 65, 32, 24, 22]
[29, 50, 173, 279, 64, 34, 28, 23]
[29, 50, 173, 279, 64, 34, 28, 23]
[29, 50, 173, 279, 64, 34, 28, 23]
[29, 50, 173, 279, 64, 34, 28, 23]
[29, 50, 173, 279, 64, 34, 28, 23]
[29, 50, 173, 279, 64, 34, 28, 23]
[29, 50, 173, 279, 64, 34, 28, 23]
[29, 50, 173, 279, 64, 34, 28, 23]
[27, 44, 183, 226, 52, 31, 25, 20]
[27, 44, 183, 226, 52, 31, 25, 20]
[27, 44, 183, 226, 52, 31, 25, 20]
[27, 44, 183, 226, 52, 31, 25, 20]
[27, 44, 183, 226, 52, 31, 25, 20]
[27, 44, 183, 226, 52, 31, 25, 20]
[27, 44, 183, 226, 52, 31, 25, 20]
[27, 44, 183, 226, 52, 31, 25, 20]
[28, 43, 145, 177, 46, 30, 28, 20]
[28, 43, 145, 177, 46, 30, 28, 20]
[28, 43, 145, 177, 46, 30, 28, 20]
[28, 43, 145, 177, 46, 30, 28, 20]
[28, 43, 145, 177, 46, 30, 28, 20]
[28, 43, 145, 177, 46, 30, 28, 20]
[28, 43, 145, 177, 46, 30, 28, 20]
[28, 43, 145, 177, 46, 30, 28, 20]
[27, 43, 113, 184, 42, 30, 28, 23]
[27, 43, 113, 184, 42, 30, 28, 23]
[27, 43, 113, 184, 42, 30, 28, 23]
[27, 43, 113, 184, 42, 30, 28, 23]
[27, 43, 113, 184, 42, 30, 28, 23]
[27, 43, 113, 184, 42, 30, 28, 23]
[27, 43, 113, 184, 42, 30, 28, 23]
[27, 43, 113, 184, 42, 30, 28, 23]
[25, 40, 114, 184, 41, 26, 31, 22]
[25, 40, 114, 184, 41, 26, 31, 22]
[25, 40, 114, 184, 41, 26, 31, 22]
[25, 40, 114, 184, 41, 26, 31, 22]
[25, 40, 114, 184, 41, 26, 31, 22]
[25, 40, 114, 184, 41, 26, 31, 22]
[25, 40, 114, 184, 41, 26, 31, 22]
[25, 40, 114, 184, 41, 26, 31, 22]
[25, 42, 151, 162, 36, 25, 29, 22]
[25, 42, 151, 162, 36, 25, 29, 22]
[25, 42, 151, 162, 36, 25, 29, 22]
[25, 42, 151, 162, 36, 25, 29, 22]
[25, 42, 151, 162, 36, 25, 29, 22]
[25, 42, 151, 162, 36, 25, 29, 22]
[25, 42, 151, 162, 36, 25, 29, 22]
[25, 42, 151, 162, 36, 25, 29, 22]
[27, 47, 143, 146, 34, 25, 29, 21]
[27, 47, 143, 146, 34, 25, 29, 21]
[27, 47, 143, 146, 34, 25, 29, 21]
[27, 47, 143, 146, 34, 25, 29, 21]
[27, 47, 143, 146, 34, 25, 29, 21]
[27, 47, 143, 146, 34, 25, 29, 21]
[27, 47, 143, 146, 34, 25, 29, 21]
[27, 47, 143, 146, 34, 25, 29, 21]
[26, 49, 140, 158, 33, 24, 25, 21]
[26, 49, 140, 158, 33, 24, 25, 21]
[26, 49, 140, 158, 33, 24, 25, 21]
[26, 49, 140, 158, 33, 24, 25, 21]
[26, 49, 140, 158, 33, 24, 25, 21]
[26, 49, 140, 158, 33, 24, 25, 21]
[26, 49, 140, 158, 33, 24, 25, 21]
[26, 49, 140, 158, 33, 24, 25, 21]
[28, 53, 147, 154, 36, 25, 27, 20]
[28, 53, 147, 154, 36, 25, 27, 20]
[28, 53, 147, 154, 36, 25, 27, 20]
[28, 53, 147, 154, 36, 25, 27, 20]
[28, 53, 147, 154, 36, 25, 27, 20]
[28, 53, 147, 154, 36, 25, 27, 20]
[28, 53, 147, 154, 36, 25, 27, 20]
[28, 53, 147, 154, 36, 25, 27, 20]
[29, 53, 167, 194, 35, 27, 23, 19]
[29, 53, 167, 194, 35, 27, 23, 19]
[29, 53, 167, 194, 35, 27, 23, 19]
[29, 53, 167, 194, 35, 27, 23, 19]
[29, 53, 167, 194, 35, 27, 23, 19]
[29, 53, 167, 194, 35, 27, 23, 19]
[29, 53, 167, 194, 35, 27, 23, 19]
[29, 53, 167, 194, 35, 27, 23, 19]
[28, 58, 144, 167, 35, 26, 26, 20]
[28, 58, 144, 167, 35, 26, 26, 20]
[28, 58, 144, 167, 35, 26, 26, 20]
[28, 58, 144, 167, 35, 26, 26, 20]
[28, 58, 144, 167, 35, 26, 26, 20]
[28, 58, 144, 167, 35, 26, 26, 20]
[28, 58, 144, 167, 35, 26, 26, 20]
[28, 58, 144, 167, 35, 26, 26, 20]
[24, 58, 144, 181, 44, 24, 26, 20]
[24, 58, 144, 181, 44, 24, 26, 20]
[24, 58, 144, 181, 44, 24, 26, 20]
[24, 58, 144, 181, 44, 24, 26, 20]
[24, 58, 144, 181, 44, 24, 26, 20]
[24, 58, 144, 181, 44, 24, 26, 20]
[24, 58, 144, 181, 44, 24, 26, 20]
[24, 58, 144, 181, 44, 24, 26, 20]
[27, 61, 147, 181, 44, 26, 25, 22]
[27, 61, 147, 181, 44, 26, 25, 22]
[27, 61, 147, 181, 44, 26, 25, 22]
[27, 61, 147, 181, 44, 26, 25, 22]
[27, 61, 147, 181, 44, 26, 25, 22]
[27, 61, 147, 181, 44, 26, 25, 22]
[27, 61, 147, 181, 44, 26, 25, 22]
[27, 61, 147, 181, 44, 26, 25, 22]
[24, 56, 152, 176, 44, 30, 24, 22]
[24, 56, 152, 176, 44, 30, 24, 22]
[24, 56, 152, 176, 44, 30, 24, 22]
[24, 56, 152, 176, 44, 30, 24, 22]
[24, 56, 152, 176, 44, 30, 24, 22]
[24, 56, 152, 176, 44, 30, 24, 22]
[24, 56, 152, 176, 44, 30, 24, 22]
[24, 56, 152, 176, 44, 30, 24, 22]
[26, 58, 136, 172, 45, 28, 24, 23]
[26, 58, 136, 172, 45, 28, 24, 23]
[26, 58, 136, 172, 45, 28, 24, 23]
[26, 58, 136, 172, 45, 28, 24, 23]
[26, 58, 136, 172, 45, 28, 24, 23]
[26, 58, 136, 172, 45, 28, 24, 23]
[26, 58, 136, 172, 45, 28, 24, 23]
[26, 58, 136, 172, 45, 28, 24, 23]
[26, 52, 139, 194, 46, 27, 26, 22]
[26, 52, 139, 194, 46, 27, 26, 22]
[26, 52, 139, 194, 46, 27, 26, 22]
[26, 52, 139, 194, 46, 27, 26, 22]
[26, 52, 139, 194, 46, 27, 26, 22]
[26, 52, 139, 194, 46, 27, 26, 22]
[26, 52, 139, 194, 46, 27, 26, 22]
[26, 52, 139, 194, 46, 27, 26, 22]
[30, 53, 134, 185, 39, 27, 26, 24]
[30, 53, 134, 185, 39, 27, 26, 24]
[30, 53, 134, 185, 39, 27, 26, 24]
[30, 53, 134, 185, 39, 27, 26, 24]
[30, 53, 134, 185, 39, 27, 26, 24]
[30, 53, 134, 185, 39, 27, 26, 24]
[30, 53, 134, 185, 39, 27, 26, 24]
[30, 53, 134, 185, 39, 27, 26, 24]
[26, 47, 136, 180, 39, 29, 27, 24]
[26, 47, 136, 180, 39, 29, 27, 24]
[26, 47, 136, 180, 39, 29, 27, 24]
[26, 47, 136, 180, 39, 29, 27, 24]
[26, 47, 136, 180, 39, 29, 27, 24]
[26, 47, 136, 180, 39, 29, 27, 24]
[26, 47, 136, 180, 39, 29, 27, 24]
[26, 47, 136, 180, 39, 29, 27, 24]
[30, 54, 128, 188, 42, 25, 27, 23]
[30, 54, 128, 188, 42, 25, 27, 23]
[30, 54, 128, 188, 42, 25, 27, 23]
[30, 54, 128, 188, 42, 25, 27, 23]
[30, 54, 128, 188, 42, 25, 27, 23]
[30, 54, 128, 188, 42, 25, 27, 23]
[30, 54, 128, 188, 42, 25, 27, 23]
[30, 54, 128, 188, 42, 25, 27, 23]
[29, 50, 118, 161, 41, 24, 26, 24]
[29, 50, 118, 161, 41, 24, 26, 24]
[29, 50, 118, 161, 41, 24, 26, 24]
[29, 50, 118, 161, 41, 24, 26, 24]
[29, 50, 118, 161, 41, 24, 26, 24]
[29, 50, 118, 161, 41, 24, 26, 24]
[29, 50, 118, 161, 41, 24, 26, 24]
[29, 50, 118, 161, 41, 24, 26, 24]
[32, 53, 128, 141, 41, 25, 20, 25]
[32, 53, 128, 141, 41, 25, 20, 25]
[32, 53, 128, 141, 41, 25, 20, 25]
[32, 53, 128, 141, 41, 25, 20, 25]
[32, 53, 128, 141, 41, 25, 20, 25]
[32, 53, 128, 141, 41, 25, 20, 25]
[32, 53, 128, 141, 41, 25, 20, 25]
[32, 53, 128, 141, 41, 25, 20, 25]
[29, 46, 126, 181, 40, 26, 25, 23]
[29, 46, 126, 181, 40, 26, 25, 23]
[29, 46, 126, 181, 40, 26, 25, 23]
[29, 46, 126, 181, 40, 26, 25, 23]
[29, 46, 126, 181, 40, 26, 25, 23]
[29, 46, 126, 181, 40, 26, 25, 23]
[29, 46, 126, 181, 40, 26, 25, 23]
[29, 46, 126, 181, 40, 26, 25, 23]
[35, 59, 132, 182, 42, 24, 28, 27]
[35, 59, 132, 182, 42, 24, 28, 27]
[35, 59, 132, 182, 42, 24, 28, 27]
[35, 59, 132, 182, 42, 24, 28, 27]
[35, 59, 132, 182, 42, 24, 28, 27]
[35, 59, 132, 182, 42, 24, 28, 27]
[35, 59, 132, 182, 42, 24, 28, 27]
[35, 59, 132, 182, 42, 24, 28, 27]
[32, 54, 139, 180, 41, 26, 27, 28]
[32, 54, 139, 180, 41, 26, 27, 28]
[32, 54, 139, 180, 41, 26, 27, 28]
[32, 54, 139, 180, 41, 26, 27, 28]
[32, 54, 139, 180, 41, 26, 27, 28]
[32, 54, 139, 180, 41, 26, 27, 28]
[32, 54, 139, 180, 41, 26, 27, 28]
[32, 54, 139, 180, 41, 26, 27, 28]
[36, 61, 177, 197, 46, 29, 29, 28]
[36, 61, 177, 197, 46, 29, 29, 28]
[36, 61, 177, 197, 46, 29, 29, 28]
[36, 61, 177, 197, 46, 29, 29, 28]
[36, 61, 177, 197, 46, 29, 29, 28]
[36, 61, 177, 197, 46, 29, 29, 28]
[36, 61, 177, 197, 46, 29, 29, 28]
[36, 61, 177, 197, 46, 29, 29, 28]
[35, 61, 190, 238, 55, 30, 31, 29]
[35, 61, 190, 238, 55, 30, 31, 29]
[35, 61, 190, 238, 55, 30, 31, 29]
[35, 61, 190, 238, 55, 30, 31, 29]
[35, 61, 190, 238, 55, 30, 31, 29]
[35, 61, 190, 238, 55, 30, 31, 29]
[35, 61, 190, 238, 55, 30, 31, 29]
[35, 61, 190, 238, 55, 30, 31, 29]
[36, 63, 205, 217, 56, 29, 32, 29]
[36, 63, 205, 217, 56, 29, 32, 29]
[36, 63, 205, 217, 56, 29, 32, 29]
[36, 63, 205, 217, 56, 29, 32, 29]
[36, 63, 205, 217, 56, 29, 32, 29]
[36, 63, 205, 217, 56, 29, 32, 29]
[36, 63, 205, 217, 56, 29, 32, 29]
[36, 63, 205, 217, 56, 29, 32, 29]
[31, 50, 211, 234, 56, 29, 27, 26]
[31, 50, 211, 234, 56, 29, 27, 26]
[31, 50, 211, 234, 56, 29, 27, 26]
[31, 50, 211, 234, 56, 29, 27, 26]
[31, 50, 211, 234, 56, 29, 27, 26]
[31, 50, 211, 234, 56, 29, 27, 26]
[31, 50, 211, 234, 56, 29, 27, 26]
[31, 50, 211, 234, 56, 29, 27, 26]
[34, 52, 205, 233, 54, 31, 28, 26]
[34, 52, 205, 233, 54, 31, 28, 26]
[34, 52, 205, 233, 54, 31, 28, 26]
[34, 52, 205, 233, 54, 31, 28, 26]
[34, 52, 205, 233, 54, 31, 28, 26]
[34, 52, 205, 233, 54, 31, 28, 26]
[34, 52, 205, 233, 54, 31, 28, 26]
[34, 52, 205, 233, 54, 31, 28, 26]
[31, 47, 175, 223, 49, 28, 27, 24]
[31, 47, 175, 223, 49, 28, 27, 24]
[31, 47, 175, 223, 49, 28, 27, 24]
[31, 47, 175, 223, 49, 28, 27, 24]
[31, 47, 175, 223, 49, 28, 27, 24]
[31, 47, 175, 223, 49, 28, 27, 24]
[31, 47, 175, 223, 49, 28, 27, 24]
[31, 47, 175, 223, 49, 28, 27, 24]
[31, 47, 143, 230, 40, 27, 25, 24]
[31, 47, 143, 230, 40, 27, 25, 24]
[31, 47, 143, 230, 40, 27, 25, 24]
[31, 47, 143, 230, 40, 27, 25, 24]
[31, 47, 143, 230, 40, 27, 25, 24]
[31, 47, 143, 230, 40, 27, 25, 24]
[31, 47, 143, 230, 40, 27, 25, 24]
[31, 47, 143, 230, 40, 27, 25, 24]
[30, 46, 122, 223, 38, 28, 26, 24]
[30, 46, 122, 223, 38, 28, 26, 24]
[30, 46, 122, 223, 38, 28, 26, 24]
[30, 46, 122, 223, 38, 28, 26, 24]
[30, 46, 122, 223, 38, 28, 26, 24]
[30, 46, 122, 223, 38, 28, 26, 24]
[30, 46, 122, 223, 38, 28, 26, 24]
[30, 46, 122, 223, 38, 28, 26, 24]
[32, 55, 107, 205, 39, 25, 26, 21]
[32, 55, 107, 205, 39, 25, 26, 21]
[32, 55, 107, 205, 39, 25, 26, 21]
[32, 55, 107, 205, 39, 25, 26, 21]
[32, 55, 107, 205, 39, 25, 26, 21]
[32, 55, 107, 205, 39, 25, 26, 21]
[32, 55, 107, 205, 39, 25, 26, 21]
[32, 55, 107, 205, 39, 25, 26, 21]
[30, 52, 118, 227, 43, 25, 26, 19]
[30, 52, 118, 227, 43, 25, 26, 19]
[30, 52, 118, 227, 43, 25, 26, 19]
[30, 52, 118, 227, 43, 25, 26, 19]
[30, 52, 118, 227, 43, 25, 26, 19]
[30, 52, 118, 227, 43, 25, 26, 19]
[30, 52, 118, 227, 43, 25, 26, 19]
[30, 52, 118, 227, 43, 25, 26, 19]
[30, 50, 121, 237, 42, 25, 28, 19]
[30, 50, 121, 237, 42, 25, 28, 19]
[30, 50, 121, 237, 42, 25, 28, 19]
[30, 50, 121, 237, 42, 25, 28, 19]
[30, 50, 121, 237, 42, 25, 28, 19]
[30, 50, 121, 237, 42, 25, 28, 19]
[30, 50, 121, 237, 42, 25, 28, 19]
[30, 50, 121, 237, 42, 25, 28, 19]
[30, 50, 124, 184, 40, 24, 29, 16]
[30, 50, 124, 184, 40, 24, 29, 16]
[30, 50, 124, 184, 40, 24, 29, 16]
[30, 50, 124, 184, 40, 24, 29, 16]
[30, 50, 124, 184, 40, 24, 29, 16]
[30, 50, 124, 184, 40, 24, 29, 16]
[30, 50, 124, 184, 40, 24, 29, 16]
[30, 50, 124, 184, 40, 24, 29, 16]
[28, 48, 133, 189, 40, 23, 25, 17]
[28, 48, 133, 189, 40, 23, 25, 17]
[28, 48, 133, 189, 40, 23, 25, 17]
[28, 48, 133, 189, 40, 23, 25, 17]
[28, 48, 133, 189, 40, 23, 25, 17]
[28, 48, 133, 189, 40, 23, 25, 17]
[28, 48, 133, 189, 40, 23, 25, 17]
[28, 48, 133, 189, 40, 23, 25, 17]
[28, 41, 121, 187, 41, 26, 25, 20]
[28, 41, 121, 187, 41, 26, 25, 20]
[28, 41, 121, 187, 41, 26, 25, 20]
[28, 41, 121, 187, 41, 26, 25, 20]
[28, 41, 121, 187, 41, 26, 25, 20]
[28, 41, 121, 187, 41, 26, 25, 20]
[28, 41, 121, 187, 41, 26, 25, 20]
[28, 41, 121, 187, 41, 26, 25, 20]
[29, 45, 123, 170, 42, 26, 24, 21]
[29, 45, 123, 170, 42, 26, 24, 21]
[29, 45, 123, 170, 42, 26, 24, 21]
[29, 45, 123, 170, 42, 26, 24, 21]
[29, 45, 123, 170, 42, 26, 24, 21]
[29, 45, 123, 170, 42, 26, 24, 21]
[29, 45, 123, 170, 42, 26, 24, 21]
[29, 45, 123, 170, 42, 26, 24, 21]
[30, 50, 122, 144, 44, 28, 21, 22]
[30, 50, 122, 144, 44, 28, 21, 22]
[30, 50, 122, 144, 44, 28, 21, 22]
[30, 50, 122, 144, 44, 28, 21, 22]
[30, 50, 122, 144, 44, 28, 21, 22]
[30, 50, 122, 144, 44, 28, 21, 22]
[30, 50, 122, 144, 44, 28, 21, 22]
[30, 50, 122, 144, 44, 28, 21, 22]
[32, 48, 125, 160, 46, 30, 20, 25]
[32, 48, 125, 160, 46, 30, 20, 25]
[32, 48, 125, 160, 46, 30, 20, 25]
[32, 48, 125, 160, 46, 30, 20, 25]
[32, 48, 125, 160, 46, 30, 20, 25]
[32, 48, 125, 160, 46, 30, 20, 25]
[32, 48, 125, 160, 46, 30, 20, 25]
[32, 48, 125, 160, 46, 30, 20, 25]
[33, 49, 109, 149, 48, 30, 22, 25]
[33, 49, 109, 149, 48, 30, 22, 25]
[33, 49, 109, 149, 48, 30, 22, 25]
[33, 49, 109, 149, 48, 30, 22, 25]
[33, 49, 109, 149, 48, 30, 22, 25]
[33, 49, 109, 149, 48, 30, 22, 25]
[33, 49, 109, 149, 48, 30, 22, 25]
[33, 49, 109, 149, 48, 30, 22, 25]
[31, 59, 126, 165, 46, 29, 24, 23]
[31, 59, 126, 165, 46, 29, 24, 23]
[31, 59, 126, 165, 46, 29, 24, 23]
[31, 59, 126, 165, 46, 29, 24, 23]
[31, 59, 126, 165, 46, 29, 24, 23]
[31, 59, 126, 165, 46, 29, 24, 23]
[31, 59, 126, 165, 46, 29, 24, 23]
[31, 59, 126, 165, 46, 29, 24, 23]
[29, 56, 123, 154, 40, 24, 23, 22]
[29, 56, 123, 154, 40, 24, 23, 22]
[29, 56, 123, 154, 40, 24, 23, 22]
[29, 56, 123, 154, 40, 24, 23, 22]
[29, 56, 123, 154, 40, 24, 23, 22]
[29, 56, 123, 154, 40, 24, 23, 22]
[29, 56, 123, 154, 40, 24, 23, 22]
[29, 56, 123, 154, 40, 24, 23, 22]
[27, 49, 118, 150, 39, 26, 25, 27]
[27, 49, 118, 150, 39, 26, 25, 27]
[27, 49, 118, 150, 39, 26, 25, 27]
[27, 49, 118, 150, 39, 26, 25, 27]
[27, 49, 118, 150, 39, 26, 25, 27]
[27, 49, 118, 150, 39, 26, 25, 27]
[27, 49, 118, 150, 39, 26, 25, 27]
[27, 49, 118, 150, 39, 26, 25, 27]
[27, 60, 123, 150, 46, 25, 23, 23]
[27, 60, 123, 150, 46, 25, 23, 23]
[27, 60, 123, 150, 46, 25, 23, 23]
[27, 60, 123, 150, 46, 25, 23, 23]
[27, 60, 123, 150, 46, 25, 23, 23]
[27, 60, 123, 150, 46, 25, 23, 23]
[27, 60, 123, 150, 46, 25, 23, 23]
[27, 60, 123, 150, 46, 25, 23, 23]
[27, 60, 165, 150, 44, 27, 22, 23]
[27, 60, 165, 150, 44, 27, 22, 23]
[27, 60, 165, 150, 44, 27, 22, 23]
[27, 60, 165, 150, 44, 27, 22, 23]
[27, 60, 165, 150, 44, 27, 22, 23]
[27, 60, 165, 150, 44, 27, 22, 23]
[27, 60, 165, 150, 44, 27, 22, 23]
[27, 60, 165, 150, 44, 27, 22, 23]
[25, 57, 163, 137, 46, 26, 21, 26]
[25, 57, 163, 137, 46, 26, 21, 26]
[25, 57, 163, 137, 46, 26, 21, 26]
[25, 57, 163, 137, 46, 26, 21, 26]
[25, 57, 163, 137, 46, 26, 21, 26]
[25, 57, 163, 137, 46, 26, 21, 26]
[25, 57, 163, 137, 46, 26, 21, 26]
[25, 57, 163, 137, 46, 26, 21, 26]
[26, 58, 155, 133, 47, 27, 22, 26]
[26, 58, 155, 133, 47, 27, 22, 26]
[26, 58, 155, 133, 47, 27, 22, 26]
[26, 58, 155, 133, 47, 27, 22, 26]
[26, 58, 155, 133, 47, 27, 22, 26]
[26, 58, 155, 133, 47, 27, 22, 26]
[26, 58, 155, 133, 47, 27, 22, 26]
[26, 58, 155, 133, 47, 27, 22, 26]
[25, 62, 196, 168, 59, 24, 22, 27]
[25, 62, 196, 168, 59, 24, 22, 27]
[25, 62, 196, 168, 59, 24, 22, 27]
[25, 62, 196, 168, 59, 24, 22, 27]
[25, 62, 196, 168, 59, 24, 22, 27]
[25, 62, 196, 168, 59, 24, 22, 27]
[25, 62, 196, 168, 59, 24, 22, 27]
[25, 62, 196, 168, 59, 24, 22, 27]
[23, 55, 193, 195, 69, 26, 25, 27]
[23, 55, 193, 195, 69, 26, 25, 27]
[23, 55, 193, 195, 69, 26, 25, 27]
[23, 55, 193, 195, 69, 26, 25, 27]
[23, 55, 193, 195, 69, 26, 25, 27]
[23, 55, 193, 195, 69, 26, 25, 27]
[23, 55, 193, 195, 69, 26, 25, 27]
[23, 55, 193, 195, 69, 26, 25, 27]
[25, 58, 161, 197, 71, 24, 24, 26]
[25, 58, 161, 197, 71, 24, 24, 26]
[25, 58, 161, 197, 71, 24, 24, 26]
[25, 58, 161, 197, 71, 24, 24, 26]
[25, 58, 161, 197, 71, 24, 24, 26]
[25, 58, 161, 197, 71, 24, 24, 26]
[25, 58, 161, 197, 71, 24, 24, 26]
[25, 58, 161, 197, 71, 24, 24, 26]
[27, 54, 187, 218, 70, 27, 26, 26]
[27, 54, 187, 218, 70, 27, 26, 26]
[27, 54, 187, 218, 70, 27, 26, 26]
[27, 54, 187, 218, 70, 27, 26, 26]
[27, 54, 187, 218, 70, 27, 26, 26]
[27, 54, 187, 218, 70, 27, 26, 26]
[27, 54, 187, 218, 70, 27, 26, 26]
[27, 54, 187, 218, 70, 27, 26, 26]
[28, 55, 198, 223, 71, 27, 26, 28]
[28, 55, 198, 223, 71, 27, 26, 28]
[28, 55, 198, 223, 71, 27, 26, 28]
[28, 55, 198, 223, 71, 27, 26, 28]
[28, 55, 198, 223, 71, 27, 26, 28]
[28, 55, 198, 223, 71, 27, 26, 28]
[28, 55, 198, 223, 71, 27, 26, 28]
[28, 55, 198, 223, 71, 27, 26, 28]
[29, 53, 174, 202, 63, 25, 23, 24]
[29, 53, 174, 202, 63, 25, 23, 24]
[29, 53, 174, 202, 63, 25, 23, 24]
[29, 53, 174, 202, 63, 25, 23, 24]
[29, 53, 174, 202, 63, 25, 23, 24]
[29, 53, 174, 202, 63, 25, 23, 24]
[29, 53, 174, 202, 63, 25, 23, 24]
[29, 53, 174, 202, 63, 25, 23, 24]
[29, 48, 177, 157, 43, 22, 20, 24]
[29, 48, 177, 157, 43, 22, 20, 24]
[29, 48, 177, 157, 43, 22, 20, 24]
[29, 48, 177, 157, 43, 22, 20, 24]
[29, 48, 177, 157, 43, 22, 20, 24]
[29, 48, 177, 157, 43, 22, 20, 24]
[29, 48, 177, 157, 43, 22, 20, 24]
[29, 48, 177, 157, 43, 22, 20, 24]
[30, 46, 183, 155, 45, 28, 24, 27]
[30, 46, 183, 155, 45, 28, 24, 27]
[30, 46, 183, 155, 45, 28, 24, 27]
[30, 46, 183, 155, 45, 28, 24, 27]
[30, 46, 183, 155, 45, 28, 24, 27]
[30, 46, 183, 155, 45, 28, 24, 27]
[30, 46, 183, 155, 45, 28, 24, 27]
[30, 46, 183, 155, 45, 28, 24, 27]
[28, 41, 144, 158, 54, 25, 22, 27]
[28, 41, 144, 158, 54, 25, 22, 27]
[28, 41, 144, 158, 54, 25, 22, 27]
[28, 41, 144, 158, 54, 25, 22, 27]
[28, 41, 144, 158, 54, 25, 22, 27]
[28, 41, 144, 158, 54, 25, 22, 27]
[28, 41, 144, 158, 54, 25, 22, 27]
[28, 41, 144, 158, 54, 25, 22, 27]
[29, 39, 150, 168, 51, 26, 21, 24]
[29, 39, 150, 168, 51, 26, 21, 24]
[29, 39, 150, 168, 51, 26, 21, 24]
[29, 39, 150, 168, 51, 26, 21, 24]
[29, 39, 150, 168, 51, 26, 21, 24]
[29, 39, 150, 168, 51, 26, 21, 24]
[29, 39, 150, 168, 51, 26, 21, 24]
[29, 39, 150, 168, 51, 26, 21, 24]
[30, 48, 134, 168, 52, 29, 25, 23]
[30, 48, 134, 168, 52, 29, 25, 23]
[30, 48, 134, 168, 52, 29, 25, 23]
[30, 48, 134, 168, 52, 29, 25, 23]
[30, 48, 134, 168, 52, 29, 25, 23]
[30, 48, 134, 168, 52, 29, 25, 23]
[30, 48, 134, 168, 52, 29, 25, 23]
[30, 48, 134, 168, 52, 29, 25, 23]
[29, 50, 130, 168, 58, 29, 25, 22]
[29, 50, 130, 168, 58, 29, 25, 22]
[29, 50, 130, 168, 58, 29, 25, 22]
[29, 50, 130, 168, 58, 29, 25, 22]
[29, 50, 130, 168, 58, 29, 25, 22]
[29, 50, 130, 168, 58, 29, 25, 22]
[29, 50, 130, 168, 58, 29, 25, 22]
[29, 50, 130, 168, 58, 29, 25, 22]
[28, 51, 122, 170, 58, 23, 20, 19]
[28, 51, 122, 170, 58, 23, 20, 19]
[28, 51, 122, 170, 58, 23, 20, 19]
[28, 51, 122, 170, 58, 23, 20, 19]
[28, 51, 122, 170, 58, 23, 20, 19]
[28, 51, 122, 170, 58, 23, 20, 19]
[28, 51, 122, 170, 58, 23, 20, 19]
[28, 51, 122, 170, 58, 23, 20, 19]
[29, 52, 125, 134, 48, 24, 23, 18]
[29, 52, 125, 134, 48, 24, 23, 18]
[29, 52, 125, 134, 48, 24, 23, 18]
[29, 52, 125, 134, 48, 24, 23, 18]
[29, 52, 125, 134, 48, 24, 23, 18]
[29, 52, 125, 134, 48, 24, 23, 18]
[29, 52, 125, 134, 48, 24, 23, 18]
[29, 52, 125, 134, 48, 24, 23, 18]
[27, 54, 111, 110, 50, 26, 26, 17]
[27, 54, 111, 110, 50, 26, 26, 17]
[27, 54, 111, 110, 50, 26, 26, 17]
[27, 54, 111, 110, 50, 26, 26, 17]
[27, 54, 111, 110, 50, 26, 26, 17]
[27, 54, 111, 110, 50, 26, 26, 17]
[27, 54, 111, 110, 50, 26, 26, 17]
[27, 54, 111, 110, 50, 26, 26, 17]
[25, 47, 109, 105, 46, 23, 25, 21]
[25, 47, 109, 105, 46, 23, 25, 21]
[25, 47, 109, 105, 46, 23, 25, 21]
[25, 47, 109, 105, 46, 23, 25, 21]
[25, 47, 109, 105, 46, 23, 25, 21]
[25, 47, 109, 105, 46, 23, 25, 21]
[25, 47, 109, 105, 46, 23, 25, 21]
[25, 47, 109, 105, 46, 23, 25, 21]
[27, 46, 98, 97, 39, 25, 26, 22]
[27, 46, 98, 97, 39, 25, 26, 22]
[27, 46, 98, 97, 39, 25, 26, 22]
[27, 46, 98, 97, 39, 25, 26, 22]
[27, 46, 98, 97, 39, 25, 26, 22]
[27, 46, 98, 97, 39, 25, 26, 22]
[27, 46, 98, 97, 39, 25, 26, 22]
[27, 46, 98, 97, 39, 25, 26, 22]
[27, 43, 102, 94, 39, 24, 28, 24]
[27, 43, 102, 94, 39, 24, 28, 24]
[27, 43, 102, 94, 39, 24, 28, 24]
[27, 43, 102, 94, 39, 24, 28, 24]
[27, 43, 102, 94, 39, 24, 28, 24]
[27, 43, 102, 94, 39, 24, 28, 24]
[27, 43, 102, 94, 39, 24, 28, 24]
[27, 43, 102, 94, 39, 24, 28, 24]
[27, 43, 128, 102, 38, 28, 27, 24]
[27, 43, 128, 102, 38, 28, 27, 24]
[27, 43, 128, 102, 38, 28, 27, 24]
[27, 43, 128, 102, 38, 28, 27, 24]
[27, 43, 128, 102, 38, 28, 27, 24]
[27, 43, 128, 102, 38, 28, 27, 24]
[27, 43, 128, 102, 38, 28, 27, 24]
[27, 43, 128, 102, 38, 28, 27, 24]
[29, 43, 133, 124, 38, 27, 24, 24]
[29, 43, 133, 124, 38, 27, 24, 24]
[29, 43, 133, 124, 38, 27, 24, 24]
[29, 43, 133, 124, 38, 27, 24, 24]
[29, 43, 133, 124, 38, 27, 24, 24]
[29, 43, 133, 124, 38, 27, 24, 24]
[29, 43, 133, 124, 38, 27, 24, 24]
[29, 43, 133, 124, 38, 27, 24, 24]
[26, 43, 140, 144, 43, 29, 24, 25]
[26, 43, 140, 144, 43, 29, 24, 25]
[26, 43, 140, 144, 43, 29, 24, 25]
[26, 43, 140, 144, 43, 29, 24, 25]
[26, 43, 140, 144, 43, 29, 24, 25]
[26, 43, 140, 144, 43, 29, 24, 25]
[26, 43, 140, 144, 43, 29, 24, 25]
[26, 43, 140, 144, 43, 29, 24, 25]
[26, 48, 141, 152, 46, 29, 23, 28]
[26, 48, 141, 152, 46, 29, 23, 28]
[26, 48, 141, 152, 46, 29, 23, 28]
[26, 48, 141, 152, 46, 29, 23, 28]
[26, 48, 141, 152, 46, 29, 23, 28]
[26, 48, 141, 152, 46, 29, 23, 28]
[26, 48, 141, 152, 46, 29, 23, 28]
[26, 48, 141, 152, 46, 29, 23, 28]
[26, 52, 148, 159, 42, 30, 21, 28]
[26, 52, 148, 159, 42, 30, 21, 28]
[26, 52, 148, 159, 42, 30, 21, 28]
[26, 52, 148, 159, 42, 30, 21, 28]
[26, 52, 148, 159, 42, 30, 21, 28]
[26, 52, 148, 159, 42, 30, 21, 28]
[26, 52, 148, 159, 42, 30, 21, 28]
[26, 52, 148, 159, 42, 30, 21, 28]
[24, 49, 143, 160, 44, 26, 22, 28]
[24, 49, 143, 160, 44, 26, 22, 28]
[24, 49, 143, 160, 44, 26, 22, 28]
[24, 49, 143, 160, 44, 26, 22, 28]
[24, 49, 143, 160, 44, 26, 22, 28]
[24, 49, 143, 160, 44, 26, 22, 28]
[24, 49, 143, 160, 44, 26, 22, 28]
[24, 49, 143, 160, 44, 26, 22, 28]
[24, 46, 154, 156, 43, 24, 25, 29]
[24, 46, 154, 156, 43, 24, 25, 29]
[24, 46, 154, 156, 43, 24, 25, 29]
[24, 46, 154, 156, 43, 24, 25, 29]
[24, 46, 154, 156, 43, 24, 25, 29]
[24, 46, 154, 156, 43, 24, 25, 29]
[24, 46, 154, 156, 43, 24, 25, 29]
[24, 46, 154, 156, 43, 24, 25, 29]
[29, 50, 148, 165, 41, 21, 24, 26]
[29, 50, 148, 165, 41, 21, 24, 26]
[29, 50, 148, 165, 41, 21, 24, 26]
[29, 50, 148, 165, 41, 21, 24, 26]
[29, 50, 148, 165, 41, 21, 24, 26]
[29, 50, 148, 165, 41, 21, 24, 26]
[29, 50, 148, 165, 41, 21, 24, 26]
[29, 50, 148, 165, 41, 21, 24, 26]
[29, 46, 148, 160, 39, 20, 24, 21]
[29, 46, 148, 160, 39, 20, 24, 21]
[29, 46, 148, 160, 39, 20, 24, 21]
[29, 46, 148, 160, 39, 20, 24, 21]
[29, 46, 148, 160, 39, 20, 24, 21]
[29, 46, 148, 160, 39, 20, 24, 21]
[29, 46, 148, 160, 39, 20, 24, 21]
[29, 46, 148, 160, 39, 20, 24, 21]
[29, 45, 143, 160, 38, 19, 24, 21]
[29, 45, 143, 160, 38, 19, 24, 21]
[29, 45, 143, 160, 38, 19, 24, 21]
[29, 45, 143, 160, 38, 19, 24, 21]
[29, 45, 143, 160, 38, 19, 24, 21]
[29, 45, 143, 160, 38, 19, 24, 21]
[29, 45, 143, 160, 38, 19, 24, 21]
[29, 45, 143, 160, 38, 19, 24, 21]
[31, 50, 127, 174, 43, 24, 24, 22]
[31, 50, 127, 174, 43, 24, 24, 22]
[31, 50, 127, 174, 43, 24, 24, 22]
[31, 50, 127, 174, 43, 24, 24, 22]
[31, 50, 127, 174, 43, 24, 24, 22]
[31, 50, 127, 174, 43, 24, 24, 22]
[31, 50, 127, 174, 43, 24, 24, 22]
[31, 50, 127, 174, 43, 24, 24, 22]
[31, 50, 105, 160, 43, 24, 25, 23]
[31, 50, 105, 160, 43, 24, 25, 23]
[31, 50, 105, 160, 43, 24, 25, 23]
[31, 50, 105, 160, 43, 24, 25, 23]
[31, 50, 105, 160, 43, 24, 25, 23]
[31, 50, 105, 160, 43, 24, 25, 23]
[31, 50, 105, 160, 43, 24, 25, 23]
[31, 50, 105, 160, 43, 24, 25, 23]
[27, 48, 104, 127, 38, 26, 25, 22]
[27, 48, 104, 127, 38, 26, 25, 22]
[27, 48, 104, 127, 38, 26, 25, 22]
[27, 48, 104, 127, 38, 26, 25, 22]
[27, 48, 104, 127, 38, 26, 25, 22]
[27, 48, 104, 127, 38, 26, 25, 22]
[27, 48, 104, 127, 38, 26, 25, 22]
[27, 48, 104, 127, 38, 26, 25, 22]
[28, 51, 102, 127, 39, 26, 27, 22]
[28, 51, 102, 127, 39, 26, 27, 22]
[28, 51, 102, 127, 39, 26, 27, 22]
[28, 51, 102, 127, 39, 26, 27, 22]
[28, 51, 102, 127, 39, 26, 27, 22]
[28, 51, 102, 127, 39, 26, 27, 22]
[28, 51, 102, 127, 39, 26, 27, 22]
[28, 51, 102, 127, 39, 26, 27, 22]
[26, 50, 102, 135, 42, 28, 27, 24]
[26, 50, 102, 135, 42, 28, 27, 24]
[26, 50, 102, 135, 42, 28, 27, 24]
[26, 50, 102, 135, 42, 28, 27, 24]
[26, 50, 102, 135, 42, 28, 27, 24]
[26, 50, 102, 135, 42, 28, 27, 24]
[26, 50, 102, 135, 42, 28, 27, 24]
[26, 50, 102, 135, 42, 28, 27, 24]
[28, 55, 112, 135, 68, 27, 27, 24]
[28, 55, 112, 135, 68, 27, 27, 24]
[28, 55, 112, 135, 68, 27, 27, 24]
[28, 55, 112, 135, 68, 27, 27, 24]
[28, 55, 112, 135, 68, 27, 27, 24]
[28, 55, 112, 135, 68, 27, 27, 24]
[28, 55, 112, 135, 68, 27, 27, 24]
[28, 55, 112, 135, 68, 27, 27, 24]
[29, 54, 118, 147, 72, 28, 23, 25]
[29, 54, 118, 147, 72, 28, 23, 25]
[29, 54, 118, 147, 72, 28, 23, 25]
[29, 54, 118, 147, 72, 28, 23, 25]
[29, 54, 118, 147, 72, 28, 23, 25]
[29, 54, 118, 147, 72, 28, 23, 25]
[29, 54, 118, 147, 72, 28, 23, 25]
[29, 54, 118, 147, 72, 28, 23, 25]
[30, 51, 127, 172, 73, 28, 25, 25]
[30, 51, 127, 172, 73, 28, 25, 25]
[30, 51, 127, 172, 73, 28, 25, 25]
[30, 51, 127, 172, 73, 28, 25, 25]
[30, 51, 127, 172, 73, 28, 25, 25]
[30, 51, 127, 172, 73, 28, 25, 25]
[30, 51, 127, 172, 73, 28, 25, 25]
[30, 51, 127, 172, 73, 28, 25, 25]
[32, 54, 143, 174, 73, 30, 23, 25]
[32, 54, 143, 174, 73, 30, 23, 25]
[32, 54, 143, 174, 73, 30, 23, 25]
[32, 54, 143, 174, 73, 30, 23, 25]
[32, 54, 143, 174, 73, 30, 23, 25]
[32, 54, 143, 174, 73, 30, 23, 25]
[32, 54, 143, 174, 73, 30, 23, 25]
[32, 54, 143, 174, 73, 30, 23, 25]
[33, 55, 167, 176, 83, 29, 25, 24]
[33, 55, 167, 176, 83, 29, 25, 24]
[33, 55, 167, 176, 83, 29, 25, 24]
[33, 55, 167, 176, 83, 29, 25, 24]
[33, 55, 167, 176, 83, 29, 25, 24]
[33, 55, 167, 176, 83, 29, 25, 24]
[33, 55, 167, 176, 83, 29, 25, 24]
[33, 55, 167, 176, 83, 29, 25, 24]
[29, 51, 166, 172, 68, 28, 23, 22]
[29, 51, 166, 172, 68, 28, 23, 22]
[29, 51, 166, 172, 68, 28, 23, 22]
[29, 51, 166, 172, 68, 28, 23, 22]
[29, 51, 166, 172, 68, 28, 23, 22]
[29, 51, 166, 172, 68, 28, 23, 22]
[29, 51, 166, 172, 68, 28, 23, 22]
[29, 51, 166, 172, 68, 28, 23, 22]
[27, 57, 173, 173, 66, 29, 23, 20]
[27, 57, 173, 173, 66, 29, 23, 20]
[27, 57, 173, 173, 66, 29, 23, 20]
[27, 57, 173, 173, 66, 29, 23, 20]
[27, 57, 173, 173, 66, 29, 23, 20]
[27, 57, 173, 173, 66, 29, 23, 20]
[27, 57, 173, 173, 66, 29, 23, 20]
[27, 57, 173, 173, 66, 29, 23, 20]
[27, 58, 168, 150, 65, 27, 23, 21]
[27, 58, 168, 150, 65, 27, 23, 21]
[27, 58, 168, 150, 65, 27, 23, 21]
[27, 58, 168, 150, 65, 27, 23, 21]
[27, 58, 168, 150, 65, 27, 23, 21]
[27, 58, 168, 150, 65, 27, 23, 21]
[27, 58, 168, 150, 65, 27, 23, 21]
[27, 58, 168, 150, 65, 27, 23, 21]
[26, 53, 156, 168, 67, 26, 21, 20]
[26, 53, 156, 168, 67, 26, 21, 20]
[26, 53, 156, 168, 67, 26, 21, 20]
[26, 53, 156, 168, 67, 26, 21, 20]
[26, 53, 156, 168, 67, 26, 21, 20]
[26, 53, 156, 168, 67, 26, 21, 20]
[26, 53, 156, 168, 67, 26, 21, 20]
[26, 53, 156, 168, 67, 26, 21, 20]
[31, 51, 124, 156, 55, 30, 23, 23]
[31, 51, 124, 156, 55, 30, 23, 23]
[31, 51, 124, 156, 55, 30, 23, 23]
[31, 51, 124, 156, 55, 30, 23, 23]
[31, 51, 124, 156, 55, 30, 23, 23]
[31, 51, 124, 156, 55, 30, 23, 23]
[31, 51, 124, 156, 55, 30, 23, 23]
[31, 51, 124, 156, 55, 30, 23, 23]
[31, 43, 128, 153, 46, 29, 23, 22]
[31, 43, 128, 153, 46, 29, 23, 22]
[31, 43, 128, 153, 46, 29, 23, 22]
[31, 43, 128, 153, 46, 29, 23, 22]
[31, 43, 128, 153, 46, 29, 23, 22]
[31, 43, 128, 153, 46, 29, 23, 22]
[31, 43, 128, 153, 46, 29, 23, 22]
[31, 43, 128, 153, 46, 29, 23, 22]
[32, 39, 108, 145, 47, 30, 25, 22]
[32, 39, 108, 145, 47, 30, 25, 22]
[32, 39, 108, 145, 47, 30, 25, 22]
[32, 39, 108, 145, 47, 30, 25, 22]
[32, 39, 108, 145, 47, 30, 25, 22]
[32, 39, 108, 145, 47, 30, 25, 22]
[32, 39, 108, 145, 47, 30, 25, 22]
[32, 39, 108, 145, 47, 30, 25, 22]
[35, 38, 117, 165, 49, 31, 24, 24]
[35, 38, 117, 165, 49, 31, 24, 24]
[35, 38, 117, 165, 49, 31, 24, 24]
[35, 38, 117, 165, 49, 31, 24, 24]
[35, 38, 117, 165, 49, 31, 24, 24]
[35, 38, 117, 165, 49, 31, 24, 24]
[35, 38, 117, 165, 49, 31, 24, 24]
[35, 38, 117, 165, 49, 31, 24, 24]
[35, 41, 120, 164, 52, 34, 29, 24]
[35, 41, 120, 164, 52, 34, 29, 24]
[35, 41, 120, 164, 52, 34, 29, 24]
[35, 41, 120, 164, 52, 34, 29, 24]
[35, 41, 120, 164, 52, 34, 29, 24]
[35, 41, 120, 164, 52, 34, 29, 24]
[35, 41, 120, 164, 52, 34, 29, 24]
[35, 41, 120, 164, 52, 34, 29, 24]
[31, 42, 126, 164, 53, 33, 24, 22]
[31, 42, 126, 164, 53, 33, 24, 22]
[31, 42, 126, 164, 53, 33, 24, 22]
[31, 42, 126, 164, 53, 33, 24, 22]
[31, 42, 126, 164, 53, 33, 24, 22]
[31, 42, 126, 164, 53, 33, 24, 22]
[31, 42, 126, 164, 53, 33, 24, 22]
[31, 42, 126, 164, 53, 33, 24, 22]
[35, 47, 141, 180, 55, 33, 28, 26]
[35, 47, 141, 180, 55, 33, 28, 26]
[35, 47, 141, 180, 55, 33, 28, 26]
[35, 47, 141, 180, 55, 33, 28, 26]
[35, 47, 141, 180, 55, 33, 28, 26]
[35, 47, 141, 180, 55, 33, 28, 26]
[35, 47, 141, 180, 55, 33, 28, 26]
[35, 47, 141, 180, 55, 33, 28, 26]
[35, 50, 138, 186, 57, 31, 30, 26]
[35, 50, 138, 186, 57, 31, 30, 26]
[35, 50, 138, 186, 57, 31, 30, 26]
[35, 50, 138, 186, 57, 31, 30, 26]
[35, 50, 138, 186, 57, 31, 30, 26]
[35, 50, 138, 186, 57, 31, 30, 26]
[35, 50, 138, 186, 57, 31, 30, 26]
[35, 50, 138, 186, 57, 31, 30, 26]
[34, 50, 151, 202, 65, 31, 30, 26]
[34, 50, 151, 202, 65, 31, 30, 26]
[34, 50, 151, 202, 65, 31, 30, 26]
[34, 50, 151, 202, 65, 31, 30, 26]
[34, 50, 151, 202, 65, 31, 30, 26]
[34, 50, 151, 202, 65, 31, 30, 26]
[34, 50, 151, 202, 65, 31, 30, 26]
[34, 50, 151, 202, 65, 31, 30, 26]
[33, 47, 153, 197, 62, 29, 27, 26]
[33, 47, 153, 197, 62, 29, 27, 26]
[33, 47, 153, 197, 62, 29, 27, 26]
[33, 47, 153, 197, 62, 29, 27, 26]
[33, 47, 153, 197, 62, 29, 27, 26]
[33, 47, 153, 197, 62, 29, 27, 26]
[33, 47, 153, 197, 62, 29, 27, 26]
[33, 47, 153, 197, 62, 29, 27, 26]
[36, 52, 163, 208, 60, 27, 28, 26]
[36, 52, 163, 208, 60, 27, 28, 26]
[36, 52, 163, 208, 60, 27, 28, 26]
[36, 52, 163, 208, 60, 27, 28, 26]
[36, 52, 163, 208, 60, 27, 28, 26]
[36, 52, 163, 208, 60, 27, 28, 26]
[36, 52, 163, 208, 60, 27, 28, 26]
[36, 52, 163, 208, 60, 27, 28, 26]
[32, 53, 146, 221, 65, 28, 27, 22]
[32, 53, 146, 221, 65, 28, 27, 22]
[32, 53, 146, 221, 65, 28, 27, 22]
[32, 53, 146, 221, 65, 28, 27, 22]
[32, 53, 146, 221, 65, 28, 27, 22]
[32, 53, 146, 221, 65, 28, 27, 22]
[32, 53, 146, 221, 65, 28, 27, 22]
[32, 53, 146, 221, 65, 28, 27, 22]
[43, 55, 162, 224, 66, 27, 25, 23]
[43, 55, 162, 224, 66, 27, 25, 23]
[43, 55, 162, 224, 66, 27, 25, 23]
[43, 55, 162, 224, 66, 27, 25, 23]
[43, 55, 162, 224, 66, 27, 25, 23]
[43, 55, 162, 224, 66, 27, 25, 23]
[43, 55, 162, 224, 66, 27, 25, 23]
[43, 55, 162, 224, 66, 27, 25, 23]
[49, 62, 148, 207, 63, 28, 27, 23]
[49, 62, 148, 207, 63, 28, 27, 23]
[49, 62, 148, 207, 63, 28, 27, 23]
[49, 62, 148, 207, 63, 28, 27, 23]
[49, 62, 148, 207, 63, 28, 27, 23]
[49, 62, 148, 207, 63, 28, 27, 23]
[49, 62, 148, 207, 63, 28, 27, 23]
[49, 62, 148, 207, 63, 28, 27, 23]
[55, 67, 174, 198, 64, 26, 29, 23]
[55, 67, 174, 198, 64, 26, 29, 23]
[55, 67, 174, 198, 64, 26, 29, 23]
[55, 67, 174, 198, 64, 26, 29, 23]
[55, 67, 174, 198, 64, 26, 29, 23]
[55, 67, 174, 198, 64, 26, 29, 23]
[55, 67, 174, 198, 64, 26, 29, 23]
[55, 67, 174, 198, 64, 26, 29, 23]
[53, 65, 171, 194, 66, 26, 28, 22]
[53, 65, 171, 194, 66, 26, 28, 22]
[53, 65, 171, 194, 66, 26, 28, 22]
[53, 65, 171, 194, 66, 26, 28, 22]
[53, 65, 171, 194, 66, 26, 28, 22]
[53, 65, 171, 194, 66, 26, 28, 22]
[53, 65, 171, 194, 66, 26, 28, 22]
[53, 65, 171, 194, 66, 26, 28, 22]
[54, 75, 173, 222, 65, 27, 30, 25]
[54, 75, 173, 222, 65, 27, 30, 25]
[54, 75, 173, 222, 65, 27, 30, 25]
[54, 75, 173, 222, 65, 27, 30, 25]
[54, 75, 173, 222, 65, 27, 30, 25]
[54, 75, 173, 222, 65, 27, 30, 25]
[54, 75, 173, 222, 65, 27, 30, 25]
[54, 75, 173, 222, 65, 27, 30, 25]
[52, 76, 169, 229, 70, 31, 29, 25]
[52, 76, 169, 229, 70, 31, 29, 25]
[52, 76, 169, 229, 70, 31, 29, 25]
[52, 76, 169, 229, 70, 31, 29, 25]
[52, 76, 169, 229, 70, 31, 29, 25]
[52, 76, 169, 229, 70, 31, 29, 25]
[52, 76, 169, 229, 70, 31, 29, 25]
[52, 76, 169, 229, 70, 31, 29, 25]
[48, 70, 166, 231, 74, 33, 28, 29]
[48, 70, 166, 231, 74, 33, 28, 29]
[48, 70, 166, 231, 74, 33, 28, 29]
[48, 70, 166, 231, 74, 33, 28, 29]
[48, 70, 166, 231, 74, 33, 28, 29]
[48, 70, 166, 231, 74, 33, 28, 29]
[48, 70, 166, 231, 74, 33, 28, 29]
[48, 70, 166, 231, 74, 33, 28, 29]
[43, 71, 159, 242, 73, 35, 27, 30]
[43, 71, 159, 242, 73, 35, 27, 30]
[43, 71, 159, 242, 73, 35, 27, 30]
[43, 71, 159, 242, 73, 35, 27, 30]
[43, 71, 159, 242, 73, 35, 27, 30]
[43, 71, 159, 242, 73, 35, 27, 30]
[43, 71, 159, 242, 73, 35, 27, 30]
[43, 71, 159, 242, 73, 35, 27, 30]
[43, 75, 148, 237, 72, 32, 28, 31]
[43, 75, 148, 237, 72, 32, 28, 31]
[43, 75, 148, 237, 72, 32, 28, 31]
[43, 75, 148, 237, 72, 32, 28, 31]
[43, 75, 148, 237, 72, 32, 28, 31]
[43, 75, 148, 237, 72, 32, 28, 31]
[43, 75, 148, 237, 72, 32, 28, 31]
[43, 75, 148, 237, 72, 32, 28, 31]
[50, 72, 147, 216, 69, 31, 26, 29]
[50, 72, 147, 216, 69, 31, 26, 29]
[50, 72, 147, 216, 69, 31, 26, 29]
[50, 72, 147, 216, 69, 31, 26, 29]
[50, 72, 147, 216, 69, 31, 26, 29]
[50, 72, 147, 216, 69, 31, 26, 29]
[50, 72, 147, 216, 69, 31, 26, 29]
[50, 72, 147, 216, 69, 31, 26, 29]
[52, 74, 152, 225, 62, 30, 26, 29]
[52, 74, 152, 225, 62, 30, 26, 29]
[52, 74, 152, 225, 62, 30, 26, 29]
[52, 74, 152, 225, 62, 30, 26, 29]
[52, 74, 152, 225, 62, 30, 26, 29]
[52, 74, 152, 225, 62, 30, 26, 29]
[52, 74, 152, 225, 62, 30, 26, 29]
[52, 74, 152, 225, 62, 30, 26, 29]
[71, 79, 156, 219, 54, 28, 28, 27]
[71, 79, 156, 219, 54, 28, 28, 27]
[71, 79, 156, 219, 54, 28, 28, 27]
[71, 79, 156, 219, 54, 28, 28, 27]
[71, 79, 156, 219, 54, 28, 28, 27]
[71, 79, 156, 219, 54, 28, 28, 27]
[71, 79, 156, 219, 54, 28, 28, 27]
[71, 79, 156, 219, 54, 28, 28, 27]
[72, 75, 139, 210, 58, 30, 27, 28]
[72, 75, 139, 210, 58, 30, 27, 28]
[72, 75, 139, 210, 58, 30, 27, 28]
[72, 75, 139, 210, 58, 30, 27, 28]
[72, 75, 139, 210, 58, 30, 27, 28]
[72, 75, 139, 210, 58, 30, 27, 28]
[72, 75, 139, 210, 58, 30, 27, 28]
[72, 75, 139, 210, 58, 30, 27, 28]
[75, 75, 143, 211, 57, 32, 26, 28]
[75, 75, 143, 211, 57, 32, 26, 28]
[75, 75, 143, 211, 57, 32, 26, 28]
[75, 75, 143, 211, 57, 32, 26, 28]
[75, 75, 143, 211, 57, 32, 26, 28]
[75, 75, 143, 211, 57, 32, 26, 28]
[75, 75, 143, 211, 57, 32, 26, 28]
[75, 75, 143, 211, 57, 32, 26, 28]
[77, 84, 135, 172, 61, 32, 26, 29]
[77, 84, 135, 172, 61, 32, 26, 29]
[77, 84, 135, 172, 61, 32, 26, 29]
[77, 84, 135, 172, 61, 32, 26, 29]
[77, 84, 135, 172, 61, 32, 26, 29]
[77, 84, 135, 172, 61, 32, 26, 29]
[77, 84, 135, 172, 61, 32, 26, 29]
[77, 84, 135, 172, 61, 32, 26, 29]
[81, 83, 114, 136, 61, 31, 28, 32]
[81, 83, 114, 136, 61, 31, 28, 32]
[81, 83, 114, 136, 61, 31, 28, 32]
[81, 83, 114, 136, 61, 31, 28, 32]
[81, 83, 114, 136, 61, 31, 28, 32]
[81, 83, 114, 136, 61, 31, 28, 32]
[81, 83, 114, 136, 61, 31, 28, 32]
[81, 83, 114, 136, 61, 31, 28, 32]
[91, 107, 114, 136, 60, 34, 25, 33]
[91, 107, 114, 136, 60, 34, 25, 33]
[91, 107, 114, 136, 60, 34, 25, 33]
[91, 107, 114, 136, 60, 34, 25, 33]
[91, 107, 114, 136, 60, 34, 25, 33]
[91, 107, 114, 136, 60, 34, 25, 33]
[91, 107, 114, 136, 60, 34, 25, 33]
[91, 107, 114, 136, 60, 34, 25, 33]
[94, 107, 106, 158, 62, 35, 25, 33]
[94, 107, 106, 158, 62, 35, 25, 33]
[94, 107, 106, 158, 62, 35, 25, 33]
[94, 107, 106, 158, 62, 35, 25, 33]
[94, 107, 106, 158, 62, 35, 25, 33]
[94, 107, 106, 158, 62, 35, 25, 33]
[94, 107, 106, 158, 62, 35, 25, 33]
[94, 107, 106, 158, 62, 35, 25, 33]
[97, 140, 127, 166, 67, 33, 26, 32]
[97, 140, 127, 166, 67, 33, 26, 32]
[97, 140, 127, 166, 67, 33, 26, 32]
[97, 140, 127, 166, 67, 33, 26, 32]
[97, 140, 127, 166, 67, 33, 26, 32]
[97, 140, 127, 166, 67, 33, 26, 32]
[97, 140, 127, 166, 67, 33, 26, 32]
[97, 140, 127, 166, 67, 33, 26, 32]
[92, 137, 127, 177, 65, 30, 27, 31]
[92, 137, 127, 177, 65, 30, 27, 31]
[92, 137, 127, 177, 65, 30, 27, 31]
[92, 137, 127, 177, 65, 30, 27, 31]
[92, 137, 127, 177, 65, 30, 27, 31]
[92, 137, 127, 177, 65, 30, 27, 31]
[92, 137, 127, 177, 65, 30, 27, 31]
[92, 137, 127, 177, 65, 30, 27, 31]
[88, 137, 125, 223, 63, 30, 24, 29]
[88, 137, 125, 223, 63, 30, 24, 29]
[88, 137, 125, 223, 63, 30, 24, 29]
[88, 137, 125, 223, 63, 30, 24, 29]
[88, 137, 125, 223, 63, 30, 24, 29]
[88, 137, 125, 223, 63, 30, 24, 29]
[88, 137, 125, 223, 63, 30, 24, 29]
[88, 137, 125, 223, 63, 30, 24, 29]
[87, 127, 120, 238, 64, 28, 24, 30]
[87, 127, 120, 238, 64, 28, 24, 30]
[87, 127, 120, 238, 64, 28, 24, 30]
[87, 127, 120, 238, 64, 28, 24, 30]
[87, 127, 120, 238, 64, 28, 24, 30]
[87, 127, 120, 238, 64, 28, 24, 30]
[87, 127, 120, 238, 64, 28, 24, 30]
[87, 127, 120, 238, 64, 28, 24, 30]
[92, 131, 124, 233, 74, 24, 25, 30]
[92, 131, 124, 233, 74, 24, 25, 30]
[92, 131, 124, 233, 74, 24, 25, 30]
[92, 131, 124, 233, 74, 24, 25, 30]
[92, 131, 124, 233, 74, 24, 25, 30]
[92, 131, 124, 233, 74, 24, 25, 30]
[92, 131, 124, 233, 74, 24, 25, 30]
[92, 131, 124, 233, 74, 24, 25, 30]
[92, 114, 130, 226, 71, 25, 26, 32]
[92, 114, 130, 226, 71, 25, 26, 32]
[92, 114, 130, 226, 71, 25, 26, 32]
[92, 114, 130, 226, 71, 25, 26, 32]
[92, 114, 130, 226, 71, 25, 26, 32]
[92, 114, 130, 226, 71, 25, 26, 32]
[92, 114, 130, 226, 71, 25, 26, 32]
[92, 114, 130, 226, 71, 25, 26, 32]
[96, 138, 138, 209, 69, 27, 25, 33]
[96, 138, 138, 209, 69, 27, 25, 33]
[96, 138, 138, 209, 69, 27, 25, 33]
[96, 138, 138, 209, 69, 27, 25, 33]
[96, 138, 138, 209, 69, 27, 25, 33]
[96, 138, 138, 209, 69, 27, 25, 33]
[96, 138, 138, 209, 69, 27, 25, 33]
[96, 138, 138, 209, 69, 27, 25, 33]
[94, 140, 137, 171, 70, 29, 25, 32]
[94, 140, 137, 171, 70, 29, 25, 32]
[94, 140, 137, 171, 70, 29, 25, 32]
[94, 140, 137, 171, 70, 29, 25, 32]
[94, 140, 137, 171, 70, 29, 25, 32]
[94, 140, 137, 171, 70, 29, 25, 32]
[94, 140, 137, 171, 70, 29, 25, 32]
[94, 140, 137, 171, 70, 29, 25, 32]
[81, 132, 134, 174, 69, 32, 27, 27]
[81, 132, 134, 174, 69, 32, 27, 27]
[81, 132, 134, 174, 69, 32, 27, 27]
[81, 132, 134, 174, 69, 32, 27, 27]
[81, 132, 134, 174, 69, 32, 27, 27]
[81, 132, 134, 174, 69, 32, 27, 27]
[81, 132, 134, 174, 69, 32, 27, 27]
[81, 132, 134, 174, 69, 32, 27, 27]
[76, 129, 129, 159, 55, 32, 25, 26]
[76, 129, 129, 159, 55, 32, 25, 26]
[76, 129, 129, 159, 55, 32, 25, 26]
[76, 129, 129, 159, 55, 32, 25, 26]
[76, 129, 129, 159, 55, 32, 25, 26]
[76, 129, 129, 159, 55, 32, 25, 26]
[76, 129, 129, 159, 55, 32, 25, 26]
[76, 129, 129, 159, 55, 32, 25, 26]
[75, 181, 111, 157, 53, 34, 27, 24]
[75, 181, 111, 157, 53, 34, 27, 24]
[75, 181, 111, 157, 53, 34, 27, 24]
[75, 181, 111, 157, 53, 34, 27, 24]
[75, 181, 111, 157, 53, 34, 27, 24]
[75, 181, 111, 157, 53, 34, 27, 24]
[75, 181, 111, 157, 53, 34, 27, 24]
[75, 181, 111, 157, 53, 34, 27, 24]
[76, 195, 140, 188, 57, 35, 29, 25]
[76, 195, 140, 188, 57, 35, 29, 25]
[76, 195, 140, 188, 57, 35, 29, 25]
[76, 195, 140, 188, 57, 35, 29, 25]
[76, 195, 140, 188, 57, 35, 29, 25]
[76, 195, 140, 188, 57, 35, 29, 25]
[76, 195, 140, 188, 57, 35, 29, 25]
[76, 195, 140, 188, 57, 35, 29, 25]
[84, 199, 152, 180, 71, 37, 30, 26]
[84, 199, 152, 180, 71, 37, 30, 26]
[84, 199, 152, 180, 71, 37, 30, 26]
[84, 199, 152, 180, 71, 37, 30, 26]
[84, 199, 152, 180, 71, 37, 30, 26]
[84, 199, 152, 180, 71, 37, 30, 26]
[84, 199, 152, 180, 71, 37, 30, 26]
[84, 199, 152, 180, 71, 37, 30, 26]
[80, 203, 166, 169, 73, 34, 29, 28]
[80, 203, 166, 169, 73, 34, 29, 28]
[80, 203, 166, 169, 73, 34, 29, 28]
[80, 203, 166, 169, 73, 34, 29, 28]
[80, 203, 166, 169, 73, 34, 29, 28]
[80, 203, 166, 169, 73, 34, 29, 28]
[80, 203, 166, 169, 73, 34, 29, 28]
[80, 203, 166, 169, 73, 34, 29, 28]
[86, 217, 174, 220, 83, 35, 33, 30]
[86, 217, 174, 220, 83, 35, 33, 30]
[86, 217, 174, 220, 83, 35, 33, 30]
[86, 217, 174, 220, 83, 35, 33, 30]
[86, 217, 174, 220, 83, 35, 33, 30]
[86, 217, 174, 220, 83, 35, 33, 30]
[86, 217, 174, 220, 83, 35, 33, 30]
[86, 217, 174, 220, 83, 35, 33, 30]
[103, 194, 173, 225, 88, 32, 30, 31]
[103, 194, 173, 225, 88, 32, 30, 31]
[103, 194, 173, 225, 88, 32, 30, 31]
[103, 194, 173, 225, 88, 32, 30, 31]
[103, 194, 173, 225, 88, 32, 30, 31]
[103, 194, 173, 225, 88, 32, 30, 31]
[103, 194, 173, 225, 88, 32, 30, 31]
[103, 194, 173, 225, 88, 32, 30, 31]
[101, 175, 161, 209, 97, 34, 28, 28]
[101, 175, 161, 209, 97, 34, 28, 28]
[101, 175, 161, 209, 97, 34, 28, 28]
[101, 175, 161, 209, 97, 34, 28, 28]
[101, 175, 161, 209, 97, 34, 28, 28]
[101, 175, 161, 209, 97, 34, 28, 28]
[101, 175, 161, 209, 97, 34, 28, 28]
[101, 175, 161, 209, 97, 34, 28, 28]
[98, 169, 188, 220, 93, 31, 26, 28]
[98, 169, 188, 220, 93, 31, 26, 28]
[98, 169, 188, 220, 93, 31, 26, 28]
[98, 169, 188, 220, 93, 31, 26, 28]
[98, 169, 188, 220, 93, 31, 26, 28]
[98, 169, 188, 220, 93, 31, 26, 28]
[98, 169, 188, 220, 93, 31, 26, 28]
[98, 169, 188, 220, 93, 31, 26, 28]
[93, 171, 189, 214, 117, 38, 27, 29]
[93, 171, 189, 214, 117, 38, 27, 29]
[93, 171, 189, 214, 117, 38, 27, 29]
[93, 171, 189, 214, 117, 38, 27, 29]
[93, 171, 189, 214, 117, 38, 27, 29]
[93, 171, 189, 214, 117, 38, 27, 29]
[93, 171, 189, 214, 117, 38, 27, 29]
[93, 171, 189, 214, 117, 38, 27, 29]
[90, 161, 186, 180, 115, 40, 26, 28]
[90, 161, 186, 180, 115, 40, 26, 28]
[90, 161, 186, 180, 115, 40, 26, 28]
[90, 161, 186, 180, 115, 40, 26, 28]
[90, 161, 186, 180, 115, 40, 26, 28]
[90, 161, 186, 180, 115, 40, 26, 28]
[90, 161, 186, 180, 115, 40, 26, 28]
[90, 161, 186, 180, 115, 40, 26, 28]
[95, 133, 185, 177, 113, 43, 29, 31]
[95, 133, 185, 177, 113, 43, 29, 31]
[95, 133, 185, 177, 113, 43, 29, 31]
[95, 133, 185, 177, 113, 43, 29, 31]
[95, 133, 185, 177, 113, 43, 29, 31]
[95, 133, 185, 177, 113, 43, 29, 31]
[95, 133, 185, 177, 113, 43, 29, 31]
[95, 133, 185, 177, 113, 43, 29, 31]
[100, 113, 172, 181, 111, 41, 31, 32]
[100, 113, 172, 181, 111, 41, 31, 32]
[100, 113, 172, 181, 111, 41, 31, 32]
[100, 113, 172, 181, 111, 41, 31, 32]
[100, 113, 172, 181, 111, 41, 31, 32]
[100, 113, 172, 181, 111, 41, 31, 32]
[100, 113, 172, 181, 111, 41, 31, 32]
[100, 113, 172, 181, 111, 41, 31, 32]
[103, 125, 166, 208, 110, 40, 31, 33]
[103, 125, 166, 208, 110, 40, 31, 33]
[103, 125, 166, 208, 110, 40, 31, 33]
[103, 125, 166, 208, 110, 40, 31, 33]
[103, 125, 166, 208, 110, 40, 31, 33]
[103, 125, 166, 208, 110, 40, 31, 33]
[103, 125, 166, 208, 110, 40, 31, 33]
[103, 125, 166, 208, 110, 40, 31, 33]
[110, 133, 164, 225, 91, 33, 28, 32]
[110, 133, 164, 225, 91, 33, 28, 32]
[110, 133, 164, 225, 91, 33, 28, 32]
[110, 133, 164, 225, 91, 33, 28, 32]
[110, 133, 164, 225, 91, 33, 28, 32]
[110, 133, 164, 225, 91, 33, 28, 32]
[110, 133, 164, 225, 91, 33, 28, 32]
[110, 133, 164, 225, 91, 33, 28, 32]
[110, 130, 191, 217, 92, 35, 26, 32]
[110, 130, 191, 217, 92, 35, 26, 32]
[110, 130, 191, 217, 92, 35, 26, 32]
[110, 130, 191, 217, 92, 35, 26, 32]
[110, 130, 191, 217, 92, 35, 26, 32]
[110, 130, 191, 217, 92, 35, 26, 32]
[110, 130, 191, 217, 92, 35, 26, 32]
[110, 130, 191, 217, 92, 35, 26, 32]
[94, 139, 195, 230, 102, 40, 22, 34]
[94, 139, 195, 230, 102, 40, 22, 34]
[94, 139, 195, 230, 102, 40, 22, 34]
[94, 139, 195, 230, 102, 40, 22, 34]
[94, 139, 195, 230, 102, 40, 22, 34]
[94, 139, 195, 230, 102, 40, 22, 34]
[94, 139, 195, 230, 102, 40, 22, 34]
[94, 139, 195, 230, 102, 40, 22, 34]
[90, 159, 194, 267, 151, 55, 24, 34]
[90, 159, 194, 267, 151, 55, 24, 34]
[90, 159, 194, 267, 151, 55, 24, 34]
[90, 159, 194, 267, 151, 55, 24, 34]
[90, 159, 194, 267, 151, 55, 24, 34]
[90, 159, 194, 267, 151, 55, 24, 34]
[90, 159, 194, 267, 151, 55, 24, 34]
[90, 159, 194, 267, 151, 55, 24, 34]
[90, 168, 185, 248, 159, 58, 27, 35]
[90, 168, 185, 248, 159, 58, 27, 35]
[90, 168, 185, 248, 159, 58, 27, 35]
[90, 168, 185, 248, 159, 58, 27, 35]
[90, 168, 185, 248, 159, 58, 27, 35]
[90, 168, 185, 248, 159, 58, 27, 35]
[90, 168, 185, 248, 159, 58, 27, 35]
[90, 168, 185, 248, 159, 58, 27, 35]
[88, 167, 185, 255, 164, 60, 29, 36]
[88, 167, 185, 255, 164, 60, 29, 36]
[88, 167, 185, 255, 164, 60, 29, 36]
[88, 167, 185, 255, 164, 60, 29, 36]
[88, 167, 185, 255, 164, 60, 29, 36]
[88, 167, 185, 255, 164, 60, 29, 36]
[88, 167, 185, 255, 164, 60, 29, 36]
[88, 167, 185, 255, 164, 60, 29, 36]
[96, 185, 159, 269, 168, 60, 32, 37]
[96, 185, 159, 269, 168, 60, 32, 37]
[96, 185, 159, 269, 168, 60, 32, 37]
[96, 185, 159, 269, 168, 60, 32, 37]
[96, 185, 159, 269, 168, 60, 32, 37]
[96, 185, 159, 269, 168, 60, 32, 37]
[96, 185, 159, 269, 168, 60, 32, 37]
[96, 185, 159, 269, 168, 60, 32, 37]
[99, 192, 148, 257, 164, 57, 34, 35]
[99, 192, 148, 257, 164, 57, 34, 35]
[99, 192, 148, 257, 164, 57, 34, 35]
[99, 192, 148, 257, 164, 57, 34, 35]
[99, 192, 148, 257, 164, 57, 34, 35]
[99, 192, 148, 257, 164, 57, 34, 35]
[99, 192, 148, 257, 164, 57, 34, 35]
[99, 192, 148, 257, 164, 57, 34, 35]
[106, 181, 157, 223, 128, 46, 31, 38]
[106, 181, 157, 223, 128, 46, 31, 38]
[106, 181, 157, 223, 128, 46, 31, 38]
[106, 181, 157, 223, 128, 46, 31, 38]
[106, 181, 157, 223, 128, 46, 31, 38]
[106, 181, 157, 223, 128, 46, 31, 38]
[106, 181, 157, 223, 128, 46, 31, 38]
[106, 181, 157, 223, 128, 46, 31, 38]
[111, 173, 133, 219, 121, 48, 30, 36]
[111, 173, 133, 219, 121, 48, 30, 36]
[111, 173, 133, 219, 121, 48, 30, 36]
[111, 173, 133, 219, 121, 48, 30, 36]
[111, 173, 133, 219, 121, 48, 30, 36]
[111, 173, 133, 219, 121, 48, 30, 36]
[111, 173, 133, 219, 121, 48, 30, 36]
[111, 173, 133, 219, 121, 48, 30, 36]
[120, 169, 131, 203, 123, 47, 28, 38]
[120, 169, 131, 203, 123, 47, 28, 38]
[120, 169, 131, 203, 123, 47, 28, 38]
[120, 169, 131, 203, 123, 47, 28, 38]
[120, 169, 131, 203, 123, 47, 28, 38]
[120, 169, 131, 203, 123, 47, 28, 38]
[120, 169, 131, 203, 123, 47, 28, 38]
[120, 169, 131, 203, 123, 47, 28, 38]
