[39, 72, 345, 209, 77, 28, 23, 28]
0.6[39, 72, 345, 209, 77, 28, 23, 28]
0.6[39, 72, 345, 209, 77, 28, 23, 28]
0.6[39, 72, 345, 209, 77, 28, 23, 28]
0.6[39, 72, 345, 209, 77, 28, 23, 28]
0.6[39, 72, 345, 209, 77, 28, 23, 28]
0.6[39, 72, 345, 209, 77, 28, 23, 28]
0.6[39, 72, 345, 209, 77, 28, 23, 28]
0.6[40, 62, 338, 202, 79, 27, 25, 27]
0.62[40, 62, 338, 202, 79, 27, 25, 27]
0.62[40, 62, 338, 202, 79, 27, 25, 27]
0.62[40, 62, 338, 202, 79, 27, 25, 27]
0.62[40, 62, 338, 202, 79, 27, 25, 27]
0.62[40, 62, 338, 202, 79, 27, 25, 27]
0.62[40, 62, 338, 202, 79, 27, 25, 27]
0.62[40, 62, 338, 202, 79, 27, 25, 27]
0.62[40, 65, 396, 206, 79, 30, 27, 27]
0.64[40, 65, 396, 206, 79, 30, 27, 27]
0.64[40, 65, 396, 206, 79, 30, 27, 27]
0.64[40, 65, 396, 206, 79, 30, 27, 27]
0.64[40, 65, 396, 206, 79, 30, 27, 27]
0.64[40, 65, 396, 206, 79, 30, 27, 27]
0.64[40, 65, 396, 206, 79, 30, 27, 27]
0.64[40, 65, 396, 206, 79, 30, 27, 27]
0.64[41, 66, 450, 215, 75, 30, 28, 26]
0.66[41, 66, 450, 215, 75, 30, 28, 26]
0.66[41, 66, 450, 215, 75, 30, 28, 26]
0.66[41, 66, 450, 215, 75, 30, 28, 26]
0.66[41, 66, 450, 215, 75, 30, 28, 26]
0.66[41, 66, 450, 215, 75, 30, 28, 26]
0.66[41, 66, 450, 215, 75, 30, 28, 26]
0.66[41, 66, 450, 215, 75, 30, 28, 26]
0.66[39, 69, 483, 192, 67, 31, 27, 25]
0.68[39, 69, 483, 192, 67, 31, 27, 25]
0.68[39, 69, 483, 192, 67, 31, 27, 25]
0.68[39, 69, 483, 192, 67, 31, 27, 25]
0.68[39, 69, 483, 192, 67, 31, 27, 25]
0.68[39, 69, 483, 192, 67, 31, 27, 25]
0.68[39, 69, 483, 192, 67, 31, 27, 25]
0.68[39, 69, 483, 192, 67, 31, 27, 25]
0.68[37, 61, 407, 143, 44, 28, 25, 22]
0.7[37, 61, 407, 143, 44, 28, 25, 22]
0.7[37, 61, 407, 143, 44, 28, 25, 22]
0.7[37, 61, 407, 143, 44, 28, 25, 22]
0.7[37, 61, 407, 143, 44, 28, 25, 22]
0.7[37, 61, 407, 143, 44, 28, 25, 22]
0.7[37, 61, 407, 143, 44, 28, 25, 22]
0.7[37, 61, 407, 143, 44, 28, 25, 22]
0.7[36, 60, 402, 164, 51, 31, 23, 21]
0.72[36, 60, 402, 164, 51, 31, 23, 21]
0.72[36, 60, 402, 164, 51, 31, 23, 21]
0.72[36, 60, 402, 164, 51, 31, 23, 21]
0.72[36, 60, 402, 164, 51, 31, 23, 21]
0.72[36, 60, 402, 164, 51, 31, 23, 21]
0.72[36, 60, 402, 164, 51, 31, 23, 21]
0.72[36, 60, 402, 164, 51, 31, 23, 21]
0.72[34, 55, 369, 172, 57, 28, 21, 19]
0.75[34, 55, 369, 172, 57, 28, 21, 19]
0.75[34, 55, 369, 172, 57, 28, 21, 19]
0.75[34, 55, 369, 172, 57, 28, 21, 19]
0.75[34, 55, 369, 172, 57, 28, 21, 19]
0.75[34, 55, 369, 172, 57, 28, 21, 19]
0.75[34, 55, 369, 172, 57, 28, 21, 19]
0.75[34, 55, 369, 172, 57, 28, 21, 19]
0.75[33, 65, 338, 150, 56, 30, 22, 20]
0.76[33, 65, 338, 150, 56, 30, 22, 20]
0.76[33, 65, 338, 150, 56, 30, 22, 20]
0.76[33, 65, 338, 150, 56, 30, 22, 20]
0.76[33, 65, 338, 150, 56, 30, 22, 20]
0.76[33, 65, 338, 150, 56, 30, 22, 20]
0.76[33, 65, 338, 150, 56, 30, 22, 20]
0.76[33, 65, 338, 150, 56, 30, 22, 20]
0.76[34, 69, 302, 159, 56, 28, 23, 19]
0.78[34, 69, 302, 159, 56, 28, 23, 19]
0.78[34, 69, 302, 159, 56, 28, 23, 19]
0.78[34, 69, 302, 159, 56, 28, 23, 19]
0.78[34, 69, 302, 159, 56, 28, 23, 19]
0.78[34, 69, 302, 159, 56, 28, 23, 19]
0.78[34, 69, 302, 159, 56, 28, 23, 19]
0.78[34, 69, 302, 159, 56, 28, 23, 19]
0.78[33, 74, 278, 144, 55, 26, 23, 19]
0.8[33, 74, 278, 144, 55, 26, 23, 19]
0.8[33, 74, 278, 144, 55, 26, 23, 19]
0.8[33, 74, 278, 144, 55, 26, 23, 19]
0.8[33, 74, 278, 144, 55, 26, 23, 19]
0.8[33, 74, 278, 144, 55, 26, 23, 19]
0.8[33, 74, 278, 144, 55, 26, 23, 19]
0.8[33, 74, 278, 144, 55, 26, 23, 19]
0.8[36, 78, 290, 118, 43, 25, 22, 21]
0.82[36, 78, 290, 118, 43, 25, 22, 21]
0.82[36, 78, 290, 118, 43, 25, 22, 21]
0.82[36, 78, 290, 118, 43, 25, 22, 21]
0.82[36, 78, 290, 118, 43, 25, 22, 21]
0.82[36, 78, 290, 118, 43, 25, 22, 21]
0.82[36, 78, 290, 118, 43, 25, 22, 21]
0.82[36, 78, 290, 118, 43, 25, 22, 21]
0.82[35, 82, 339, 109, 38, 25, 22, 20]
0.84[35, 82, 339, 109, 38, 25, 22, 20]
0.84[35, 82, 339, 109, 38, 25, 22, 20]
0.84[35, 82, 339, 109, 38, 25, 22, 20]
0.84[35, 82, 339, 109, 38, 25, 22, 20]
0.84[35, 82, 339, 109, 38, 25, 22, 20]
0.84[35, 82, 339, 109, 38, 25, 22, 20]
0.84[35, 82, 339, 109, 38, 25, 22, 20]
0.84[36, 73, 313, 106, 37, 25, 24, 22]
0.86[36, 73, 313, 106, 37, 25, 24, 22]
0.86[36, 73, 313, 106, 37, 25, 24, 22]
0.86[36, 73, 313, 106, 37, 25, 24, 22]
0.86[36, 73, 313, 106, 37, 25, 24, 22]
0.86[36, 73, 313, 106, 37, 25, 24, 22]
0.86[36, 73, 313, 106, 37, 25, 24, 22]
0.86[36, 73, 313, 106, 37, 25, 24, 22]
0.86[33, 69, 314, 98, 37, 25, 24, 22]
0.88[33, 69, 314, 98, 37, 25, 24, 22]
0.88[33, 69, 314, 98, 37, 25, 24, 22]
0.88[33, 69, 314, 98, 37, 25, 24, 22]
0.88[33, 69, 314, 98, 37, 25, 24, 22]
0.88[33, 69, 314, 98, 37, 25, 24, 22]
0.88[33, 69, 314, 98, 37, 25, 24, 22]
0.88[33, 69, 314, 98, 37, 25, 24, 22]
0.88[35, 77, 330, 108, 37, 27, 25, 23]
0.91[35, 77, 330, 108, 37, 27, 25, 23]
0.91[35, 77, 330, 108, 37, 27, 25, 23]
0.91[35, 77, 330, 108, 37, 27, 25, 23]
0.91[35, 77, 330, 108, 37, 27, 25, 23]
0.91[35, 77, 330, 108, 37, 27, 25, 23]
0.91[35, 77, 330, 108, 37, 27, 25, 23]
0.91[35, 77, 330, 108, 37, 27, 25, 23]
0.91[35, 81, 386, 117, 40, 24, 27, 22]
0.92[35, 81, 386, 117, 40, 24, 27, 22]
0.92[35, 81, 386, 117, 40, 24, 27, 22]
0.92[35, 81, 386, 117, 40, 24, 27, 22]
0.92[35, 81, 386, 117, 40, 24, 27, 22]
0.92[35, 81, 386, 117, 40, 24, 27, 22]
0.92[35, 81, 386, 117, 40, 24, 27, 22]
0.92[35, 81, 386, 117, 40, 24, 27, 22]
0.92[35, 82, 331, 131, 50, 27, 25, 23]
0.94[35, 82, 331, 131, 50, 27, 25, 23]
0.94[35, 82, 331, 131, 50, 27, 25, 23]
0.94[35, 82, 331, 131, 50, 27, 25, 23]
0.94[35, 82, 331, 131, 50, 27, 25, 23]
0.94[35, 82, 331, 131, 50, 27, 25, 23]
0.94[35, 82, 331, 131, 50, 27, 25, 23]
0.94[35, 82, 331, 131, 50, 27, 25, 23]
0.94[31, 83, 373, 184, 62, 27, 22, 23]
0.96[31, 83, 373, 184, 62, 27, 22, 23]
0.96[31, 83, 373, 184, 62, 27, 22, 23]
0.96[31, 83, 373, 184, 62, 27, 22, 23]
0.96[31, 83, 373, 184, 62, 27, 22, 23]
0.96[31, 83, 373, 184, 62, 27, 22, 23]
0.96[31, 83, 373, 184, 62, 27, 22, 23]
0.96[31, 83, 373, 184, 62, 27, 22, 23]
0.96[35, 82, 372, 189, 63, 27, 22, 25]
0.98[35, 82, 372, 189, 63, 27, 22, 25]
0.98[35, 82, 372, 189, 63, 27, 22, 25]
0.98[35, 82, 372, 189, 63, 27, 22, 25]
0.98[35, 82, 372, 189, 63, 27, 22, 25]
0.98[35, 82, 372, 189, 63, 27, 22, 25]
0.98[35, 82, 372, 189, 63, 27, 22, 25]
0.98[35, 82, 372, 189, 63, 27, 22, 25]
0.98[37, 81, 381, 200, 70, 25, 23, 24]
1.0[37, 81, 381, 200, 70, 25, 23, 24]
1.0[37, 81, 381, 200, 70, 25, 23, 24]
1.0[37, 81, 381, 200, 70, 25, 23, 24]
1.0[37, 81, 381, 200, 70, 25, 23, 24]
1.0[37, 81, 381, 200, 70, 25, 23, 24]
1.0[37, 81, 381, 200, 70, 25, 23, 24]
1.0[37, 81, 381, 200, 70, 25, 23, 24]
1.0[34, 79, 330, 199, 69, 28, 22, 25]
1.02[34, 79, 330, 199, 69, 28, 22, 25]
1.02[34, 79, 330, 199, 69, 28, 22, 25]
1.02[34, 79, 330, 199, 69, 28, 22, 25]
1.02[34, 79, 330, 199, 69, 28, 22, 25]
1.02[34, 79, 330, 199, 69, 28, 22, 25]
1.02[34, 79, 330, 199, 69, 28, 22, 25]
1.02[34, 79, 330, 199, 69, 28, 22, 25]
1.02[36, 79, 356, 194, 72, 28, 25, 26]
1.04[36, 79, 356, 194, 72, 28, 25, 26]
1.04[36, 79, 356, 194, 72, 28, 25, 26]
1.04[36, 79, 356, 194, 72, 28, 25, 26]
1.04[36, 79, 356, 194, 72, 28, 25, 26]
1.04[36, 79, 356, 194, 72, 28, 25, 26]
1.04[36, 79, 356, 194, 72, 28, 25, 26]
1.04[36, 79, 356, 194, 72, 28, 25, 26]
1.04[35, 77, 303, 151, 63, 29, 26, 23]
1.06[35, 77, 303, 151, 63, 29, 26, 23]
1.06[35, 77, 303, 151, 63, 29, 26, 23]
1.06[35, 77, 303, 151, 63, 29, 26, 23]
1.06[35, 77, 303, 151, 63, 29, 26, 23]
1.06[35, 77, 303, 151, 63, 29, 26, 23]
1.06[35, 77, 303, 151, 63, 29, 26, 23]
1.06[35, 77, 303, 151, 63, 29, 26, 23]
1.06[33, 79, 347, 152, 64, 30, 28, 21]
1.08[33, 79, 347, 152, 64, 30, 28, 21]
1.08[33, 79, 347, 152, 64, 30, 28, 21]
1.08[33, 79, 347, 152, 64, 30, 28, 21]
1.08[33, 79, 347, 152, 64, 30, 28, 21]
1.08[33, 79, 347, 152, 64, 30, 28, 21]
1.08[33, 79, 347, 152, 64, 30, 28, 21]
1.08[33, 79, 347, 152, 64, 30, 28, 21]
1.08[28, 72, 366, 161, 60, 32, 28, 22]
1.1[28, 72, 366, 161, 60, 32, 28, 22]
1.1[28, 72, 366, 161, 60, 32, 28, 22]
1.1[28, 72, 366, 161, 60, 32, 28, 22]
1.1[28, 72, 366, 161, 60, 32, 28, 22]
1.1[28, 72, 366, 161, 60, 32, 28, 22]
1.1[28, 72, 366, 161, 60, 32, 28, 22]
1.1[28, 72, 366, 161, 60, 32, 28, 22]
1.1[32, 92, 355, 150, 61, 30, 28, 23]
1.12[32, 92, 355, 150, 61, 30, 28, 23]
1.12[32, 92, 355, 150, 61, 30, 28, 23]
1.12[32, 92, 355, 150, 61, 30, 28, 23]
1.12[32, 92, 355, 150, 61, 30, 28, 23]
1.12[32, 92, 355, 150, 61, 30, 28, 23]
1.12[32, 92, 355, 150, 61, 30, 28, 23]
1.12[32, 92, 355, 150, 61, 30, 28, 23]
1.12[34, 96, 420, 158, 57, 29, 26, 23]
1.14[34, 96, 420, 158, 57, 29, 26, 23]
1.14[34, 96, 420, 158, 57, 29, 26, 23]
1.14[34, 96, 420, 158, 57, 29, 26, 23]
1.14[34, 96, 420, 158, 57, 29, 26, 23]
1.14[34, 96, 420, 158, 57, 29, 26, 23]
1.14[34, 96, 420, 158, 57, 29, 26, 23]
1.14[34, 96, 420, 158, 57, 29, 26, 23]
1.14[36, 105, 431, 162, 60, 30, 26, 24]
1.16[36, 105, 431, 162, 60, 30, 26, 24]
1.16[36, 105, 431, 162, 60, 30, 26, 24]
1.16[36, 105, 431, 162, 60, 30, 26, 24]
1.16[36, 105, 431, 162, 60, 30, 26, 24]
1.16[36, 105, 431, 162, 60, 30, 26, 24]
1.16[36, 105, 431, 162, 60, 30, 26, 24]
1.16[36, 105, 431, 162, 60, 30, 26, 24]
1.16[38, 106, 401, 155, 58, 30, 24, 23]
1.18[38, 106, 401, 155, 58, 30, 24, 23]
1.18[38, 106, 401, 155, 58, 30, 24, 23]
1.18[38, 106, 401, 155, 58, 30, 24, 23]
1.18[38, 106, 401, 155, 58, 30, 24, 23]
1.18[38, 106, 401, 155, 58, 30, 24, 23]
1.18[38, 106, 401, 155, 58, 30, 24, 23]
1.18[38, 106, 401, 155, 58, 30, 24, 23]
1.18[36, 103, 382, 135, 57, 29, 22, 24]
1.2[36, 103, 382, 135, 57, 29, 22, 24]
1.2[36, 103, 382, 135, 57, 29, 22, 24]
1.2[36, 103, 382, 135, 57, 29, 22, 24]
1.2[36, 103, 382, 135, 57, 29, 22, 24]
1.2[36, 103, 382, 135, 57, 29, 22, 24]
1.2[36, 103, 382, 135, 57, 29, 22, 24]
1.2[36, 103, 382, 135, 57, 29, 22, 24]
1.2[34, 83, 428, 143, 55, 29, 20, 21]
1.22[34, 83, 428, 143, 55, 29, 20, 21]
1.22[34, 83, 428, 143, 55, 29, 20, 21]
1.22[34, 83, 428, 143, 55, 29, 20, 21]
1.22[34, 83, 428, 143, 55, 29, 20, 21]
1.22[34, 83, 428, 143, 55, 29, 20, 21]
1.22[34, 83, 428, 143, 55, 29, 20, 21]
1.22[34, 83, 428, 143, 55, 29, 20, 21]
1.22[33, 92, 370, 134, 52, 29, 20, 21]
1.24[33, 92, 370, 134, 52, 29, 20, 21]
1.24[33, 92, 370, 134, 52, 29, 20, 21]
1.24[33, 92, 370, 134, 52, 29, 20, 21]
1.24[33, 92, 370, 134, 52, 29, 20, 21]
1.24[33, 92, 370, 134, 52, 29, 20, 21]
1.24[33, 92, 370, 134, 52, 29, 20, 21]
1.24[33, 92, 370, 134, 52, 29, 20, 21]
1.24[34, 83, 354, 127, 46, 25, 20, 22]
1.26[34, 83, 354, 127, 46, 25, 20, 22]
1.26[34, 83, 354, 127, 46, 25, 20, 22]
1.26[34, 83, 354, 127, 46, 25, 20, 22]
1.26[34, 83, 354, 127, 46, 25, 20, 22]
1.26[34, 83, 354, 127, 46, 25, 20, 22]
1.26[34, 83, 354, 127, 46, 25, 20, 22]
1.26[34, 83, 354, 127, 46, 25, 20, 22]
1.26[32, 80, 362, 132, 43, 23, 21, 22]
1.28[32, 80, 362, 132, 43, 23, 21, 22]
1.28[32, 80, 362, 132, 43, 23, 21, 22]
1.28[32, 80, 362, 132, 43, 23, 21, 22]
1.28[32, 80, 362, 132, 43, 23, 21, 22]
1.28[32, 80, 362, 132, 43, 23, 21, 22]
1.28[32, 80, 362, 132, 43, 23, 21, 22]
1.28[32, 80, 362, 132, 43, 23, 21, 22]
1.28[32, 82, 352, 121, 43, 23, 25, 21]
1.3[32, 82, 352, 121, 43, 23, 25, 21]
1.3[32, 82, 352, 121, 43, 23, 25, 21]
1.3[32, 82, 352, 121, 43, 23, 25, 21]
1.3[32, 82, 352, 121, 43, 23, 25, 21]
1.3[32, 82, 352, 121, 43, 23, 25, 21]
1.3[32, 82, 352, 121, 43, 23, 25, 21]
1.3[32, 82, 352, 121, 43, 23, 25, 21]
1.3[34, 86, 317, 123, 43, 22, 26, 23]
1.32[34, 86, 317, 123, 43, 22, 26, 23]
1.32[34, 86, 317, 123, 43, 22, 26, 23]
1.32[34, 86, 317, 123, 43, 22, 26, 23]
1.32[34, 86, 317, 123, 43, 22, 26, 23]
1.32[34, 86, 317, 123, 43, 22, 26, 23]
1.32[34, 86, 317, 123, 43, 22, 26, 23]
1.32[34, 86, 317, 123, 43, 22, 26, 23]
1.32[36, 76, 293, 116, 38, 20, 28, 24]
1.34[36, 76, 293, 116, 38, 20, 28, 24]
1.34[36, 76, 293, 116, 38, 20, 28, 24]
1.34[36, 76, 293, 116, 38, 20, 28, 24]
1.34[36, 76, 293, 116, 38, 20, 28, 24]
1.34[36, 76, 293, 116, 38, 20, 28, 24]
1.34[36, 76, 293, 116, 38, 20, 28, 24]
1.34[36, 76, 293, 116, 38, 20, 28, 24]
1.34[36, 75, 322, 133, 39, 25, 26, 24]
1.36[36, 75, 322, 133, 39, 25, 26, 24]
1.36[36, 75, 322, 133, 39, 25, 26, 24]
1.36[36, 75, 322, 133, 39, 25, 26, 24]
1.36[36, 75, 322, 133, 39, 25, 26, 24]
1.36[36, 75, 322, 133, 39, 25, 26, 24]
1.36[36, 75, 322, 133, 39, 25, 26, 24]
1.36[36, 75, 322, 133, 39, 25, 26, 24]
1.36[35, 75, 292, 147, 46, 27, 27, 28]
1.38[35, 75, 292, 147, 46, 27, 27, 28]
1.38[35, 75, 292, 147, 46, 27, 27, 28]
1.38[35, 75, 292, 147, 46, 27, 27, 28]
1.38[35, 75, 292, 147, 46, 27, 27, 28]
1.38[35, 75, 292, 147, 46, 27, 27, 28]
1.38[35, 75, 292, 147, 46, 27, 27, 28]
1.38[35, 75, 292, 147, 46, 27, 27, 28]
1.38[35, 73, 272, 161, 52, 31, 23, 27]
1.4[35, 73, 272, 161, 52, 31, 23, 27]
1.4[35, 73, 272, 161, 52, 31, 23, 27]
1.4[35, 73, 272, 161, 52, 31, 23, 27]
1.4[35, 73, 272, 161, 52, 31, 23, 27]
1.4[35, 73, 272, 161, 52, 31, 23, 27]
1.4[35, 73, 272, 161, 52, 31, 23, 27]
1.4[35, 73, 272, 161, 52, 31, 23, 27]
1.4[37, 99, 265, 160, 54, 32, 24, 28]
1.42[37, 99, 265, 160, 54, 32, 24, 28]
1.42[37, 99, 265, 160, 54, 32, 24, 28]
1.42[37, 99, 265, 160, 54, 32, 24, 28]
1.42[37, 99, 265, 160, 54, 32, 24, 28]
1.42[37, 99, 265, 160, 54, 32, 24, 28]
1.42[37, 99, 265, 160, 54, 32, 24, 28]
1.42[37, 99, 265, 160, 54, 32, 24, 28]
1.42[32, 93, 297, 156, 52, 31, 23, 26]
1.44[32, 93, 297, 156, 52, 31, 23, 26]
1.44[32, 93, 297, 156, 52, 31, 23, 26]
1.44[32, 93, 297, 156, 52, 31, 23, 26]
1.44[32, 93, 297, 156, 52, 31, 23, 26]
1.44[32, 93, 297, 156, 52, 31, 23, 26]
1.44[32, 93, 297, 156, 52, 31, 23, 26]
1.44[32, 93, 297, 156, 52, 31, 23, 26]
1.44[34, 91, 265, 136, 52, 28, 25, 25]
1.46[34, 91, 265, 136, 52, 28, 25, 25]
1.46[34, 91, 265, 136, 52, 28, 25, 25]
1.46[34, 91, 265, 136, 52, 28, 25, 25]
1.46[34, 91, 265, 136, 52, 28, 25, 25]
1.46[34, 91, 265, 136, 52, 28, 25, 25]
1.46[34, 91, 265, 136, 52, 28, 25, 25]
1.46[34, 91, 265, 136, 52, 28, 25, 25]
1.46[36, 92, 286, 127, 47, 27, 24, 23]
1.48[36, 92, 286, 127, 47, 27, 24, 23]
1.48[36, 92, 286, 127, 47, 27, 24, 23]
1.48[36, 92, 286, 127, 47, 27, 24, 23]
1.48[36, 92, 286, 127, 47, 27, 24, 23]
1.48[36, 92, 286, 127, 47, 27, 24, 23]
1.48[36, 92, 286, 127, 47, 27, 24, 23]
1.48[36, 92, 286, 127, 47, 27, 24, 23]
1.48[37, 99, 302, 117, 43, 21, 24, 23]
1.51[37, 99, 302, 117, 43, 21, 24, 23]
1.51[37, 99, 302, 117, 43, 21, 24, 23]
1.51[37, 99, 302, 117, 43, 21, 24, 23]
1.51[37, 99, 302, 117, 43, 21, 24, 23]
1.51[37, 99, 302, 117, 43, 21, 24, 23]
1.51[37, 99, 302, 117, 43, 21, 24, 23]
1.51[37, 99, 302, 117, 43, 21, 24, 23]
1.51[34, 63, 297, 126, 48, 26, 23, 23]
1.53[34, 63, 297, 126, 48, 26, 23, 23]
1.53[34, 63, 297, 126, 48, 26, 23, 23]
1.53[34, 63, 297, 126, 48, 26, 23, 23]
1.53[34, 63, 297, 126, 48, 26, 23, 23]
1.53[34, 63, 297, 126, 48, 26, 23, 23]
1.53[34, 63, 297, 126, 48, 26, 23, 23]
1.53[34, 63, 297, 126, 48, 26, 23, 23]
1.53[35, 82, 260, 136, 52, 27, 22, 25]
1.54[35, 82, 260, 136, 52, 27, 22, 25]
1.54[35, 82, 260, 136, 52, 27, 22, 25]
1.54[35, 82, 260, 136, 52, 27, 22, 25]
1.54[35, 82, 260, 136, 52, 27, 22, 25]
1.54[35, 82, 260, 136, 52, 27, 22, 25]
1.54[35, 82, 260, 136, 52, 27, 22, 25]
1.54[35, 82, 260, 136, 52, 27, 22, 25]
1.54[32, 89, 264, 140, 52, 26, 22, 24]
1.56[32, 89, 264, 140, 52, 26, 22, 24]
1.56[32, 89, 264, 140, 52, 26, 22, 24]
1.56[32, 89, 264, 140, 52, 26, 22, 24]
1.56[32, 89, 264, 140, 52, 26, 22, 24]
1.56[32, 89, 264, 140, 52, 26, 22, 24]
1.56[32, 89, 264, 140, 52, 26, 22, 24]
1.56[32, 89, 264, 140, 52, 26, 22, 24]
1.56[31, 89, 277, 158, 52, 29, 22, 24]
1.59[31, 89, 277, 158, 52, 29, 22, 24]
1.59[31, 89, 277, 158, 52, 29, 22, 24]
1.59[31, 89, 277, 158, 52, 29, 22, 24]
1.59[31, 89, 277, 158, 52, 29, 22, 24]
1.59[31, 89, 277, 158, 52, 29, 22, 24]
1.59[31, 89, 277, 158, 52, 29, 22, 24]
1.59[31, 89, 277, 158, 52, 29, 22, 24]
1.59[29, 87, 281, 161, 47, 29, 23, 23]
1.6[29, 87, 281, 161, 47, 29, 23, 23]
1.6[29, 87, 281, 161, 47, 29, 23, 23]
1.6[29, 87, 281, 161, 47, 29, 23, 23]
1.6[29, 87, 281, 161, 47, 29, 23, 23]
1.6[29, 87, 281, 161, 47, 29, 23, 23]
1.6[29, 87, 281, 161, 47, 29, 23, 23]
1.6[29, 87, 281, 161, 47, 29, 23, 23]
1.6[30, 89, 313, 149, 38, 25, 21, 21]
1.63[30, 89, 313, 149, 38, 25, 21, 21]
1.63[30, 89, 313, 149, 38, 25, 21, 21]
1.63[30, 89, 313, 149, 38, 25, 21, 21]
1.63[30, 89, 313, 149, 38, 25, 21, 21]
1.63[30, 89, 313, 149, 38, 25, 21, 21]
1.63[30, 89, 313, 149, 38, 25, 21, 21]
1.63[30, 89, 313, 149, 38, 25, 21, 21]
1.63[32, 78, 290, 143, 35, 25, 21, 21]
1.65[32, 78, 290, 143, 35, 25, 21, 21]
1.65[32, 78, 290, 143, 35, 25, 21, 21]
1.65[32, 78, 290, 143, 35, 25, 21, 21]
1.65[32, 78, 290, 143, 35, 25, 21, 21]
1.65[32, 78, 290, 143, 35, 25, 21, 21]
1.65[32, 78, 290, 143, 35, 25, 21, 21]
1.65[32, 78, 290, 143, 35, 25, 21, 21]
1.65[32, 96, 302, 140, 33, 27, 23, 23]
1.66[32, 96, 302, 140, 33, 27, 23, 23]
1.66[32, 96, 302, 140, 33, 27, 23, 23]
1.66[32, 96, 302, 140, 33, 27, 23, 23]
1.66[32, 96, 302, 140, 33, 27, 23, 23]
1.66[32, 96, 302, 140, 33, 27, 23, 23]
1.66[32, 96, 302, 140, 33, 27, 23, 23]
1.66[32, 96, 302, 140, 33, 27, 23, 23]
1.66[32, 100, 304, 170, 40, 24, 23, 21]
1.68[32, 100, 304, 170, 40, 24, 23, 21]
1.68[32, 100, 304, 170, 40, 24, 23, 21]
1.68[32, 100, 304, 170, 40, 24, 23, 21]
1.68[32, 100, 304, 170, 40, 24, 23, 21]
1.68[32, 100, 304, 170, 40, 24, 23, 21]
1.68[32, 100, 304, 170, 40, 24, 23, 21]
1.68[32, 100, 304, 170, 40, 24, 23, 21]
1.68[33, 100, 307, 172, 42, 23, 22, 22]
1.71[33, 100, 307, 172, 42, 23, 22, 22]
1.71[33, 100, 307, 172, 42, 23, 22, 22]
1.71[33, 100, 307, 172, 42, 23, 22, 22]
1.71[33, 100, 307, 172, 42, 23, 22, 22]
1.71[33, 100, 307, 172, 42, 23, 22, 22]
1.71[33, 100, 307, 172, 42, 23, 22, 22]
1.71[33, 100, 307, 172, 42, 23, 22, 22]
1.71[32, 100, 262, 173, 43, 24, 23, 21]
1.72[32, 100, 262, 173, 43, 24, 23, 21]
1.72[32, 100, 262, 173, 43, 24, 23, 21]
1.72[32, 100, 262, 173, 43, 24, 23, 21]
1.72[32, 100, 262, 173, 43, 24, 23, 21]
1.72[32, 100, 262, 173, 43, 24, 23, 21]
1.72[32, 100, 262, 173, 43, 24, 23, 21]
1.72[32, 100, 262, 173, 43, 24, 23, 21]
1.72[29, 93, 294, 170, 45, 28, 24, 24]
1.74[29, 93, 294, 170, 45, 28, 24, 24]
1.74[29, 93, 294, 170, 45, 28, 24, 24]
1.75[29, 93, 294, 170, 45, 28, 24, 24]
1.75[29, 93, 294, 170, 45, 28, 24, 24]
1.75[29, 93, 294, 170, 45, 28, 24, 24]
1.75[29, 93, 294, 170, 45, 28, 24, 24]
1.75[29, 93, 294, 170, 45, 28, 24, 24]
1.75[32, 71, 272, 173, 47, 28, 23, 23]
1.77[32, 71, 272, 173, 47, 28, 23, 23]
1.77[32, 71, 272, 173, 47, 28, 23, 23]
1.77[32, 71, 272, 173, 47, 28, 23, 23]
1.77[32, 71, 272, 173, 47, 28, 23, 23]
1.77[32, 71, 272, 173, 47, 28, 23, 23]
1.77[32, 71, 272, 173, 47, 28, 23, 23]
1.77[32, 71, 272, 173, 47, 28, 23, 23]
1.77[33, 79, 247, 160, 42, 27, 22, 22]
1.78[33, 79, 247, 160, 42, 27, 22, 22]
1.78[33, 79, 247, 160, 42, 27, 22, 22]
1.78[33, 79, 247, 160, 42, 27, 22, 22]
1.78[33, 79, 247, 160, 42, 27, 22, 22]
1.78[33, 79, 247, 160, 42, 27, 22, 22]
1.78[33, 79, 247, 160, 42, 27, 22, 22]
1.78[33, 79, 247, 160, 42, 27, 22, 22]
1.78[33, 76, 390, 171, 44, 30, 25, 26]
1.81[33, 76, 390, 171, 44, 30, 25, 26]
1.81[33, 76, 390, 171, 44, 30, 25, 26]
1.81[33, 76, 390, 171, 44, 30, 25, 26]
1.81[33, 76, 390, 171, 44, 30, 25, 26]
1.81[33, 76, 390, 171, 44, 30, 25, 26]
1.81[33, 76, 390, 171, 44, 30, 25, 26]
1.81[33, 76, 390, 171, 44, 30, 25, 26]
1.81[33, 86, 429, 175, 44, 29, 23, 25]
1.83[33, 86, 429, 175, 44, 29, 23, 25]
1.83[33, 86, 429, 175, 44, 29, 23, 25]
1.83[33, 86, 429, 175, 44, 29, 23, 25]
1.83[33, 86, 429, 175, 44, 29, 23, 25]
1.83[33, 86, 429, 175, 44, 29, 23, 25]
1.83[33, 86, 429, 175, 44, 29, 23, 25]
1.83[33, 86, 429, 175, 44, 29, 23, 25]
1.83[34, 88, 424, 183, 56, 26, 24, 23]
1.84[34, 88, 424, 183, 56, 26, 24, 23]
1.84[34, 88, 424, 183, 56, 26, 24, 23]
1.84[34, 88, 424, 183, 56, 26, 24, 23]
1.84[34, 88, 424, 183, 56, 26, 24, 23]
1.84[34, 88, 424, 183, 56, 26, 24, 23]
1.84[34, 88, 424, 183, 56, 26, 24, 23]
1.84[34, 88, 424, 183, 56, 26, 24, 23]
1.84[32, 88, 428, 194, 57, 26, 24, 25]
1.87[32, 88, 428, 194, 57, 26, 24, 25]
1.87[32, 88, 428, 194, 57, 26, 24, 25]
1.87[32, 88, 428, 194, 57, 26, 24, 25]
1.87[32, 88, 428, 194, 57, 26, 24, 25]
1.87[32, 88, 428, 194, 57, 26, 24, 25]
1.87[32, 88, 428, 194, 57, 26, 24, 25]
1.87[32, 88, 428, 194, 57, 26, 24, 25]
1.87[31, 76, 423, 163, 57, 27, 24, 26]
1.89[31, 76, 423, 163, 57, 27, 24, 26]
1.89[31, 76, 423, 163, 57, 27, 24, 26]
1.89[31, 76, 423, 163, 57, 27, 24, 26]
1.89[31, 76, 423, 163, 57, 27, 24, 26]
1.89[31, 76, 423, 163, 57, 27, 24, 26]
1.89[31, 76, 423, 163, 57, 27, 24, 26]
1.89[31, 76, 423, 163, 57, 27, 24, 26]
1.89[30, 74, 287, 137, 54, 26, 21, 22]
1.9[30, 74, 287, 137, 54, 26, 21, 22]
1.9[30, 74, 287, 137, 54, 26, 21, 22]
1.9[30, 74, 287, 137, 54, 26, 21, 22]
1.9[30, 74, 287, 137, 54, 26, 21, 22]
1.9[30, 74, 287, 137, 54, 26, 21, 22]
1.9[30, 74, 287, 137, 54, 26, 21, 22]
1.9[30, 74, 287, 137, 54, 26, 21, 22]
1.9[30, 73, 296, 143, 55, 26, 22, 22]
1.93[30, 73, 296, 143, 55, 26, 22, 22]
1.93[30, 73, 296, 143, 55, 26, 22, 22]
1.93[30, 73, 296, 143, 55, 26, 22, 22]
1.93[30, 73, 296, 143, 55, 26, 22, 22]
1.93[30, 73, 296, 143, 55, 26, 22, 22]
1.93[30, 73, 296, 143, 55, 26, 22, 22]
1.93[30, 73, 296, 143, 55, 26, 22, 22]
1.93[32, 76, 323, 150, 41, 25, 21, 22]
1.95[32, 76, 323, 150, 41, 25, 21, 22]
1.95[32, 76, 323, 150, 41, 25, 21, 22]
1.95[32, 76, 323, 150, 41, 25, 21, 22]
1.95[32, 76, 323, 150, 41, 25, 21, 22]
1.95[32, 76, 323, 150, 41, 25, 21, 22]
1.95[32, 76, 323, 150, 41, 25, 21, 22]
1.95[32, 76, 323, 150, 41, 25, 21, 22]
1.95[32, 80, 331, 141, 44, 28, 20, 19]
1.96[32, 80, 331, 141, 44, 28, 20, 19]
1.96[32, 80, 331, 141, 44, 28, 20, 19]
1.96[32, 80, 331, 141, 44, 28, 20, 19]
1.96[32, 80, 331, 141, 44, 28, 20, 19]
1.96[32, 80, 331, 141, 44, 28, 20, 19]
1.96[32, 80, 331, 141, 44, 28, 20, 19]
1.96[32, 80, 331, 141, 44, 28, 20, 19]
1.96[31, 94, 340, 141, 44, 27, 20, 20]
1.99[31, 94, 340, 141, 44, 27, 20, 20]
1.99[31, 94, 340, 141, 44, 27, 20, 20]
1.99[31, 94, 340, 141, 44, 27, 20, 20]
1.99[31, 94, 340, 141, 44, 27, 20, 20]
1.99[31, 94, 340, 141, 44, 27, 20, 20]
1.99[31, 94, 340, 141, 44, 27, 20, 20]
1.99[31, 94, 340, 141, 44, 27, 20, 20]
1.99[36, 97, 481, 148, 46, 28, 24, 21]
2.01[36, 97, 481, 148, 46, 28, 24, 21]
2.01[36, 97, 481, 148, 46, 28, 24, 21]
2.01[36, 97, 481, 148, 46, 28, 24, 21]
2.01[36, 97, 481, 148, 46, 28, 24, 21]
2.01[36, 97, 481, 148, 46, 28, 24, 21]
2.01[36, 97, 481, 148, 46, 28, 24, 21]
2.01[36, 97, 481, 148, 46, 28, 24, 21]
2.01[38, 90, 455, 150, 47, 27, 24, 21]
2.03[38, 90, 455, 150, 47, 27, 24, 21]
2.03[38, 90, 455, 150, 47, 27, 24, 21]
2.03[38, 90, 455, 150, 47, 27, 24, 21]
2.03[38, 90, 455, 150, 47, 27, 24, 21]
2.03[38, 90, 455, 150, 47, 27, 24, 21]
2.03[38, 90, 455, 150, 47, 27, 24, 21]
2.03[38, 90, 455, 150, 47, 27, 24, 21]
2.03[38, 95, 441, 133, 48, 29, 23, 20]
2.05[38, 95, 441, 133, 48, 29, 23, 20]
2.05[38, 95, 441, 133, 48, 29, 23, 20]
2.05[38, 95, 441, 133, 48, 29, 23, 20]
2.05[38, 95, 441, 133, 48, 29, 23, 20]
2.05[38, 95, 441, 133, 48, 29, 23, 20]
2.05[38, 95, 441, 133, 48, 29, 23, 20]
2.05[38, 95, 441, 133, 48, 29, 23, 20]
2.05[37, 88, 436, 127, 43, 27, 23, 20]
2.07[37, 88, 436, 127, 43, 27, 23, 20]
2.07[37, 88, 436, 127, 43, 27, 23, 20]
2.07[37, 88, 436, 127, 43, 27, 23, 20]
2.07[37, 88, 436, 127, 43, 27, 23, 20]
2.07[37, 88, 436, 127, 43, 27, 23, 20]
2.07[37, 88, 436, 127, 43, 27, 23, 20]
2.07[37, 88, 436, 127, 43, 27, 23, 20]
2.07[39, 108, 449, 147, 51, 31, 23, 22]
2.09[39, 108, 449, 147, 51, 31, 23, 22]
2.09[39, 108, 449, 147, 51, 31, 23, 22]
2.09[39, 108, 449, 147, 51, 31, 23, 22]
2.09[39, 108, 449, 147, 51, 31, 23, 22]
2.09[39, 108, 449, 147, 51, 31, 23, 22]
2.09[39, 108, 449, 147, 51, 31, 23, 22]
2.09[39, 108, 449, 147, 51, 31, 23, 22]
2.09[36, 103, 303, 141, 51, 31, 19, 21]
2.11[36, 103, 303, 141, 51, 31, 19, 21]
2.11[36, 103, 303, 141, 51, 31, 19, 21]
2.11[36, 103, 303, 141, 51, 31, 19, 21]
2.11[36, 103, 303, 141, 51, 31, 19, 21]
2.11[36, 103, 303, 141, 51, 31, 19, 21]
2.11[36, 103, 303, 141, 51, 31, 19, 21]
2.11[36, 103, 303, 141, 51, 31, 19, 21]
2.11[38, 108, 272, 124, 48, 31, 18, 21]
2.13[38, 108, 272, 124, 48, 31, 18, 21]
2.13[38, 108, 272, 124, 48, 31, 18, 21]
2.13[38, 108, 272, 124, 48, 31, 18, 21]
2.13[38, 108, 272, 124, 48, 31, 18, 21]
2.13[38, 108, 272, 124, 48, 31, 18, 21]
2.13[38, 108, 272, 124, 48, 31, 18, 21]
2.13[38, 108, 272, 124, 48, 31, 18, 21]
2.13[41, 103, 255, 146, 50, 30, 18, 20]
2.15[41, 103, 255, 146, 50, 30, 18, 20]
2.15[41, 103, 255, 146, 50, 30, 18, 20]
2.15[41, 103, 255, 146, 50, 30, 18, 20]
2.15[41, 103, 255, 146, 50, 30, 18, 20]
2.15[41, 103, 255, 146, 50, 30, 18, 20]
2.15[41, 103, 255, 146, 50, 30, 18, 20]
2.15[41, 103, 255, 146, 50, 30, 18, 20]
2.15[41, 105, 267, 160, 57, 34, 20, 21]
2.17[41, 105, 267, 160, 57, 34, 20, 21]
2.17[41, 105, 267, 160, 57, 34, 20, 21]
2.17[41, 105, 267, 160, 57, 34, 20, 21]
2.17[41, 105, 267, 160, 57, 34, 20, 21]
2.17[41, 105, 267, 160, 57, 34, 20, 21]
2.17[41, 105, 267, 160, 57, 34, 20, 21]
2.17[41, 105, 267, 160, 57, 34, 20, 21]
2.17[41, 69, 227, 151, 56, 31, 20, 21]
2.19[41, 69, 227, 151, 56, 31, 20, 21]
2.19[41, 69, 227, 151, 56, 31, 20, 21]
2.19[41, 69, 227, 151, 56, 31, 20, 21]
2.19[41, 69, 227, 151, 56, 31, 20, 21]
2.19[41, 69, 227, 151, 56, 31, 20, 21]
2.19[41, 69, 227, 151, 56, 31, 20, 21]
2.19[41, 69, 227, 151, 56, 31, 20, 21]
2.19[42, 80, 275, 177, 55, 29, 21, 23]
2.21[42, 80, 275, 177, 55, 29, 21, 23]
2.21[42, 80, 275, 177, 55, 29, 21, 23]
2.21[42, 80, 275, 177, 55, 29, 21, 23]
2.21[42, 80, 275, 177, 55, 29, 21, 23]
2.21[42, 80, 275, 177, 55, 29, 21, 23]
2.21[42, 80, 275, 177, 55, 29, 21, 23]
2.21[42, 80, 275, 177, 55, 29, 21, 23]
2.21[39, 98, 299, 186, 56, 30, 21, 26]
2.23[39, 98, 299, 186, 56, 30, 21, 26]
2.23[39, 98, 299, 186, 56, 30, 21, 26]
2.23[39, 98, 299, 186, 56, 30, 21, 26]
2.23[39, 98, 299, 186, 56, 30, 21, 26]
2.23[39, 98, 299, 186, 56, 30, 21, 26]
2.23[39, 98, 299, 186, 56, 30, 21, 26]
2.23[39, 98, 299, 186, 56, 30, 21, 26]
2.23[33, 96, 295, 171, 54, 30, 22, 27]
2.25[33, 96, 295, 171, 54, 30, 22, 27]
2.25[33, 96, 295, 171, 54, 30, 22, 27]
2.25[33, 96, 295, 171, 54, 30, 22, 27]
2.25[33, 96, 295, 171, 54, 30, 22, 27]
2.25[33, 96, 295, 171, 54, 30, 22, 27]
2.25[33, 96, 295, 171, 54, 30, 22, 27]
2.25[33, 96, 295, 171, 54, 30, 22, 27]
2.25[34, 94, 270, 162, 47, 26, 22, 26]
2.27[34, 94, 270, 162, 47, 26, 22, 26]
2.27[34, 94, 270, 162, 47, 26, 22, 26]
2.27[34, 94, 270, 162, 47, 26, 22, 26]
2.27[34, 94, 270, 162, 47, 26, 22, 26]
2.27[34, 94, 270, 162, 47, 26, 22, 26]
2.27[34, 94, 270, 162, 47, 26, 22, 26]
2.27[34, 94, 270, 162, 47, 26, 22, 26]
2.27[31, 92, 270, 168, 42, 28, 22, 24]
2.29[31, 92, 270, 168, 42, 28, 22, 24]
2.29[31, 92, 270, 168, 42, 28, 22, 24]
2.29[31, 92, 270, 168, 42, 28, 22, 24]
2.29[31, 92, 270, 168, 42, 28, 22, 24]
2.29[31, 92, 270, 168, 42, 28, 22, 24]
2.29[31, 92, 270, 168, 42, 28, 22, 24]
2.29[31, 92, 270, 168, 42, 28, 22, 24]
2.29[30, 82, 212, 142, 46, 31, 24, 22]
2.31[30, 82, 212, 142, 46, 31, 24, 22]
2.31[30, 82, 212, 142, 46, 31, 24, 22]
2.31[30, 82, 212, 142, 46, 31, 24, 22]
2.31[30, 82, 212, 142, 46, 31, 24, 22]
2.31[30, 82, 212, 142, 46, 31, 24, 22]
2.31[30, 82, 212, 142, 46, 31, 24, 22]
2.31[30, 82, 212, 142, 46, 31, 24, 22]
2.31[26, 47, 228, 161, 50, 36, 26, 19]
2.33[26, 47, 228, 161, 50, 36, 26, 19]
2.33[26, 47, 228, 161, 50, 36, 26, 19]
2.33[26, 47, 228, 161, 50, 36, 26, 19]
2.33[26, 47, 228, 161, 50, 36, 26, 19]
2.33[26, 47, 228, 161, 50, 36, 26, 19]
2.33[26, 47, 228, 161, 50, 36, 26, 19]
2.33[26, 47, 228, 161, 50, 36, 26, 19]
2.33[25, 39, 237, 185, 64, 35, 25, 18]
2.35[25, 39, 237, 185, 64, 35, 25, 18]
2.35[25, 39, 237, 185, 64, 35, 25, 18]
2.35[25, 39, 237, 185, 64, 35, 25, 18]
2.35[25, 39, 237, 185, 64, 35, 25, 18]
2.35[25, 39, 237, 185, 64, 35, 25, 18]
2.35[25, 39, 237, 185, 64, 35, 25, 18]
2.35[25, 39, 237, 185, 64, 35, 25, 18]
2.35[25, 40, 243, 199, 70, 37, 24, 19]
2.37[25, 40, 243, 199, 70, 37, 24, 19]
2.37[25, 40, 243, 199, 70, 37, 24, 19]
2.37[25, 40, 243, 199, 70, 37, 24, 19]
2.37[25, 40, 243, 199, 70, 37, 24, 19]
2.37[25, 40, 243, 199, 70, 37, 24, 19]
2.37[25, 40, 243, 199, 70, 37, 24, 19]
2.37[25, 40, 243, 199, 70, 37, 24, 19]
2.37[27, 51, 372, 189, 68, 37, 27, 23]
2.39[27, 51, 372, 189, 68, 37, 27, 23]
2.39[27, 51, 372, 189, 68, 37, 27, 23]
2.39[27, 51, 372, 189, 68, 37, 27, 23]
2.39[27, 51, 372, 189, 68, 37, 27, 23]
2.39[27, 51, 372, 189, 68, 37, 27, 23]
2.39[27, 51, 372, 189, 68, 37, 27, 23]
2.39[27, 51, 372, 189, 68, 37, 27, 23]
2.39[25, 51, 366, 202, 66, 36, 26, 21]
2.41[25, 51, 366, 202, 66, 36, 26, 21]
2.41[25, 51, 366, 202, 66, 36, 26, 21]
2.41[25, 51, 366, 202, 66, 36, 26, 21]
2.41[25, 51, 366, 202, 66, 36, 26, 21]
2.41[25, 51, 366, 202, 66, 36, 26, 21]
2.41[25, 51, 366, 202, 66, 36, 26, 21]
2.41[25, 51, 366, 202, 66, 36, 26, 21]
2.41[31, 65, 340, 189, 65, 33, 27, 24]
2.43[31, 65, 340, 189, 65, 33, 27, 24]
2.43[31, 65, 340, 189, 65, 33, 27, 24]
2.43[31, 65, 340, 189, 65, 33, 27, 24]
2.43[31, 65, 340, 189, 65, 33, 27, 24]
2.43[31, 65, 340, 189, 65, 33, 27, 24]
2.43[31, 65, 340, 189, 65, 33, 27, 24]
2.43[31, 65, 340, 189, 65, 33, 27, 24]
2.43[31, 66, 350, 179, 59, 34, 29, 25]
2.45[31, 66, 350, 179, 59, 34, 29, 25]
2.45[31, 66, 350, 179, 59, 34, 29, 25]
2.45[31, 66, 350, 179, 59, 34, 29, 25]
2.45[31, 66, 350, 179, 59, 34, 29, 25]
2.45[31, 66, 350, 179, 59, 34, 29, 25]
2.45[31, 66, 350, 179, 59, 34, 29, 25]
2.45[31, 66, 350, 179, 59, 34, 29, 25]
2.45[33, 75, 426, 202, 61, 41, 34, 30]
2.47[33, 75, 426, 202, 61, 41, 34, 30]
2.47[33, 75, 426, 202, 61, 41, 34, 30]
2.47[33, 75, 426, 202, 61, 41, 34, 30]
2.47[33, 75, 426, 202, 61, 41, 34, 30]
2.47[33, 75, 426, 202, 61, 41, 34, 30]
2.47[33, 75, 426, 202, 61, 41, 34, 30]
2.47[33, 75, 426, 202, 61, 41, 34, 30]
2.47[34, 70, 340, 246, 76, 43, 33, 29]
2.49[34, 70, 340, 246, 76, 43, 33, 29]
2.49[34, 70, 340, 246, 76, 43, 33, 29]
2.49[34, 70, 340, 246, 76, 43, 33, 29]
2.49[34, 70, 340, 246, 76, 43, 33, 29]
2.49[34, 70, 340, 246, 76, 43, 33, 29]
2.49[34, 70, 340, 246, 76, 43, 33, 29]
2.49[34, 70, 340, 246, 76, 43, 33, 29]
2.49[43, 80, 354, 245, 90, 48, 32, 30]
2.51[43, 80, 354, 245, 90, 48, 32, 30]
2.51[43, 80, 354, 245, 90, 48, 32, 30]
2.51[43, 80, 354, 245, 90, 48, 32, 30]
2.51[43, 80, 354, 245, 90, 48, 32, 30]
2.51[43, 80, 354, 245, 90, 48, 32, 30]
2.51[43, 80, 354, 245, 90, 48, 32, 30]
2.51[43, 80, 354, 245, 90, 48, 32, 30]
2.51[49, 83, 400, 253, 103, 54, 33, 31]
2.53[49, 83, 400, 253, 103, 54, 33, 31]
2.53[49, 83, 400, 253, 103, 54, 33, 31]
2.53[49, 83, 400, 253, 103, 54, 33, 31]
2.53[49, 83, 400, 253, 103, 54, 33, 31]
2.53[49, 83, 400, 253, 103, 54, 33, 31]
2.53[49, 83, 400, 253, 103, 54, 33, 31]
2.53[49, 83, 400, 253, 103, 54, 33, 31]
2.53[72, 113, 421, 292, 114, 55, 33, 33]
2.55[72, 113, 421, 292, 114, 55, 33, 33]
2.55[72, 113, 421, 292, 114, 55, 33, 33]
2.55[72, 113, 421, 292, 114, 55, 33, 33]
2.55[72, 113, 421, 292, 114, 55, 33, 33]
2.55[72, 113, 421, 292, 114, 55, 33, 33]
2.55[72, 113, 421, 292, 114, 55, 33, 33]
2.55[72, 113, 421, 292, 114, 55, 33, 33]
2.55[75, 125, 369, 313, 129, 56, 33, 33]
2.57[75, 125, 369, 313, 129, 56, 33, 33]
2.57[75, 125, 369, 313, 129, 56, 33, 33]
2.57[75, 125, 369, 313, 129, 56, 33, 33]
2.57[75, 125, 369, 313, 129, 56, 33, 33]
2.57[75, 125, 369, 313, 129, 56, 33, 33]
2.57[75, 125, 369, 313, 129, 56, 33, 33]
2.57[75, 125, 369, 313, 129, 56, 33, 33]
2.57[83, 139, 375, 294, 127, 54, 31, 34]
2.59[83, 139, 375, 294, 127, 54, 31, 34]
2.59[83, 139, 375, 294, 127, 54, 31, 34]
2.59[83, 139, 375, 294, 127, 54, 31, 34]
2.59[83, 139, 375, 294, 127, 54, 31, 34]
2.59[83, 139, 375, 294, 127, 54, 31, 34]
2.59[83, 139, 375, 294, 127, 54, 31, 34]
2.59[83, 139, 375, 294, 127, 54, 31, 34]
2.59[85, 144, 412, 327, 136, 55, 31, 35]
2.61[85, 144, 412, 327, 136, 55, 31, 35]
2.61[85, 144, 412, 327, 136, 55, 31, 35]
2.61[85, 144, 412, 327, 136, 55, 31, 35]
2.61[85, 144, 412, 327, 136, 55, 31, 35]
2.61[85, 144, 412, 327, 136, 55, 31, 35]
2.61[85, 144, 412, 327, 136, 55, 31, 35]
2.61[85, 144, 412, 327, 136, 55, 31, 35]
2.61[86, 157, 405, 339, 148, 58, 34, 38]
2.63[86, 157, 405, 339, 148, 58, 34, 38]
2.63[86, 157, 405, 339, 148, 58, 34, 38]
2.63[86, 157, 405, 339, 148, 58, 34, 38]
2.63[86, 157, 405, 339, 148, 58, 34, 38]
2.63[86, 157, 405, 339, 148, 58, 34, 38]
2.63[86, 157, 405, 339, 148, 58, 34, 38]
2.63[86, 157, 405, 339, 148, 58, 34, 38]
2.63[78, 143, 399, 320, 148, 59, 36, 35]
2.65[78, 143, 399, 320, 148, 59, 36, 35]
2.65[78, 143, 399, 320, 148, 59, 36, 35]
2.65[78, 143, 399, 320, 148, 59, 36, 35]
2.65[78, 143, 399, 320, 148, 59, 36, 35]
2.65[78, 143, 399, 320, 148, 59, 36, 35]
2.65[78, 143, 399, 320, 148, 59, 36, 35]
2.65[78, 143, 399, 320, 148, 59, 36, 35]
2.65[87, 151, 385, 307, 154, 59, 34, 35]
2.67[87, 151, 385, 307, 154, 59, 34, 35]
2.67[87, 151, 385, 307, 154, 59, 34, 35]
2.67[87, 151, 385, 307, 154, 59, 34, 35]
2.67[87, 151, 385, 307, 154, 59, 34, 35]
2.67[87, 151, 385, 307, 154, 59, 34, 35]
2.67[87, 151, 385, 307, 154, 59, 34, 35]
2.67[87, 151, 385, 307, 154, 59, 34, 35]
2.67[87, 170, 475, 333, 172, 67, 36, 36]
2.69[87, 170, 475, 333, 172, 67, 36, 36]
2.69[87, 170, 475, 333, 172, 67, 36, 36]
2.69[87, 170, 475, 333, 172, 67, 36, 36]
2.69[87, 170, 475, 333, 172, 67, 36, 36]
2.69[87, 170, 475, 333, 172, 67, 36, 36]
2.69[87, 170, 475, 333, 172, 67, 36, 36]
2.69[87, 170, 475, 333, 172, 67, 36, 36]
2.69[90, 196, 476, 331, 169, 63, 36, 34]
2.71[90, 196, 476, 331, 169, 63, 36, 34]
2.71[90, 196, 476, 331, 169, 63, 36, 34]
2.71[90, 196, 476, 331, 169, 63, 36, 34]
2.71[90, 196, 476, 331, 169, 63, 36, 34]
2.71[90, 196, 476, 331, 169, 63, 36, 34]
2.71[90, 196, 476, 331, 169, 63, 36, 34]
2.71[90, 196, 476, 331, 169, 63, 36, 34]
2.71[97, 206, 491, 355, 159, 58, 37, 35]
2.73[97, 206, 491, 355, 159, 58, 37, 35]
2.73[97, 206, 491, 355, 159, 58, 37, 35]
2.73[97, 206, 491, 355, 159, 58, 37, 35]
2.73[97, 206, 491, 355, 159, 58, 37, 35]
2.73[97, 206, 491, 355, 159, 58, 37, 35]
2.73[97, 206, 491, 355, 159, 58, 37, 35]
2.73[97, 206, 491, 355, 159, 58, 37, 35]
2.73[105, 217, 502, 350, 178, 65, 42, 40]
2.75[105, 217, 502, 350, 178, 65, 42, 40]
2.75[105, 217, 502, 350, 178, 65, 42, 40]
2.75[105, 217, 502, 350, 178, 65, 42, 40]
2.75[105, 217, 502, 350, 178, 65, 42, 40]
2.75[105, 217, 502, 350, 178, 65, 42, 40]
2.75[105, 217, 502, 350, 178, 65, 42, 40]
2.75[105, 217, 502, 350, 178, 65, 42, 40]
2.75[103, 212, 508, 344, 181, 65, 41, 40]
2.77[103, 212, 508, 344, 181, 65, 41, 40]
2.77[103, 212, 508, 344, 181, 65, 41, 40]
2.77[103, 212, 508, 344, 181, 65, 41, 40]
2.77[103, 212, 508, 344, 181, 65, 41, 40]
2.77[103, 212, 508, 344, 181, 65, 41, 40]
2.77[103, 212, 508, 344, 181, 65, 41, 40]
2.77[103, 212, 508, 344, 181, 65, 41, 40]
2.77[113, 201, 431, 308, 169, 60, 41, 39]
2.79[113, 201, 431, 308, 169, 60, 41, 39]
2.79[113, 201, 431, 308, 169, 60, 41, 39]
2.79[113, 201, 431, 308, 169, 60, 41, 39]
2.79[113, 201, 431, 308, 169, 60, 41, 39]
2.79[113, 201, 431, 308, 169, 60, 41, 39]
2.79[113, 201, 431, 308, 169, 60, 41, 39]
2.79[113, 201, 431, 308, 169, 60, 41, 39]
2.79[110, 179, 402, 363, 180, 69, 42, 41]
2.81[110, 179, 402, 363, 180, 69, 42, 41]
2.81[110, 179, 402, 363, 180, 69, 42, 41]
2.81[110, 179, 402, 363, 180, 69, 42, 41]
2.81[110, 179, 402, 363, 180, 69, 42, 41]
2.81[110, 179, 402, 363, 180, 69, 42, 41]
2.81[110, 179, 402, 363, 180, 69, 42, 41]
2.81[110, 179, 402, 363, 180, 69, 42, 41]
2.81[106, 181, 404, 405, 194, 71, 42, 37]
2.83[106, 181, 404, 405, 194, 71, 42, 37]
2.83[106, 181, 404, 405, 194, 71, 42, 37]
2.83[106, 181, 404, 405, 194, 71, 42, 37]
2.83[106, 181, 404, 405, 194, 71, 42, 37]
2.83[106, 181, 404, 405, 194, 71, 42, 37]
2.83[106, 181, 404, 405, 194, 71, 42, 37]
2.83[106, 181, 404, 405, 194, 71, 42, 37]
2.83[97, 182, 425, 402, 179, 67, 39, 34]
2.85[97, 182, 425, 402, 179, 67, 39, 34]
2.85[97, 182, 425, 402, 179, 67, 39, 34]
2.85[97, 182, 425, 402, 179, 67, 39, 34]
2.85[97, 182, 425, 402, 179, 67, 39, 34]
2.85[97, 182, 425, 402, 179, 67, 39, 34]
2.85[97, 182, 425, 402, 179, 67, 39, 34]
2.85[97, 182, 425, 402, 179, 67, 39, 34]
2.85[107, 200, 417, 425, 176, 70, 44, 36]
2.88[107, 200, 417, 425, 176, 70, 44, 36]
2.88[107, 200, 417, 425, 176, 70, 44, 36]
2.88[107, 200, 417, 425, 176, 70, 44, 36]
2.88[107, 200, 417, 425, 176, 70, 44, 36]
2.88[107, 200, 417, 425, 176, 70, 44, 36]
2.88[107, 200, 417, 425, 176, 70, 44, 36]
2.88[107, 200, 417, 425, 176, 70, 44, 36]
2.88[96, 202, 418, 488, 188, 71, 44, 37]
2.89[96, 202, 418, 488, 188, 71, 44, 37]
2.89[96, 202, 418, 488, 188, 71, 44, 37]
2.89[96, 202, 418, 488, 188, 71, 44, 37]
2.89[96, 202, 418, 488, 188, 71, 44, 37]
2.89[96, 202, 418, 488, 188, 71, 44, 37]
2.89[96, 202, 418, 488, 188, 71, 44, 37]
2.89[96, 202, 418, 488, 188, 71, 44, 37]
2.89[96, 206, 440, 460, 181, 70, 47, 36]
2.91[96, 206, 440, 460, 181, 70, 47, 36]
2.91[96, 206, 440, 460, 181, 70, 47, 36]
2.91[96, 206, 440, 460, 181, 70, 47, 36]
2.91[96, 206, 440, 460, 181, 70, 47, 36]
2.91[96, 206, 440, 460, 181, 70, 47, 36]
2.91[96, 206, 440, 460, 181, 70, 47, 36]
2.91[96, 206, 440, 460, 181, 70, 47, 36]
2.91[93, 191, 408, 391, 162, 68, 46, 36]
2.93[93, 191, 408, 391, 162, 68, 46, 36]
2.93[93, 191, 408, 391, 162, 68, 46, 36]
2.93[93, 191, 408, 391, 162, 68, 46, 36]
2.93[93, 191, 408, 391, 162, 68, 46, 36]
2.93[93, 191, 408, 391, 162, 68, 46, 36]
2.93[93, 191, 408, 391, 162, 68, 46, 36]
2.93[93, 191, 408, 391, 162, 68, 46, 36]
2.93[102, 189, 365, 388, 157, 66, 43, 34]
2.95[102, 189, 365, 388, 157, 66, 43, 34]
2.95[102, 189, 365, 388, 157, 66, 43, 34]
2.95[102, 189, 365, 388, 157, 66, 43, 34]
2.95[102, 189, 365, 388, 157, 66, 43, 34]
2.95[102, 189, 365, 388, 157, 66, 43, 34]
2.95[102, 189, 365, 388, 157, 66, 43, 34]
2.95[102, 189, 365, 388, 157, 66, 43, 34]
2.95[91, 168, 408, 365, 146, 62, 40, 30]
2.97[91, 168, 408, 365, 146, 62, 40, 30]
2.97[91, 168, 408, 365, 146, 62, 40, 30]
2.97[91, 168, 408, 365, 146, 62, 40, 30]
2.97[91, 168, 408, 365, 146, 62, 40, 30]
2.97[91, 168, 408, 365, 146, 62, 40, 30]
2.97[91, 168, 408, 365, 146, 62, 40, 30]
2.97[91, 168, 408, 365, 146, 62, 40, 30]
2.97[93, 161, 443, 341, 153, 66, 41, 31]
2.99[93, 161, 443, 341, 153, 66, 41, 31]
2.99[93, 161, 443, 341, 153, 66, 41, 31]
2.99[93, 161, 443, 341, 153, 66, 41, 31]
2.99[93, 161, 443, 341, 153, 66, 41, 31]
2.99[93, 161, 443, 341, 153, 66, 41, 31]
2.99[93, 161, 443, 341, 153, 66, 41, 31]
2.99[93, 161, 443, 341, 153, 66, 41, 31]
2.99[93, 155, 427, 338, 150, 61, 38, 31]
3.01[93, 155, 427, 338, 150, 61, 38, 31]
3.01[93, 155, 427, 338, 150, 61, 38, 31]
3.01[93, 155, 427, 338, 150, 61, 38, 31]
3.01[93, 155, 427, 338, 150, 61, 38, 31]
3.01[93, 155, 427, 338, 150, 61, 38, 31]
3.01[93, 155, 427, 338, 150, 61, 38, 31]
3.01[93, 155, 427, 338, 150, 61, 38, 31]
3.01[93, 153, 413, 337, 149, 60, 38, 32]
3.03[93, 153, 413, 337, 149, 60, 38, 32]
3.03[93, 153, 413, 337, 149, 60, 38, 32]
3.03[93, 153, 413, 337, 149, 60, 38, 32]
3.03[93, 153, 413, 337, 149, 60, 38, 32]
3.03[93, 153, 413, 337, 149, 60, 38, 32]
3.03[93, 153, 413, 337, 149, 60, 38, 32]
3.03[93, 153, 413, 337, 149, 60, 38, 32]
3.03[89, 143, 447, 372, 159, 65, 40, 35]
3.05[89, 143, 447, 372, 159, 65, 40, 35]
3.05[89, 143, 447, 372, 159, 65, 40, 35]
3.05[89, 143, 447, 372, 159, 65, 40, 35]
3.05[89, 143, 447, 372, 159, 65, 40, 35]
3.05[89, 143, 447, 372, 159, 65, 40, 35]
3.05[89, 143, 447, 372, 159, 65, 40, 35]
3.05[89, 143, 447, 372, 159, 65, 40, 35]
3.05[87, 132, 404, 374, 169, 69, 45, 38]
3.08[87, 132, 404, 374, 169, 69, 45, 38]
3.08[87, 132, 404, 374, 169, 69, 45, 38]
3.08[87, 132, 404, 374, 169, 69, 45, 38]
3.08[87, 132, 404, 374, 169, 69, 45, 38]
3.08[87, 132, 404, 374, 169, 69, 45, 38]
3.08[87, 132, 404, 374, 169, 69, 45, 38]
3.08[87, 132, 404, 374, 169, 69, 45, 38]
3.08[95, 141, 350, 328, 141, 61, 44, 38]
3.09[95, 141, 350, 328, 141, 61, 44, 38]
3.09[95, 141, 350, 328, 141, 61, 44, 38]
3.09[95, 141, 350, 328, 141, 61, 44, 38]
3.09[95, 141, 350, 328, 141, 61, 44, 38]
3.09[95, 141, 350, 328, 141, 61, 44, 38]
3.09[95, 141, 350, 328, 141, 61, 44, 38]
3.09[95, 141, 350, 328, 141, 61, 44, 38]
3.09[102, 152, 377, 322, 138, 61, 46, 39]
3.11[102, 152, 377, 322, 138, 61, 46, 39]
3.11[102, 152, 377, 322, 138, 61, 46, 39]
3.11[102, 152, 377, 322, 138, 61, 46, 39]
3.11[102, 152, 377, 322, 138, 61, 46, 39]
3.11[102, 152, 377, 322, 138, 61, 46, 39]
3.11[102, 152, 377, 322, 138, 61, 46, 39]
3.11[102, 152, 377, 322, 138, 61, 46, 39]
3.11[113, 150, 385, 332, 155, 67, 46, 41]
3.13[113, 150, 385, 332, 155, 67, 46, 41]
3.13[113, 150, 385, 332, 155, 67, 46, 41]
3.13[113, 150, 385, 332, 155, 67, 46, 41]
3.13[113, 150, 385, 332, 155, 67, 46, 41]
3.13[113, 150, 385, 332, 155, 67, 46, 41]
3.13[113, 150, 385, 332, 155, 67, 46, 41]
3.13[113, 150, 385, 332, 155, 67, 46, 41]
3.13[107, 148, 347, 348, 167, 70, 49, 47]
3.15[107, 148, 347, 348, 167, 70, 49, 47]
3.15[107, 148, 347, 348, 167, 70, 49, 47]
3.15[107, 148, 347, 348, 167, 70, 49, 47]
3.15[107, 148, 347, 348, 167, 70, 49, 47]
3.15[107, 148, 347, 348, 167, 70, 49, 47]
3.15[107, 148, 347, 348, 167, 70, 49, 47]
3.15[107, 148, 347, 348, 167, 70, 49, 47]
3.15[119, 146, 353, 351, 167, 67, 42, 43]
3.17[119, 146, 353, 351, 167, 67, 42, 43]
3.17[119, 146, 353, 351, 167, 67, 42, 43]
3.17[119, 146, 353, 351, 167, 67, 42, 43]
3.17[119, 146, 353, 351, 167, 67, 42, 43]
3.17[119, 146, 353, 351, 167, 67, 42, 43]
3.17[119, 146, 353, 351, 167, 67, 42, 43]
3.17[119, 146, 353, 351, 167, 67, 42, 43]
3.17[121, 145, 342, 391, 171, 68, 41, 42]
3.19[121, 145, 342, 391, 171, 68, 41, 42]
3.19[121, 145, 342, 391, 171, 68, 41, 42]
3.19[121, 145, 342, 391, 171, 68, 41, 42]
3.19[121, 145, 342, 391, 171, 68, 41, 42]
3.19[121, 145, 342, 391, 171, 68, 41, 42]
3.19[121, 145, 342, 391, 171, 68, 41, 42]
3.19[121, 145, 342, 391, 171, 68, 41, 42]
3.19[115, 128, 293, 392, 189, 67, 39, 43]
3.21[115, 128, 293, 392, 189, 67, 39, 43]
3.21[115, 128, 293, 392, 189, 67, 39, 43]
3.21[115, 128, 293, 392, 189, 67, 39, 43]
3.21[115, 128, 293, 392, 189, 67, 39, 43]
3.21[115, 128, 293, 392, 189, 67, 39, 43]
3.21[115, 128, 293, 392, 189, 67, 39, 43]
3.21[115, 128, 293, 392, 189, 67, 39, 43]
3.21[102, 121, 282, 381, 177, 63, 38, 41]
3.23[102, 121, 282, 381, 177, 63, 38, 41]
3.23[102, 121, 282, 381, 177, 63, 38, 41]
3.23[102, 121, 282, 381, 177, 63, 38, 41]
3.23[102, 121, 282, 381, 177, 63, 38, 41]
3.23[102, 121, 282, 381, 177, 63, 38, 41]
3.23[102, 121, 282, 381, 177, 63, 38, 41]
3.23[102, 121, 282, 381, 177, 63, 38, 41]
3.23[105, 119, 257, 341, 155, 52, 30, 31]
3.25[105, 119, 257, 341, 155, 52, 30, 31]
3.25[105, 119, 257, 341, 155, 52, 30, 31]
3.25[105, 119, 257, 341, 155, 52, 30, 31]
3.25[105, 119, 257, 341, 155, 52, 30, 31]
3.25[105, 119, 257, 341, 155, 52, 30, 31]
3.25[105, 119, 257, 341, 155, 52, 30, 31]
3.25[105, 119, 257, 341, 155, 52, 30, 31]
3.25[90, 154, 258, 354, 144, 51, 32, 34]
3.27[90, 154, 258, 354, 144, 51, 32, 34]
3.27[90, 154, 258, 354, 144, 51, 32, 34]
3.27[90, 154, 258, 354, 144, 51, 32, 34]
3.27[90, 154, 258, 354, 144, 51, 32, 34]
3.27[90, 154, 258, 354, 144, 51, 32, 34]
3.27[90, 154, 258, 354, 144, 51, 32, 34]
3.27[90, 154, 258, 354, 144, 51, 32, 34]
3.27[83, 156, 283, 333, 151, 56, 35, 37]
3.29[83, 156, 283, 333, 151, 56, 35, 37]
3.29[83, 156, 283, 333, 151, 56, 35, 37]
3.29[83, 156, 283, 333, 151, 56, 35, 37]
3.29[83, 156, 283, 333, 151, 56, 35, 37]
3.29[83, 156, 283, 333, 151, 56, 35, 37]
3.29[83, 156, 283, 333, 151, 56, 35, 37]
3.29[83, 156, 283, 333, 151, 56, 35, 37]
3.29[80, 154, 358, 326, 121, 54, 34, 33]
3.31[80, 154, 358, 326, 121, 54, 34, 33]
3.31[80, 154, 358, 326, 121, 54, 34, 33]
3.31[80, 154, 358, 326, 121, 54, 34, 33]
3.31[80, 154, 358, 326, 121, 54, 34, 33]
3.31[80, 154, 358, 326, 121, 54, 34, 33]
3.31[80, 154, 358, 326, 121, 54, 34, 33]
3.31[80, 154, 358, 326, 121, 54, 34, 33]
3.31[83, 153, 390, 334, 116, 51, 34, 33]
3.33[83, 153, 390, 334, 116, 51, 34, 33]
3.33[83, 153, 390, 334, 116, 51, 34, 33]
3.33[83, 153, 390, 334, 116, 51, 34, 33]
3.33[83, 153, 390, 334, 116, 51, 34, 33]
3.33[83, 153, 390, 334, 116, 51, 34, 33]
3.33[83, 153, 390, 334, 116, 51, 34, 33]
3.33[83, 153, 390, 334, 116, 51, 34, 33]
3.33[88, 149, 490, 354, 112, 52, 34, 33]
3.35[88, 149, 490, 354, 112, 52, 34, 33]
3.35[88, 149, 490, 354, 112, 52, 34, 33]
3.35[88, 149, 490, 354, 112, 52, 34, 33]
3.35[88, 149, 490, 354, 112, 52, 34, 33]
3.35[88, 149, 490, 354, 112, 52, 34, 33]
3.35[88, 149, 490, 354, 112, 52, 34, 33]
3.35[88, 149, 490, 354, 112, 52, 34, 33]
3.35[113, 130, 502, 324, 114, 50, 37, 36]
3.37[113, 130, 502, 324, 114, 50, 37, 36]
3.37[113, 130, 502, 324, 114, 50, 37, 36]
3.37[113, 130, 502, 324, 114, 50, 37, 36]
3.37[113, 130, 502, 324, 114, 50, 37, 36]
3.37[113, 130, 502, 324, 114, 50, 37, 36]
3.37[113, 130, 502, 324, 114, 50, 37, 36]
3.37[113, 130, 502, 324, 114, 50, 37, 36]
3.37[106, 104, 501, 328, 98, 45, 35, 32]
3.39[106, 104, 501, 328, 98, 45, 35, 32]
3.39[106, 104, 501, 328, 98, 45, 35, 32]
3.39[106, 104, 501, 328, 98, 45, 35, 32]
3.39[106, 104, 501, 328, 98, 45, 35, 32]
3.39[106, 104, 501, 328, 98, 45, 35, 32]
3.39[106, 104, 501, 328, 98, 45, 35, 32]
3.39[106, 104, 501, 328, 98, 45, 35, 32]
3.39[108, 104, 450, 304, 105, 47, 37, 34]
3.41[108, 104, 450, 304, 105, 47, 37, 34]
3.41[108, 104, 450, 304, 105, 47, 37, 34]
3.41[108, 104, 450, 304, 105, 47, 37, 34]
3.41[108, 104, 450, 304, 105, 47, 37, 34]
3.41[108, 104, 450, 304, 105, 47, 37, 34]
3.41[108, 104, 450, 304, 105, 47, 37, 34]
3.41[108, 104, 450, 304, 105, 47, 37, 34]
3.41[105, 100, 458, 317, 117, 56, 40, 33]
3.43[105, 100, 458, 317, 117, 56, 40, 33]
3.43[105, 100, 458, 317, 117, 56, 40, 33]
3.43[105, 100, 458, 317, 117, 56, 40, 33]
3.43[105, 100, 458, 317, 117, 56, 40, 33]
3.43[105, 100, 458, 317, 117, 56, 40, 33]
3.43[105, 100, 458, 317, 117, 56, 40, 33]
3.43[105, 100, 458, 317, 117, 56, 40, 33]
3.43[103, 139, 346, 317, 150, 67, 47, 36]
3.45[103, 139, 346, 317, 150, 67, 47, 36]
3.45[103, 139, 346, 317, 150, 67, 47, 36]
3.45[103, 139, 346, 317, 150, 67, 47, 36]
3.45[103, 139, 346, 317, 150, 67, 47, 36]
3.45[103, 139, 346, 317, 150, 67, 47, 36]
3.45[103, 139, 346, 317, 150, 67, 47, 36]
3.45[103, 139, 346, 317, 150, 67, 47, 36]
3.45[79, 126, 342, 332, 149, 73, 46, 32]
3.47[79, 126, 342, 332, 149, 73, 46, 32]
3.47[79, 126, 342, 332, 149, 73, 46, 32]
3.47[79, 126, 342, 332, 149, 73, 46, 32]
3.47[79, 126, 342, 332, 149, 73, 46, 32]
3.47[79, 126, 342, 332, 149, 73, 46, 32]
3.47[79, 126, 342, 332, 149, 73, 46, 32]
3.47[79, 126, 342, 332, 149, 73, 46, 32]
3.47[102, 140, 445, 334, 163, 79, 48, 34]
3.49[102, 140, 445, 334, 163, 79, 48, 34]
3.49[102, 140, 445, 334, 163, 79, 48, 34]
3.49[102, 140, 445, 334, 163, 79, 48, 34]
3.49[102, 140, 445, 334, 163, 79, 48, 34]
3.49[102, 140, 445, 334, 163, 79, 48, 34]
3.49[102, 140, 445, 334, 163, 79, 48, 34]
3.49[102, 140, 445, 334, 163, 79, 48, 34]
3.49[107, 144, 523, 333, 164, 78, 47, 33]
3.51[107, 144, 523, 333, 164, 78, 47, 33]
3.51[107, 144, 523, 333, 164, 78, 47, 33]
3.51[107, 144, 523, 333, 164, 78, 47, 33]
3.51[107, 144, 523, 333, 164, 78, 47, 33]
3.51[107, 144, 523, 333, 164, 78, 47, 33]
3.51[107, 144, 523, 333, 164, 78, 47, 33]
3.51[107, 144, 523, 333, 164, 78, 47, 33]
3.51[111, 150, 499, 344, 163, 73, 46, 34]
3.53[111, 150, 499, 344, 163, 73, 46, 34]
3.53[111, 150, 499, 344, 163, 73, 46, 34]
3.53[111, 150, 499, 344, 163, 73, 46, 34]
3.53[111, 150, 499, 344, 163, 73, 46, 34]
3.53[111, 150, 499, 344, 163, 73, 46, 34]
3.53[111, 150, 499, 344, 163, 73, 46, 34]
3.53[111, 150, 499, 344, 163, 73, 46, 34]
3.53[105, 119, 505, 319, 134, 63, 40, 31]
3.55[105, 119, 505, 319, 134, 63, 40, 31]
3.55[105, 119, 505, 319, 134, 63, 40, 31]
3.55[105, 119, 505, 319, 134, 63, 40, 31]
3.55[105, 119, 505, 319, 134, 63, 40, 31]
3.55[105, 119, 505, 319, 134, 63, 40, 31]
3.55[105, 119, 505, 319, 134, 63, 40, 31]
3.55[105, 119, 505, 319, 134, 63, 40, 31]
3.55[97, 114, 521, 303, 128, 53, 34, 29]
3.57[97, 114, 521, 303, 128, 53, 34, 29]
3.57[97, 114, 521, 303, 128, 53, 34, 29]
3.57[97, 114, 521, 303, 128, 53, 34, 29]
3.57[97, 114, 521, 303, 128, 53, 34, 29]
3.57[97, 114, 521, 303, 128, 53, 34, 29]
3.57[97, 114, 521, 303, 128, 53, 34, 29]
3.57[97, 114, 521, 303, 128, 53, 34, 29]
3.57[98, 109, 420, 273, 110, 47, 34, 29]
3.59[98, 109, 420, 273, 110, 47, 34, 29]
3.59[98, 109, 420, 273, 110, 47, 34, 29]
3.59[98, 109, 420, 273, 110, 47, 34, 29]
3.59[98, 109, 420, 273, 110, 47, 34, 29]
3.59[98, 109, 420, 273, 110, 47, 34, 29]
3.59[98, 109, 420, 273, 110, 47, 34, 29]
3.59[98, 109, 420, 273, 110, 47, 34, 29]
3.59[97, 126, 355, 306, 125, 51, 35, 31]
3.61[97, 126, 355, 306, 125, 51, 35, 31]
3.61[97, 126, 355, 306, 125, 51, 35, 31]
3.61[97, 126, 355, 306, 125, 51, 35, 31]
3.61[97, 126, 355, 306, 125, 51, 35, 31]
3.61[97, 126, 355, 306, 125, 51, 35, 31]
3.61[97, 126, 355, 306, 125, 51, 35, 31]
3.61[97, 126, 355, 306, 125, 51, 35, 31]
3.61[97, 125, 364, 284, 123, 52, 35, 31]
3.63[97, 125, 364, 284, 123, 52, 35, 31]
3.63[97, 125, 364, 284, 123, 52, 35, 31]
3.63[97, 125, 364, 284, 123, 52, 35, 31]
3.63[97, 125, 364, 284, 123, 52, 35, 31]
3.63[97, 125, 364, 284, 123, 52, 35, 31]
3.63[97, 125, 364, 284, 123, 52, 35, 31]
3.63[97, 125, 364, 284, 123, 52, 35, 31]
3.63[98, 128, 380, 294, 125, 52, 34, 30]
3.65[98, 128, 380, 294, 125, 52, 34, 30]
3.65[98, 128, 380, 294, 125, 52, 34, 30]
3.65[98, 128, 380, 294, 125, 52, 34, 30]
3.65[98, 128, 380, 294, 125, 52, 34, 30]
3.65[98, 128, 380, 294, 125, 52, 34, 30]
3.65[98, 128, 380, 294, 125, 52, 34, 30]
3.65[98, 128, 380, 294, 125, 52, 34, 30]
3.65[103, 141, 395, 294, 120, 55, 38, 31]
3.67[103, 141, 395, 294, 120, 55, 38, 31]
3.67[103, 141, 395, 294, 120, 55, 38, 31]
3.67[103, 141, 395, 294, 120, 55, 38, 31]
3.67[103, 141, 395, 294, 120, 55, 38, 31]
3.67[103, 141, 395, 294, 120, 55, 38, 31]
3.67[103, 141, 395, 294, 120, 55, 38, 31]
3.67[103, 141, 395, 294, 120, 55, 38, 31]
3.67[79, 135, 405, 292, 123, 55, 35, 29]
3.69[79, 135, 405, 292, 123, 55, 35, 29]
3.69[79, 135, 405, 292, 123, 55, 35, 29]
3.69[79, 135, 405, 292, 123, 55, 35, 29]
3.69[79, 135, 405, 292, 123, 55, 35, 29]
3.69[79, 135, 405, 292, 123, 55, 35, 29]
3.69[79, 135, 405, 292, 123, 55, 35, 29]
3.69[79, 135, 405, 292, 123, 55, 35, 29]
3.69[72, 113, 384, 253, 98, 50, 33, 28]
3.71[72, 113, 384, 253, 98, 50, 33, 28]
3.71[72, 113, 384, 253, 98, 50, 33, 28]
3.71[72, 113, 384, 253, 98, 50, 33, 28]
3.71[72, 113, 384, 253, 98, 50, 33, 28]
3.71[72, 113, 384, 253, 98, 50, 33, 28]
3.71[72, 113, 384, 253, 98, 50, 33, 28]
3.71[72, 113, 384, 253, 98, 50, 33, 28]
3.71[84, 110, 394, 254, 91, 50, 37, 28]
3.73[84, 110, 394, 254, 91, 50, 37, 28]
3.73[84, 110, 394, 254, 91, 50, 37, 28]
3.73[84, 110, 394, 254, 91, 50, 37, 28]
3.73[84, 110, 394, 254, 91, 50, 37, 28]
3.73[84, 110, 394, 254, 91, 50, 37, 28]
3.73[84, 110, 394, 254, 91, 50, 37, 28]
3.73[84, 110, 394, 254, 91, 50, 37, 28]
3.73[93, 107, 366, 238, 88, 48, 37, 27]
3.75[93, 107, 366, 238, 88, 48, 37, 27]
3.75[93, 107, 366, 238, 88, 48, 37, 27]
3.75[93, 107, 366, 238, 88, 48, 37, 27]
3.75[93, 107, 366, 238, 88, 48, 37, 27]
3.75[93, 107, 366, 238, 88, 48, 37, 27]
3.75[93, 107, 366, 238, 88, 48, 37, 27]
3.75[93, 107, 366, 238, 88, 48, 37, 27]
3.75[89, 94, 364, 221, 95, 47, 34, 26]
3.77[89, 94, 364, 221, 95, 47, 34, 26]
3.77[89, 94, 364, 221, 95, 47, 34, 26]
3.77[89, 94, 364, 221, 95, 47, 34, 26]
3.77[89, 94, 364, 221, 95, 47, 34, 26]
3.77[89, 94, 364, 221, 95, 47, 34, 26]
3.77[89, 94, 364, 221, 95, 47, 34, 26]
3.77[89, 94, 364, 221, 95, 47, 34, 26]
3.77[90, 101, 369, 275, 108, 54, 37, 25]
3.79[90, 101, 369, 275, 108, 54, 37, 25]
3.79[90, 101, 369, 275, 108, 54, 37, 25]
3.79[90, 101, 369, 275, 108, 54, 37, 25]
3.79[90, 101, 369, 275, 108, 54, 37, 25]
3.79[90, 101, 369, 275, 108, 54, 37, 25]
3.79[90, 101, 369, 275, 108, 54, 37, 25]
3.79[90, 101, 369, 275, 108, 54, 37, 25]
3.79[91, 115, 412, 306, 114, 51, 37, 24]
3.81[91, 115, 412, 306, 114, 51, 37, 24]
3.81[91, 115, 412, 306, 114, 51, 37, 24]
3.81[91, 115, 412, 306, 114, 51, 37, 24]
3.81[91, 115, 412, 306, 114, 51, 37, 24]
3.81[91, 115, 412, 306, 114, 51, 37, 24]
3.81[91, 115, 412, 306, 114, 51, 37, 24]
3.81[91, 115, 412, 306, 114, 51, 37, 24]
3.81[88, 111, 411, 311, 118, 52, 33, 24]
3.83[88, 111, 411, 311, 118, 52, 33, 24]
3.83[88, 111, 411, 311, 118, 52, 33, 24]
3.83[88, 111, 411, 311, 118, 52, 33, 24]
3.83[88, 111, 411, 311, 118, 52, 33, 24]
3.83[88, 111, 411, 311, 118, 52, 33, 24]
3.83[88, 111, 411, 311, 118, 52, 33, 24]
3.83[88, 111, 411, 311, 118, 52, 33, 24]
3.83[81, 112, 422, 323, 123, 52, 31, 22]
3.85[81, 112, 422, 323, 123, 52, 31, 22]
3.85[81, 112, 422, 323, 123, 52, 31, 22]
3.85[81, 112, 422, 323, 123, 52, 31, 22]
3.85[81, 112, 422, 323, 123, 52, 31, 22]
3.85[81, 112, 422, 323, 123, 52, 31, 22]
3.85[81, 112, 422, 323, 123, 52, 31, 22]
3.85[81, 112, 422, 323, 123, 52, 31, 22]
3.85[80, 110, 382, 350, 128, 53, 31, 25]
3.87[80, 110, 382, 350, 128, 53, 31, 25]
3.87[80, 110, 382, 350, 128, 53, 31, 25]
3.87[80, 110, 382, 350, 128, 53, 31, 25]
3.87[80, 110, 382, 350, 128, 53, 31, 25]
3.87[80, 110, 382, 350, 128, 53, 31, 25]
3.87[80, 110, 382, 350, 128, 53, 31, 25]
3.87[80, 110, 382, 350, 128, 53, 31, 25]
3.87[78, 103, 390, 299, 116, 48, 32, 28]
3.89[78, 103, 390, 299, 116, 48, 32, 28]
3.89[78, 103, 390, 299, 116, 48, 32, 28]
3.89[78, 103, 390, 299, 116, 48, 32, 28]
3.89[78, 103, 390, 299, 116, 48, 32, 28]
3.89[78, 103, 390, 299, 116, 48, 32, 28]
3.89[78, 103, 390, 299, 116, 48, 32, 28]
3.89[78, 103, 390, 299, 116, 48, 32, 28]
3.89[86, 101, 323, 256, 111, 51, 35, 29]
3.91[86, 101, 323, 256, 111, 51, 35, 29]
3.91[86, 101, 323, 256, 111, 51, 35, 29]
3.91[86, 101, 323, 256, 111, 51, 35, 29]
3.91[86, 101, 323, 256, 111, 51, 35, 29]
3.91[86, 101, 323, 256, 111, 51, 35, 29]
3.91[86, 101, 323, 256, 111, 51, 35, 29]
3.91[86, 101, 323, 256, 111, 51, 35, 29]
3.91[80, 103, 288, 260, 106, 48, 35, 30]
3.93[80, 103, 288, 260, 106, 48, 35, 30]
3.93[80, 103, 288, 260, 106, 48, 35, 30]
3.93[80, 103, 288, 260, 106, 48, 35, 30]
3.93[80, 103, 288, 260, 106, 48, 35, 30]
3.93[80, 103, 288, 260, 106, 48, 35, 30]
3.93[80, 103, 288, 260, 106, 48, 35, 30]
3.93[80, 103, 288, 260, 106, 48, 35, 30]
3.93[76, 99, 287, 257, 103, 49, 36, 31]
3.95[76, 99, 287, 257, 103, 49, 36, 31]
3.95[76, 99, 287, 257, 103, 49, 36, 31]
3.95[76, 99, 287, 257, 103, 49, 36, 31]
3.95[76, 99, 287, 257, 103, 49, 36, 31]
3.95[76, 99, 287, 257, 103, 49, 36, 31]
3.95[76, 99, 287, 257, 103, 49, 36, 31]
3.95[76, 99, 287, 257, 103, 49, 36, 31]
3.95[79, 101, 294, 253, 88, 47, 36, 32]
3.97[79, 101, 294, 253, 88, 47, 36, 32]
3.97[79, 101, 294, 253, 88, 47, 36, 32]
3.97[79, 101, 294, 253, 88, 47, 36, 32]
3.97[79, 101, 294, 253, 88, 47, 36, 32]
3.97[79, 101, 294, 253, 88, 47, 36, 32]
3.97[79, 101, 294, 253, 88, 47, 36, 32]
3.97[79, 101, 294, 253, 88, 47, 36, 32]
3.97[82, 106, 292, 257, 84, 43, 32, 29]
3.99[82, 106, 292, 257, 84, 43, 32, 29]
3.99[82, 106, 292, 257, 84, 43, 32, 29]
3.99[82, 106, 292, 257, 84, 43, 32, 29]
3.99[82, 106, 292, 257, 84, 43, 32, 29]
3.99[82, 106, 292, 257, 84, 43, 32, 29]
3.99[82, 106, 292, 257, 84, 43, 32, 29]
3.99[82, 106, 292, 257, 84, 43, 32, 29]
3.99[73, 88, 327, 270, 86, 43, 33, 31]
4.01[73, 88, 327, 270, 86, 43, 33, 31]
4.01[73, 88, 327, 270, 86, 43, 33, 31]
4.01[73, 88, 327, 270, 86, 43, 33, 31]
4.01[73, 88, 327, 270, 86, 43, 33, 31]
4.01[73, 88, 327, 270, 86, 43, 33, 31]
4.01[73, 88, 327, 270, 86, 43, 33, 31]
4.01[73, 88, 327, 270, 86, 43, 33, 31]
4.01[80, 104, 337, 265, 89, 42, 34, 31]
4.03[80, 104, 337, 265, 89, 42, 34, 31]
4.03[80, 104, 337, 265, 89, 42, 34, 31]
4.03[80, 104, 337, 265, 89, 42, 34, 31]
4.03[80, 104, 337, 265, 89, 42, 34, 31]
4.03[80, 104, 337, 265, 89, 42, 34, 31]
4.03[80, 104, 337, 265, 89, 42, 34, 31]
4.03[80, 104, 337, 265, 89, 42, 34, 31]
4.03[81, 111, 380, 265, 87, 38, 33, 31]
4.05[81, 111, 380, 265, 87, 38, 33, 31]
4.05[81, 111, 380, 265, 87, 38, 33, 31]
4.05[81, 111, 380, 265, 87, 38, 33, 31]
4.05[81, 111, 380, 265, 87, 38, 33, 31]
4.05[81, 111, 380, 265, 87, 38, 33, 31]
4.05[81, 111, 380, 265, 87, 38, 33, 31]
4.05[81, 111, 380, 265, 87, 38, 33, 31]
4.05[88, 114, 384, 244, 90, 38, 32, 29]
4.07[88, 114, 384, 244, 90, 38, 32, 29]
4.07[88, 114, 384, 244, 90, 38, 32, 29]
4.07[88, 114, 384, 244, 90, 38, 32, 29]
4.07[88, 114, 384, 244, 90, 38, 32, 29]
4.07[88, 114, 384, 244, 90, 38, 32, 29]
4.07[88, 114, 384, 244, 90, 38, 32, 29]
4.07[88, 114, 384, 244, 90, 38, 32, 29]
4.07[87, 113, 391, 251, 95, 38, 35, 31]
4.09[87, 113, 391, 251, 95, 38, 35, 31]
4.09[87, 113, 391, 251, 95, 38, 35, 31]
4.09[87, 113, 391, 251, 95, 38, 35, 31]
4.09[87, 113, 391, 251, 95, 38, 35, 31]
4.09[87, 113, 391, 251, 95, 38, 35, 31]
4.09[87, 113, 391, 251, 95, 38, 35, 31]
4.09[87, 113, 391, 251, 95, 38, 35, 31]
4.09[85, 120, 385, 248, 95, 37, 30, 29]
4.11[85, 120, 385, 248, 95, 37, 30, 29]
4.11[85, 120, 385, 248, 95, 37, 30, 29]
4.11[85, 120, 385, 248, 95, 37, 30, 29]
4.11[85, 120, 385, 248, 95, 37, 30, 29]
4.11[85, 120, 385, 248, 95, 37, 30, 29]
4.11[85, 120, 385, 248, 95, 37, 30, 29]
4.11[85, 120, 385, 248, 95, 37, 30, 29]
4.11[78, 102, 398, 242, 93, 38, 28, 28]
4.13[78, 102, 398, 242, 93, 38, 28, 28]
4.13[78, 102, 398, 242, 93, 38, 28, 28]
4.13[78, 102, 398, 242, 93, 38, 28, 28]
4.13[78, 102, 398, 242, 93, 38, 28, 28]
4.13[78, 102, 398, 242, 93, 38, 28, 28]
4.13[78, 102, 398, 242, 93, 38, 28, 28]
4.13[78, 102, 398, 242, 93, 38, 28, 28]
4.13[78, 102, 343, 280, 104, 45, 33, 31]
4.15[78, 102, 343, 280, 104, 45, 33, 31]
4.15[78, 102, 343, 280, 104, 45, 33, 31]
4.15[78, 102, 343, 280, 104, 45, 33, 31]
4.15[78, 102, 343, 280, 104, 45, 33, 31]
4.15[78, 102, 343, 280, 104, 45, 33, 31]
4.15[78, 102, 343, 280, 104, 45, 33, 31]
4.15[78, 102, 343, 280, 104, 45, 33, 31]
4.15[68, 94, 327, 293, 106, 43, 32, 29]
4.17[68, 94, 327, 293, 106, 43, 32, 29]
4.17[68, 94, 327, 293, 106, 43, 32, 29]
4.17[68, 94, 327, 293, 106, 43, 32, 29]
4.17[68, 94, 327, 293, 106, 43, 32, 29]
4.17[68, 94, 327, 293, 106, 43, 32, 29]
4.17[68, 94, 327, 293, 106, 43, 32, 29]
4.17[68, 94, 327, 293, 106, 43, 32, 29]
4.17[68, 104, 342, 305, 107, 44, 34, 31]
4.19[68, 104, 342, 305, 107, 44, 34, 31]
4.19[68, 104, 342, 305, 107, 44, 34, 31]
4.19[68, 104, 342, 305, 107, 44, 34, 31]
4.19[68, 104, 342, 305, 107, 44, 34, 31]
4.19[68, 104, 342, 305, 107, 44, 34, 31]
4.19[68, 104, 342, 305, 107, 44, 34, 31]
4.19[68, 104, 342, 305, 107, 44, 34, 31]
4.19[70, 100, 341, 300, 115, 49, 37, 34]
4.21[70, 100, 341, 300, 115, 49, 37, 34]
4.21[70, 100, 341, 300, 115, 49, 37, 34]
4.21[70, 100, 341, 300, 115, 49, 37, 34]
4.21[70, 100, 341, 300, 115, 49, 37, 34]
4.21[70, 100, 341, 300, 115, 49, 37, 34]
4.21[70, 100, 341, 300, 115, 49, 37, 34]
4.21[70, 100, 341, 300, 115, 49, 37, 34]
4.21[85, 114, 315, 311, 114, 50, 36, 33]
4.23[85, 114, 315, 311, 114, 50, 36, 33]
4.23[85, 114, 315, 311, 114, 50, 36, 33]
4.23[85, 114, 315, 311, 114, 50, 36, 33]
4.23[85, 114, 315, 311, 114, 50, 36, 33]
4.23[85, 114, 315, 311, 114, 50, 36, 33]
4.23[85, 114, 315, 311, 114, 50, 36, 33]
4.23[85, 114, 315, 311, 114, 50, 36, 33]
4.23[85, 111, 327, 296, 114, 46, 34, 29]
4.25[85, 111, 327, 296, 114, 46, 34, 29]
4.25[85, 111, 327, 296, 114, 46, 34, 29]
4.25[85, 111, 327, 296, 114, 46, 34, 29]
4.25[85, 111, 327, 296, 114, 46, 34, 29]
4.25[85, 111, 327, 296, 114, 46, 34, 29]
4.25[85, 111, 327, 296, 114, 46, 34, 29]
4.25[85, 111, 327, 296, 114, 46, 34, 29]
4.25[84, 114, 394, 312, 118, 49, 35, 32]
4.27[84, 114, 394, 312, 118, 49, 35, 32]
4.27[84, 114, 394, 312, 118, 49, 35, 32]
4.27[84, 114, 394, 312, 118, 49, 35, 32]
4.27[84, 114, 394, 312, 118, 49, 35, 32]
4.27[84, 114, 394, 312, 118, 49, 35, 32]
4.27[84, 114, 394, 312, 118, 49, 35, 32]
4.27[84, 114, 394, 312, 118, 49, 35, 32]
4.27[84, 102, 401, 337, 116, 48, 30, 28]
4.29[84, 102, 401, 337, 116, 48, 30, 28]
4.29[84, 102, 401, 337, 116, 48, 30, 28]
4.29[84, 102, 401, 337, 116, 48, 30, 28]
4.29[84, 102, 401, 337, 116, 48, 30, 28]
4.29[84, 102, 401, 337, 116, 48, 30, 28]
4.29[84, 102, 401, 337, 116, 48, 30, 28]
4.29[84, 102, 401, 337, 116, 48, 30, 28]
4.29[94, 103, 379, 339, 106, 46, 29, 23]
4.31[94, 103, 379, 339, 106, 46, 29, 23]
4.31[94, 103, 379, 339, 106, 46, 29, 23]
4.31[94, 103, 379, 339, 106, 46, 29, 23]
4.31[94, 103, 379, 339, 106, 46, 29, 23]
4.31[94, 103, 379, 339, 106, 46, 29, 23]
4.31[94, 103, 379, 339, 106, 46, 29, 23]
4.31[94, 103, 379, 339, 106, 46, 29, 23]
4.31[81, 103, 377, 333, 106, 46, 30, 24]
4.33[81, 103, 377, 333, 106, 46, 30, 24]
4.33[81, 103, 377, 333, 106, 46, 30, 24]
4.33[81, 103, 377, 333, 106, 46, 30, 24]
4.33[81, 103, 377, 333, 106, 46, 30, 24]
4.33[81, 103, 377, 333, 106, 46, 30, 24]
4.33[81, 103, 377, 333, 106, 46, 30, 24]
4.33[81, 103, 377, 333, 106, 46, 30, 24]
4.33[85, 113, 411, 320, 94, 44, 30, 28]
4.35[85, 113, 411, 320, 94, 44, 30, 28]
4.35[85, 113, 411, 320, 94, 44, 30, 28]
4.35[85, 113, 411, 320, 94, 44, 30, 28]
4.35[85, 113, 411, 320, 94, 44, 30, 28]
4.35[85, 113, 411, 320, 94, 44, 30, 28]
4.35[85, 113, 411, 320, 94, 44, 30, 28]
4.35[85, 113, 411, 320, 94, 44, 30, 28]
4.35[85, 112, 335, 321, 101, 44, 29, 27]
4.37[85, 112, 335, 321, 101, 44, 29, 27]
4.37[85, 112, 335, 321, 101, 44, 29, 27]
4.37[85, 112, 335, 321, 101, 44, 29, 27]
4.37[85, 112, 335, 321, 101, 44, 29, 27]
4.37[85, 112, 335, 321, 101, 44, 29, 27]
4.37[85, 112, 335, 321, 101, 44, 29, 27]
4.37[85, 112, 335, 321, 101, 44, 29, 27]
4.37[84, 119, 325, 270, 97, 44, 33, 28]
4.39[84, 119, 325, 270, 97, 44, 33, 28]
4.39[84, 119, 325, 270, 97, 44, 33, 28]
4.39[84, 119, 325, 270, 97, 44, 33, 28]
4.39[84, 119, 325, 270, 97, 44, 33, 28]
4.39[84, 119, 325, 270, 97, 44, 33, 28]
4.39[84, 119, 325, 270, 97, 44, 33, 28]
4.39[84, 119, 325, 270, 97, 44, 33, 28]
4.39[80, 119, 332, 268, 94, 40, 32, 29]
4.41[80, 119, 332, 268, 94, 40, 32, 29]
4.41[80, 119, 332, 268, 94, 40, 32, 29]
4.41[80, 119, 332, 268, 94, 40, 32, 29]
4.41[80, 119, 332, 268, 94, 40, 32, 29]
4.41[80, 119, 332, 268, 94, 40, 32, 29]
4.41[80, 119, 332, 268, 94, 40, 32, 29]
4.41[80, 119, 332, 268, 94, 40, 32, 29]
4.41[79, 118, 343, 284, 100, 41, 33, 31]
4.43[79, 118, 343, 284, 100, 41, 33, 31]
4.43[79, 118, 343, 284, 100, 41, 33, 31]
4.43[79, 118, 343, 284, 100, 41, 33, 31]
4.43[79, 118, 343, 284, 100, 41, 33, 31]
4.43[79, 118, 343, 284, 100, 41, 33, 31]
4.43[79, 118, 343, 284, 100, 41, 33, 31]
4.43[79, 118, 343, 284, 100, 41, 33, 31]
4.43[74, 110, 301, 263, 99, 42, 32, 30]
4.45[74, 110, 301, 263, 99, 42, 32, 30]
4.45[74, 110, 301, 263, 99, 42, 32, 30]
4.45[74, 110, 301, 263, 99, 42, 32, 30]
4.45[74, 110, 301, 263, 99, 42, 32, 30]
4.45[74, 110, 301, 263, 99, 42, 32, 30]
4.45[74, 110, 301, 263, 99, 42, 32, 30]
4.45[74, 110, 301, 263, 99, 42, 32, 30]
4.45[70, 112, 295, 239, 94, 43, 33, 29]
4.47[70, 112, 295, 239, 94, 43, 33, 29]
4.47[70, 112, 295, 239, 94, 43, 33, 29]
4.47[70, 112, 295, 239, 94, 43, 33, 29]
4.47[70, 112, 295, 239, 94, 43, 33, 29]
4.47[70, 112, 295, 239, 94, 43, 33, 29]
4.47[70, 112, 295, 239, 94, 43, 33, 29]
4.47[70, 112, 295, 239, 94, 43, 33, 29]
4.47[76, 107, 253, 252, 97, 43, 30, 29]
4.49[76, 107, 253, 252, 97, 43, 30, 29]
4.49[76, 107, 253, 252, 97, 43, 30, 29]
4.49[76, 107, 253, 252, 97, 43, 30, 29]
4.49[76, 107, 253, 252, 97, 43, 30, 29]
4.49[76, 107, 253, 252, 97, 43, 30, 29]
4.49[76, 107, 253, 252, 97, 43, 30, 29]
4.49[76, 107, 253, 252, 97, 43, 30, 29]
4.49[78, 106, 253, 287, 118, 51, 32, 31]
4.51[78, 106, 253, 287, 118, 51, 32, 31]
4.51[78, 106, 253, 287, 118, 51, 32, 31]
4.51[78, 106, 253, 287, 118, 51, 32, 31]
4.51[78, 106, 253, 287, 118, 51, 32, 31]
4.51[78, 106, 253, 287, 118, 51, 32, 31]
4.51[78, 106, 253, 287, 118, 51, 32, 31]
4.51[78, 106, 253, 287, 118, 51, 32, 31]
4.51[76, 96, 248, 333, 124, 51, 34, 29]
4.53[76, 96, 248, 333, 124, 51, 34, 29]
4.53[76, 96, 248, 333, 124, 51, 34, 29]
4.53[76, 96, 248, 333, 124, 51, 34, 29]
4.53[76, 96, 248, 333, 124, 51, 34, 29]
4.53[76, 96, 248, 333, 124, 51, 34, 29]
4.53[76, 96, 248, 333, 124, 51, 34, 29]
4.53[76, 96, 248, 333, 124, 51, 34, 29]
4.53[81, 91, 227, 354, 124, 50, 32, 27]
4.55[81, 91, 227, 354, 124, 50, 32, 27]
4.55[81, 91, 227, 354, 124, 50, 32, 27]
4.55[81, 91, 227, 354, 124, 50, 32, 27]
4.55[81, 91, 227, 354, 124, 50, 32, 27]
4.55[81, 91, 227, 354, 124, 50, 32, 27]
4.55[81, 91, 227, 354, 124, 50, 32, 27]
4.55[81, 91, 227, 354, 124, 50, 32, 27]
4.55[95, 92, 262, 337, 115, 51, 33, 28]
4.57[95, 92, 262, 337, 115, 51, 33, 28]
4.57[95, 92, 262, 337, 115, 51, 33, 28]
4.57[95, 92, 262, 337, 115, 51, 33, 28]
4.57[95, 92, 262, 337, 115, 51, 33, 28]
4.57[95, 92, 262, 337, 115, 51, 33, 28]
4.57[95, 92, 262, 337, 115, 51, 33, 28]
4.57[95, 92, 262, 337, 115, 51, 33, 28]
4.57[91, 89, 265, 335, 112, 50, 34, 29]
4.59[91, 89, 265, 335, 112, 50, 34, 29]
4.59[91, 89, 265, 335, 112, 50, 34, 29]
4.59[91, 89, 265, 335, 112, 50, 34, 29]
4.59[91, 89, 265, 335, 112, 50, 34, 29]
4.59[91, 89, 265, 335, 112, 50, 34, 29]
4.59[91, 89, 265, 335, 112, 50, 34, 29]
4.59[91, 89, 265, 335, 112, 50, 34, 29]
4.59[93, 90, 274, 306, 93, 44, 31, 26]
4.61[93, 90, 274, 306, 93, 44, 31, 26]
4.61[93, 90, 274, 306, 93, 44, 31, 26]
4.61[93, 90, 274, 306, 93, 44, 31, 26]
4.61[93, 90, 274, 306, 93, 44, 31, 26]
4.61[93, 90, 274, 306, 93, 44, 31, 26]
4.61[93, 90, 274, 306, 93, 44, 31, 26]
4.61[93, 90, 274, 306, 93, 44, 31, 26]
4.61[91, 98, 315, 229, 86, 45, 31, 28]
4.63[91, 98, 315, 229, 86, 45, 31, 28]
4.63[91, 98, 315, 229, 86, 45, 31, 28]
4.63[91, 98, 315, 229, 86, 45, 31, 28]
4.63[91, 98, 315, 229, 86, 45, 31, 28]
4.63[91, 98, 315, 229, 86, 45, 31, 28]
4.63[91, 98, 315, 229, 86, 45, 31, 28]
4.63[91, 98, 315, 229, 86, 45, 31, 28]
4.63[93, 109, 326, 241, 92, 46, 33, 28]
4.65[93, 109, 326, 241, 92, 46, 33, 28]
4.65[93, 109, 326, 241, 92, 46, 33, 28]
4.65[93, 109, 326, 241, 92, 46, 33, 28]
4.65[93, 109, 326, 241, 92, 46, 33, 28]
4.65[93, 109, 326, 241, 92, 46, 33, 28]
4.65[93, 109, 326, 241, 92, 46, 33, 28]
4.65[93, 109, 326, 241, 92, 46, 33, 28]
4.65[81, 104, 321, 249, 95, 42, 33, 28]
4.67[81, 104, 321, 249, 95, 42, 33, 28]
4.67[81, 104, 321, 249, 95, 42, 33, 28]
4.67[81, 104, 321, 249, 95, 42, 33, 28]
4.67[81, 104, 321, 249, 95, 42, 33, 28]
4.67[81, 104, 321, 249, 95, 42, 33, 28]
4.67[81, 104, 321, 249, 95, 42, 33, 28]
4.67[81, 104, 321, 249, 95, 42, 33, 28]
4.67[86, 113, 340, 278, 109, 43, 34, 29]
4.69[86, 113, 340, 278, 109, 43, 34, 29]
4.69[86, 113, 340, 278, 109, 43, 34, 29]
4.69[86, 113, 340, 278, 109, 43, 34, 29]
4.69[86, 113, 340, 278, 109, 43, 34, 29]
4.69[86, 113, 340, 278, 109, 43, 34, 29]
4.69[86, 113, 340, 278, 109, 43, 34, 29]
4.69[86, 113, 340, 278, 109, 43, 34, 29]
4.69[80, 109, 357, 291, 113, 47, 38, 31]
4.71[80, 109, 357, 291, 113, 47, 38, 31]
4.71[80, 109, 357, 291, 113, 47, 38, 31]
4.71[80, 109, 357, 291, 113, 47, 38, 31]
4.71[80, 109, 357, 291, 113, 47, 38, 31]
4.71[80, 109, 357, 291, 113, 47, 38, 31]
4.71[80, 109, 357, 291, 113, 47, 38, 31]
4.71[80, 109, 357, 291, 113, 47, 38, 31]
4.71[90, 110, 330, 284, 110, 46, 36, 32]
4.73[90, 110, 330, 284, 110, 46, 36, 32]
4.73[90, 110, 330, 284, 110, 46, 36, 32]
4.73[90, 110, 330, 284, 110, 46, 36, 32]
4.73[90, 110, 330, 284, 110, 46, 36, 32]
4.73[90, 110, 330, 284, 110, 46, 36, 32]
4.73[90, 110, 330, 284, 110, 46, 36, 32]
4.73[90, 110, 330, 284, 110, 46, 36, 32]
4.73[82, 94, 312, 242, 103, 44, 36, 31]
4.75[82, 94, 312, 242, 103, 44, 36, 31]
4.75[82, 94, 312, 242, 103, 44, 36, 31]
4.75[82, 94, 312, 242, 103, 44, 36, 31]
4.75[82, 94, 312, 242, 103, 44, 36, 31]
4.75[82, 94, 312, 242, 103, 44, 36, 31]
4.75[82, 94, 312, 242, 103, 44, 36, 31]
4.75[82, 94, 312, 242, 103, 44, 36, 31]
4.75[84, 106, 311, 262, 104, 44, 34, 33]
4.77[84, 106, 311, 262, 104, 44, 34, 33]
4.77[84, 106, 311, 262, 104, 44, 34, 33]
4.77[84, 106, 311, 262, 104, 44, 34, 33]
4.77[84, 106, 311, 262, 104, 44, 34, 33]
4.77[84, 106, 311, 262, 104, 44, 34, 33]
4.77[84, 106, 311, 262, 104, 44, 34, 33]
4.77[84, 106, 311, 262, 104, 44, 34, 33]
4.77[77, 93, 324, 253, 98, 45, 33, 33]
4.79[77, 93, 324, 253, 98, 45, 33, 33]
4.79[77, 93, 324, 253, 98, 45, 33, 33]
4.79[77, 93, 324, 253, 98, 45, 33, 33]
4.79[77, 93, 324, 253, 98, 45, 33, 33]
4.79[77, 93, 324, 253, 98, 45, 33, 33]
4.79[77, 93, 324, 253, 98, 45, 33, 33]
4.79[77, 93, 324, 253, 98, 45, 33, 33]
4.79[82, 106, 313, 236, 91, 40, 31, 32]
4.81[82, 106, 313, 236, 91, 40, 31, 32]
4.81[82, 106, 313, 236, 91, 40, 31, 32]
4.81[82, 106, 313, 236, 91, 40, 31, 32]
4.81[82, 106, 313, 236, 91, 40, 31, 32]
4.81[82, 106, 313, 236, 91, 40, 31, 32]
4.81[82, 106, 313, 236, 91, 40, 31, 32]
4.81[82, 106, 313, 236, 91, 40, 31, 32]
4.81[73, 111, 310, 249, 86, 39, 32, 30]
4.83[73, 111, 310, 249, 86, 39, 32, 30]
4.83[73, 111, 310, 249, 86, 39, 32, 30]
4.83[73, 111, 310, 249, 86, 39, 32, 30]
4.83[73, 111, 310, 249, 86, 39, 32, 30]
4.83[73, 111, 310, 249, 86, 39, 32, 30]
4.83[73, 111, 310, 249, 86, 39, 32, 30]
4.83[73, 111, 310, 249, 86, 39, 32, 30]
4.83[78, 119, 355, 280, 105, 45, 34, 31]
4.85[78, 119, 355, 280, 105, 45, 34, 31]
4.85[78, 119, 355, 280, 105, 45, 34, 31]
4.85[78, 119, 355, 280, 105, 45, 34, 31]
4.85[78, 119, 355, 280, 105, 45, 34, 31]
4.85[78, 119, 355, 280, 105, 45, 34, 31]
4.85[78, 119, 355, 280, 105, 45, 34, 31]
4.85[78, 119, 355, 280, 105, 45, 34, 31]
4.85[74, 108, 341, 258, 102, 42, 32, 28]
4.87[74, 108, 341, 258, 102, 42, 32, 28]
4.87[74, 108, 341, 258, 102, 42, 32, 28]
4.87[74, 108, 341, 258, 102, 42, 32, 28]
4.87[74, 108, 341, 258, 102, 42, 32, 28]
4.87[74, 108, 341, 258, 102, 42, 32, 28]
4.87[74, 108, 341, 258, 102, 42, 32, 28]
4.87[74, 108, 341, 258, 102, 42, 32, 28]
4.87[96, 123, 340, 251, 94, 42, 31, 26]
4.9[96, 123, 340, 251, 94, 42, 31, 26]
4.9[96, 123, 340, 251, 94, 42, 31, 26]
4.9[96, 123, 340, 251, 94, 42, 31, 26]
4.9[96, 123, 340, 251, 94, 42, 31, 26]
4.9[96, 123, 340, 251, 94, 42, 31, 26]
4.9[96, 123, 340, 251, 94, 42, 31, 26]
4.9[96, 123, 340, 251, 94, 42, 31, 26]
4.9[85, 112, 314, 254, 89, 40, 29, 24]
4.92[85, 112, 314, 254, 89, 40, 29, 24]
4.92[85, 112, 314, 254, 89, 40, 29, 24]
4.92[85, 112, 314, 254, 89, 40, 29, 24]
4.92[85, 112, 314, 254, 89, 40, 29, 24]
4.92[85, 112, 314, 254, 89, 40, 29, 24]
4.92[85, 112, 314, 254, 89, 40, 29, 24]
4.92[85, 112, 314, 254, 89, 40, 29, 24]
4.92[84, 107, 324, 254, 97, 42, 32, 27]
4.93[84, 107, 324, 254, 97, 42, 32, 27]
4.93[84, 107, 324, 254, 97, 42, 32, 27]
4.93[84, 107, 324, 254, 97, 42, 32, 27]
4.93[84, 107, 324, 254, 97, 42, 32, 27]
4.93[84, 107, 324, 254, 97, 42, 32, 27]
4.93[84, 107, 324, 254, 97, 42, 32, 27]
4.93[84, 107, 324, 254, 97, 42, 32, 27]
4.93[84, 112, 326, 274, 92, 37, 30, 26]
4.96[84, 112, 326, 274, 92, 37, 30, 26]
4.96[84, 112, 326, 274, 92, 37, 30, 26]
4.96[84, 112, 326, 274, 92, 37, 30, 26]
4.96[84, 112, 326, 274, 92, 37, 30, 26]
4.96[84, 112, 326, 274, 92, 37, 30, 26]
4.96[84, 112, 326, 274, 92, 37, 30, 26]
4.96[84, 112, 326, 274, 92, 37, 30, 26]
4.96[115, 126, 340, 275, 90, 39, 31, 29]
4.98[115, 126, 340, 275, 90, 39, 31, 29]
4.98[115, 126, 340, 275, 90, 39, 31, 29]
4.98[115, 126, 340, 275, 90, 39, 31, 29]
4.98[115, 126, 340, 275, 90, 39, 31, 29]
4.98[115, 126, 340, 275, 90, 39, 31, 29]
4.98[115, 126, 340, 275, 90, 39, 31, 29]
4.98[115, 126, 340, 275, 90, 39, 31, 29]
4.98[97, 116, 371, 259, 92, 39, 33, 30]
4.99[97, 116, 371, 259, 92, 39, 33, 30]
4.99[97, 116, 371, 259, 92, 39, 33, 30]
4.99[97, 116, 371, 259, 92, 39, 33, 30]
4.99[97, 116, 371, 259, 92, 39, 33, 30]
4.99[97, 116, 371, 259, 92, 39, 33, 30]
4.99[97, 116, 371, 259, 92, 39, 33, 30]
4.99[97, 116, 371, 259, 92, 39, 33, 30]
4.99[96, 115, 369, 264, 107, 48, 34, 30]
5.01[96, 115, 369, 264, 107, 48, 34, 30]
5.02[96, 115, 369, 264, 107, 48, 34, 30]
5.02[96, 115, 369, 264, 107, 48, 34, 30]
5.02[96, 115, 369, 264, 107, 48, 34, 30]
5.02[96, 115, 369, 264, 107, 48, 34, 30]
5.02[96, 115, 369, 264, 107, 48, 34, 30]
5.02[96, 115, 369, 264, 107, 48, 34, 30]
5.02[94, 114, 365, 256, 101, 46, 30, 26]
5.04[94, 114, 365, 256, 101, 46, 30, 26]
5.04[94, 114, 365, 256, 101, 46, 30, 26]
5.04[94, 114, 365, 256, 101, 46, 30, 26]
5.04[94, 114, 365, 256, 101, 46, 30, 26]
5.04[94, 114, 365, 256, 101, 46, 30, 26]
5.04[94, 114, 365, 256, 101, 46, 30, 26]
5.04[94, 114, 365, 256, 101, 46, 30, 26]
5.04[92, 106, 359, 250, 101, 49, 32, 26]
5.05[92, 106, 359, 250, 101, 49, 32, 26]
5.05[92, 106, 359, 250, 101, 49, 32, 26]
5.05[92, 106, 359, 250, 101, 49, 32, 26]
5.05[92, 106, 359, 250, 101, 49, 32, 26]
5.05[92, 106, 359, 250, 101, 49, 32, 26]
5.05[92, 106, 359, 250, 101, 49, 32, 26]
5.05[92, 106, 359, 250, 101, 49, 32, 26]
5.05[64, 93, 355, 262, 103, 52, 32, 25]
5.08[64, 93, 355, 262, 103, 52, 32, 25]
5.08[64, 93, 355, 262, 103, 52, 32, 25]
5.08[64, 93, 355, 262, 103, 52, 32, 25]
5.08[64, 93, 355, 262, 103, 52, 32, 25]
5.08[64, 93, 355, 262, 103, 52, 32, 25]
5.08[64, 93, 355, 262, 103, 52, 32, 25]
5.08[64, 93, 355, 262, 103, 52, 32, 25]
5.08[65, 89, 284, 274, 113, 56, 31, 23]
5.1[65, 89, 284, 274, 113, 56, 31, 23]
5.1[65, 89, 284, 274, 113, 56, 31, 23]
5.1[65, 89, 284, 274, 113, 56, 31, 23]
5.1[65, 89, 284, 274, 113, 56, 31, 23]
5.1[65, 89, 284, 274, 113, 56, 31, 23]
5.1[65, 89, 284, 274, 113, 56, 31, 23]
5.1[65, 89, 284, 274, 113, 56, 31, 23]
5.1[65, 87, 301, 275, 102, 49, 30, 26]
5.11[65, 87, 301, 275, 102, 49, 30, 26]
5.11[65, 87, 301, 275, 102, 49, 30, 26]
5.11[65, 87, 301, 275, 102, 49, 30, 26]
5.11[65, 87, 301, 275, 102, 49, 30, 26]
5.11[65, 87, 301, 275, 102, 49, 30, 26]
5.11[65, 87, 301, 275, 102, 49, 30, 26]
5.11[65, 87, 301, 275, 102, 49, 30, 26]
5.11[66, 80, 343, 270, 101, 49, 30, 27]
5.14[66, 80, 343, 270, 101, 49, 30, 27]
5.14[66, 80, 343, 270, 101, 49, 30, 27]
5.14[66, 80, 343, 270, 101, 49, 30, 27]
5.14[66, 80, 343, 270, 101, 49, 30, 27]
5.14[66, 80, 343, 270, 101, 49, 30, 27]
5.14[66, 80, 343, 270, 101, 49, 30, 27]
5.14[66, 80, 343, 270, 101, 49, 30, 27]
5.14[85, 115, 379, 249, 93, 49, 29, 27]
5.16[85, 115, 379, 249, 93, 49, 29, 27]
5.16[85, 115, 379, 249, 93, 49, 29, 27]
5.16[85, 115, 379, 249, 93, 49, 29, 27]
5.16[85, 115, 379, 249, 93, 49, 29, 27]
5.16[85, 115, 379, 249, 93, 49, 29, 27]
5.16[85, 115, 379, 249, 93, 49, 29, 27]
5.16[85, 115, 379, 249, 93, 49, 29, 27]
5.16[81, 114, 387, 283, 110, 51, 31, 26]
5.19[81, 114, 387, 283, 110, 51, 31, 26]
5.19[81, 114, 387, 283, 110, 51, 31, 26]
5.19[81, 114, 387, 283, 110, 51, 31, 26]
5.19[81, 114, 387, 283, 110, 51, 31, 26]
5.19[81, 114, 387, 283, 110, 51, 31, 26]
5.19[81, 114, 387, 283, 110, 51, 31, 26]
5.19[81, 114, 387, 283, 110, 51, 31, 26]
5.19[81, 113, 382, 309, 111, 48, 29, 26]
5.19[81, 113, 382, 309, 111, 48, 29, 26]
5.19[81, 113, 382, 309, 111, 48, 29, 26]
5.19[81, 113, 382, 309, 111, 48, 29, 26]
5.19[81, 113, 382, 309, 111, 48, 29, 26]
5.19[81, 113, 382, 309, 111, 48, 29, 26]
5.19[81, 113, 382, 309, 111, 48, 29, 26]
5.19[81, 113, 382, 309, 111, 48, 29, 26]
5.19[80, 112, 377, 331, 121, 53, 32, 25]
5.22[80, 112, 377, 331, 121, 53, 32, 25]
5.22[80, 112, 377, 331, 121, 53, 32, 25]
5.22[80, 112, 377, 331, 121, 53, 32, 25]
5.22[80, 112, 377, 331, 121, 53, 32, 25]
5.22[80, 112, 377, 331, 121, 53, 32, 25]
5.22[80, 112, 377, 331, 121, 53, 32, 25]
5.22[80, 112, 377, 331, 121, 53, 32, 25]
5.22[82, 123, 327, 336, 124, 53, 35, 27]
5.23[82, 123, 327, 336, 124, 53, 35, 27]
5.23[82, 123, 327, 336, 124, 53, 35, 27]
5.23[82, 123, 327, 336, 124, 53, 35, 27]
5.23[82, 123, 327, 336, 124, 53, 35, 27]
5.23[82, 123, 327, 336, 124, 53, 35, 27]
5.23[82, 123, 327, 336, 124, 53, 35, 27]
5.23[82, 123, 327, 336, 124, 53, 35, 27]
5.23[76, 110, 362, 317, 127, 51, 36, 27]
5.26[76, 110, 362, 317, 127, 51, 36, 27]
5.26[76, 110, 362, 317, 127, 51, 36, 27]
5.26[76, 110, 362, 317, 127, 51, 36, 27]
5.26[76, 110, 362, 317, 127, 51, 36, 27]
5.26[76, 110, 362, 317, 127, 51, 36, 27]
5.26[76, 110, 362, 317, 127, 51, 36, 27]
5.26[76, 110, 362, 317, 127, 51, 36, 27]
5.26[70, 105, 358, 282, 113, 48, 33, 28]
5.28[70, 105, 358, 282, 113, 48, 33, 28]
5.28[70, 105, 358, 282, 113, 48, 33, 28]
5.28[70, 105, 358, 282, 113, 48, 33, 28]
5.28[70, 105, 358, 282, 113, 48, 33, 28]
5.28[70, 105, 358, 282, 113, 48, 33, 28]
5.28[70, 105, 358, 282, 113, 48, 33, 28]
5.28[70, 105, 358, 282, 113, 48, 33, 28]
5.28[72, 106, 378, 267, 111, 51, 34, 28]
5.29[72, 106, 378, 267, 111, 51, 34, 28]
5.29[72, 106, 378, 267, 111, 51, 34, 28]
5.29[72, 106, 378, 267, 111, 51, 34, 28]
5.29[72, 106, 378, 267, 111, 51, 34, 28]
5.29[72, 106, 378, 267, 111, 51, 34, 28]
5.29[72, 106, 378, 267, 111, 51, 34, 28]
5.29[72, 106, 378, 267, 111, 51, 34, 28]
5.29[78, 111, 377, 230, 99, 45, 32, 27]
5.32[78, 111, 377, 230, 99, 45, 32, 27]
5.32[78, 111, 377, 230, 99, 45, 32, 27]
5.32[78, 111, 377, 230, 99, 45, 32, 27]
5.32[78, 111, 377, 230, 99, 45, 32, 27]
5.32[78, 111, 377, 230, 99, 45, 32, 27]
5.32[78, 111, 377, 230, 99, 45, 32, 27]
5.32[78, 111, 377, 230, 99, 45, 32, 27]
5.32[80, 98, 371, 214, 95, 46, 32, 26]
5.34[80, 98, 371, 214, 95, 46, 32, 26]
5.34[80, 98, 371, 214, 95, 46, 32, 26]
5.34[80, 98, 371, 214, 95, 46, 32, 26]
5.34[80, 98, 371, 214, 95, 46, 32, 26]
5.34[80, 98, 371, 214, 95, 46, 32, 26]
5.34[80, 98, 371, 214, 95, 46, 32, 26]
5.34[80, 98, 371, 214, 95, 46, 32, 26]
5.34[65, 77, 321, 219, 89, 46, 32, 26]
5.35[65, 77, 321, 219, 89, 46, 32, 26]
5.35[65, 77, 321, 219, 89, 46, 32, 26]
5.35[65, 77, 321, 219, 89, 46, 32, 26]
5.35[65, 77, 321, 219, 89, 46, 32, 26]
5.35[65, 77, 321, 219, 89, 46, 32, 26]
5.35[65, 77, 321, 219, 89, 46, 32, 26]
5.35[65, 77, 321, 219, 89, 46, 32, 26]
5.35[79, 81, 350, 275, 117, 53, 38, 25]
5.37[79, 81, 350, 275, 117, 53, 38, 25]
5.37[79, 81, 350, 275, 117, 53, 38, 25]
5.37[79, 81, 350, 275, 117, 53, 38, 25]
5.37[79, 81, 350, 275, 117, 53, 38, 25]
5.37[79, 81, 350, 275, 117, 53, 38, 25]
5.37[79, 81, 350, 275, 117, 53, 38, 25]
5.37[79, 81, 350, 275, 117, 53, 38, 25]
5.37[87, 86, 327, 293, 119, 51, 37, 27]
5.4[87, 86, 327, 293, 119, 51, 37, 27]
5.4[87, 86, 327, 293, 119, 51, 37, 27]
5.4[87, 86, 327, 293, 119, 51, 37, 27]
5.4[87, 86, 327, 293, 119, 51, 37, 27]
5.4[87, 86, 327, 293, 119, 51, 37, 27]
5.4[87, 86, 327, 293, 119, 51, 37, 27]
5.4[87, 86, 327, 293, 119, 51, 37, 27]
5.4[82, 85, 328, 304, 133, 62, 43, 29]
5.41[82, 85, 328, 304, 133, 62, 43, 29]
5.41[82, 85, 328, 304, 133, 62, 43, 29]
5.41[82, 85, 328, 304, 133, 62, 43, 29]
5.41[82, 85, 328, 304, 133, 62, 43, 29]
5.41[82, 85, 328, 304, 133, 62, 43, 29]
5.41[82, 85, 328, 304, 133, 62, 43, 29]
5.41[82, 85, 328, 304, 133, 62, 43, 29]
5.41[76, 86, 373, 412, 142, 62, 42, 29]
5.43[76, 86, 373, 412, 142, 62, 42, 29]
5.43[76, 86, 373, 412, 142, 62, 42, 29]
5.43[76, 86, 373, 412, 142, 62, 42, 29]
5.43[76, 86, 373, 412, 142, 62, 42, 29]
5.43[76, 86, 373, 412, 142, 62, 42, 29]
5.43[76, 86, 373, 412, 142, 62, 42, 29]
5.43[76, 86, 373, 412, 142, 62, 42, 29]
5.43[88, 85, 377, 465, 152, 61, 43, 30]
5.46[88, 85, 377, 465, 152, 61, 43, 30]
5.46[88, 85, 377, 465, 152, 61, 43, 30]
5.46[88, 85, 377, 465, 152, 61, 43, 30]
5.46[88, 85, 377, 465, 152, 61, 43, 30]
5.46[88, 85, 377, 465, 152, 61, 43, 30]
5.46[88, 85, 377, 465, 152, 61, 43, 30]
5.46[88, 85, 377, 465, 152, 61, 43, 30]
5.46[79, 85, 346, 441, 132, 54, 37, 29]
5.47[79, 85, 346, 441, 132, 54, 37, 29]
5.47[79, 85, 346, 441, 132, 54, 37, 29]
5.47[79, 85, 346, 441, 132, 54, 37, 29]
5.47[79, 85, 346, 441, 132, 54, 37, 29]
5.47[79, 85, 346, 441, 132, 54, 37, 29]
5.47[79, 85, 346, 441, 132, 54, 37, 29]
5.47[79, 85, 346, 441, 132, 54, 37, 29]
5.47[78, 92, 378, 419, 125, 51, 35, 28]
5.5[78, 92, 378, 419, 125, 51, 35, 28]
5.5[78, 92, 378, 419, 125, 51, 35, 28]
5.5[78, 92, 378, 419, 125, 51, 35, 28]
5.5[78, 92, 378, 419, 125, 51, 35, 28]
5.5[78, 92, 378, 419, 125, 51, 35, 28]
5.5[78, 92, 378, 419, 125, 51, 35, 28]
5.5[78, 92, 378, 419, 125, 51, 35, 28]
5.5[81, 98, 397, 421, 110, 39, 30, 28]
5.52[81, 98, 397, 421, 110, 39, 30, 28]
5.52[81, 98, 397, 421, 110, 39, 30, 28]
5.52[81, 98, 397, 421, 110, 39, 30, 28]
5.52[81, 98, 397, 421, 110, 39, 30, 28]
5.52[81, 98, 397, 421, 110, 39, 30, 28]
5.52[81, 98, 397, 421, 110, 39, 30, 28]
5.52[81, 98, 397, 421, 110, 39, 30, 28]
5.52[95, 94, 361, 327, 105, 41, 29, 31]
5.53[95, 94, 361, 327, 105, 41, 29, 31]
5.53[95, 94, 361, 327, 105, 41, 29, 31]
5.53[95, 94, 361, 327, 105, 41, 29, 31]
5.53[95, 94, 361, 327, 105, 41, 29, 31]
5.53[95, 94, 361, 327, 105, 41, 29, 31]
5.53[95, 94, 361, 327, 105, 41, 29, 31]
5.53[95, 94, 361, 327, 105, 41, 29, 31]
5.53[85, 98, 322, 261, 102, 46, 28, 32]
5.55[85, 98, 322, 261, 102, 46, 28, 32]
5.55[85, 98, 322, 261, 102, 46, 28, 32]
5.55[85, 98, 322, 261, 102, 46, 28, 32]
5.55[85, 98, 322, 261, 102, 46, 28, 32]
5.55[85, 98, 322, 261, 102, 46, 28, 32]
5.55[85, 98, 322, 261, 102, 46, 28, 32]
5.55[85, 98, 322, 261, 102, 46, 28, 32]
5.55[86, 108, 356, 250, 102, 46, 30, 33]
5.58[86, 108, 356, 250, 102, 46, 30, 33]
5.58[86, 108, 356, 250, 102, 46, 30, 33]
5.58[86, 108, 356, 250, 102, 46, 30, 33]
5.58[86, 108, 356, 250, 102, 46, 30, 33]
5.58[86, 108, 356, 250, 102, 46, 30, 33]
5.58[86, 108, 356, 250, 102, 46, 30, 33]
5.58[86, 108, 356, 250, 102, 46, 30, 33]
5.58[86, 109, 325, 312, 106, 46, 30, 34]
5.59[86, 109, 325, 312, 106, 46, 30, 34]
5.59[86, 109, 325, 312, 106, 46, 30, 34]
5.59[86, 109, 325, 312, 106, 46, 30, 34]
5.59[86, 109, 325, 312, 106, 46, 30, 34]
5.59[86, 109, 325, 312, 106, 46, 30, 34]
5.59[86, 109, 325, 312, 106, 46, 30, 34]
5.59[86, 109, 325, 312, 106, 46, 30, 34]
5.59[82, 98, 290, 314, 113, 47, 31, 32]
5.62[82, 98, 290, 314, 113, 47, 31, 32]
5.62[82, 98, 290, 314, 113, 47, 31, 32]
5.62[82, 98, 290, 314, 113, 47, 31, 32]
5.62[82, 98, 290, 314, 113, 47, 31, 32]
5.62[82, 98, 290, 314, 113, 47, 31, 32]
5.62[82, 98, 290, 314, 113, 47, 31, 32]
5.62[82, 98, 290, 314, 113, 47, 31, 32]
5.62[80, 103, 312, 315, 104, 44, 31, 33]
5.64[80, 103, 312, 315, 104, 44, 31, 33]
5.64[80, 103, 312, 315, 104, 44, 31, 33]
5.64[80, 103, 312, 315, 104, 44, 31, 33]
5.64[80, 103, 312, 315, 104, 44, 31, 33]
5.64[80, 103, 312, 315, 104, 44, 31, 33]
5.64[80, 103, 312, 315, 104, 44, 31, 33]
5.64[80, 103, 312, 315, 104, 44, 31, 33]
5.64[87, 111, 288, 352, 107, 42, 33, 32]
5.65[87, 111, 288, 352, 107, 42, 33, 32]
5.65[87, 111, 288, 352, 107, 42, 33, 32]
5.65[87, 111, 288, 352, 107, 42, 33, 32]
5.65[87, 111, 288, 352, 107, 42, 33, 32]
5.65[87, 111, 288, 352, 107, 42, 33, 32]
5.65[87, 111, 288, 352, 107, 42, 33, 32]
5.65[87, 111, 288, 352, 107, 42, 33, 32]
5.65[88, 107, 224, 380, 116, 44, 33, 34]
5.68[88, 107, 224, 380, 116, 44, 33, 34]
5.68[88, 107, 224, 380, 116, 44, 33, 34]
5.68[88, 107, 224, 380, 116, 44, 33, 34]
5.68[88, 107, 224, 380, 116, 44, 33, 34]
5.68[88, 107, 224, 380, 116, 44, 33, 34]
5.68[88, 107, 224, 380, 116, 44, 33, 34]
5.68[88, 107, 224, 380, 116, 44, 33, 34]
5.68[81, 98, 208, 332, 111, 45, 34, 32]
5.71[81, 98, 208, 332, 111, 45, 34, 32]
5.71[81, 98, 208, 332, 111, 45, 34, 32]
5.71[81, 98, 208, 332, 111, 45, 34, 32]
5.71[81, 98, 208, 332, 111, 45, 34, 32]
5.71[81, 98, 208, 332, 111, 45, 34, 32]
5.71[81, 98, 208, 332, 111, 45, 34, 32]
5.71[81, 98, 208, 332, 111, 45, 34, 32]
5.71[81, 107, 237, 316, 103, 44, 33, 32]
5.71[81, 107, 237, 316, 103, 44, 33, 32]
5.71[81, 107, 237, 316, 103, 44, 33, 32]
5.71[81, 107, 237, 316, 103, 44, 33, 32]
5.71[81, 107, 237, 316, 103, 44, 33, 32]
5.71[81, 107, 237, 316, 103, 44, 33, 32]
5.71[81, 107, 237, 316, 103, 44, 33, 32]
5.71[81, 107, 237, 316, 103, 44, 33, 32]
5.71[87, 110, 218, 329, 110, 43, 32, 29]
5.74[87, 110, 218, 329, 110, 43, 32, 29]
5.74[87, 110, 218, 329, 110, 43, 32, 29]
5.74[87, 110, 218, 329, 110, 43, 32, 29]
5.74[87, 110, 218, 329, 110, 43, 32, 29]
5.74[87, 110, 218, 329, 110, 43, 32, 29]
5.74[87, 110, 218, 329, 110, 43, 32, 29]
5.74[87, 110, 218, 329, 110, 43, 32, 29]
5.74[87, 111, 223, 291, 117, 45, 29, 29]
5.76[87, 111, 223, 291, 117, 45, 29, 29]
5.76[87, 111, 223, 291, 117, 45, 29, 29]
5.76[87, 111, 223, 291, 117, 45, 29, 29]
5.76[87, 111, 223, 291, 117, 45, 29, 29]
5.76[87, 111, 223, 291, 117, 45, 29, 29]
5.76[87, 111, 223, 291, 117, 45, 29, 29]
5.76[87, 111, 223, 291, 117, 45, 29, 29]
5.76[86, 109, 244, 274, 110, 45, 31, 30]
5.77[86, 109, 244, 274, 110, 45, 31, 30]
5.77[86, 109, 244, 274, 110, 45, 31, 30]
5.77[86, 109, 244, 274, 110, 45, 31, 30]
5.77[86, 109, 244, 274, 110, 45, 31, 30]
5.77[86, 109, 244, 274, 110, 45, 31, 30]
5.77[86, 109, 244, 274, 110, 45, 31, 30]
5.77[86, 109, 244, 274, 110, 45, 31, 30]
5.77[90, 106, 263, 296, 115, 47, 32, 28]
5.8[90, 106, 263, 296, 115, 47, 32, 28]
5.8[90, 106, 263, 296, 115, 47, 32, 28]
5.8[90, 106, 263, 296, 115, 47, 32, 28]
5.8[90, 106, 263, 296, 115, 47, 32, 28]
5.8[90, 106, 263, 296, 115, 47, 32, 28]
5.8[90, 106, 263, 296, 115, 47, 32, 28]
5.8[90, 106, 263, 296, 115, 47, 32, 28]
5.8[100, 100, 267, 310, 119, 48, 31, 30]
5.82[100, 100, 267, 310, 119, 48, 31, 30]
5.82[100, 100, 267, 310, 119, 48, 31, 30]
5.82[100, 100, 267, 310, 119, 48, 31, 30]
5.82[100, 100, 267, 310, 119, 48, 31, 30]
5.82[100, 100, 267, 310, 119, 48, 31, 30]
5.82[100, 100, 267, 310, 119, 48, 31, 30]
5.82[100, 100, 267, 310, 119, 48, 31, 30]
5.82[87, 97, 315, 352, 129, 50, 34, 30]
5.83[87, 97, 315, 352, 129, 50, 34, 30]
5.83[87, 97, 315, 352, 129, 50, 34, 30]
5.83[87, 97, 315, 352, 129, 50, 34, 30]
5.83[87, 97, 315, 352, 129, 50, 34, 30]
5.83[87, 97, 315, 352, 129, 50, 34, 30]
5.83[87, 97, 315, 352, 129, 50, 34, 30]
5.83[87, 97, 315, 352, 129, 50, 34, 30]
5.83[84, 82, 377, 342, 113, 47, 34, 29]
5.86[84, 82, 377, 342, 113, 47, 34, 29]
5.86[84, 82, 377, 342, 113, 47, 34, 29]
5.86[84, 82, 377, 342, 113, 47, 34, 29]
5.86[84, 82, 377, 342, 113, 47, 34, 29]
5.86[84, 82, 377, 342, 113, 47, 34, 29]
5.86[84, 82, 377, 342, 113, 47, 34, 29]
5.86[84, 82, 377, 342, 113, 47, 34, 29]
5.86[89, 85, 404, 336, 110, 45, 35, 27]
5.88[89, 85, 404, 336, 110, 45, 35, 27]
5.88[89, 85, 404, 336, 110, 45, 35, 27]
5.88[89, 85, 404, 336, 110, 45, 35, 27]
5.88[89, 85, 404, 336, 110, 45, 35, 27]
5.88[89, 85, 404, 336, 110, 45, 35, 27]
5.88[89, 85, 404, 336, 110, 45, 35, 27]
5.88[89, 85, 404, 336, 110, 45, 35, 27]
5.88[85, 89, 411, 321, 107, 42, 36, 30]
5.9[85, 89, 411, 321, 107, 42, 36, 30]
5.9[85, 89, 411, 321, 107, 42, 36, 30]
5.9[85, 89, 411, 321, 107, 42, 36, 30]
5.9[85, 89, 411, 321, 107, 42, 36, 30]
5.9[85, 89, 411, 321, 107, 42, 36, 30]
5.9[85, 89, 411, 321, 107, 42, 36, 30]
5.9[85, 89, 411, 321, 107, 42, 36, 30]
5.9[85, 86, 461, 344, 111, 44, 37, 31]
5.92[85, 86, 461, 344, 111, 44, 37, 31]
5.92[85, 86, 461, 344, 111, 44, 37, 31]
5.92[85, 86, 461, 344, 111, 44, 37, 31]
5.92[85, 86, 461, 344, 111, 44, 37, 31]
5.92[85, 86, 461, 344, 111, 44, 37, 31]
5.92[85, 86, 461, 344, 111, 44, 37, 31]
5.92[85, 86, 461, 344, 111, 44, 37, 31]
5.92[81, 83, 426, 302, 105, 45, 38, 31]
5.94[81, 83, 426, 302, 105, 45, 38, 31]
5.94[81, 83, 426, 302, 105, 45, 38, 31]
5.94[81, 83, 426, 302, 105, 45, 38, 31]
5.94[81, 83, 426, 302, 105, 45, 38, 31]
5.94[81, 83, 426, 302, 105, 45, 38, 31]
5.94[81, 83, 426, 302, 105, 45, 38, 31]
5.94[81, 83, 426, 302, 105, 45, 38, 31]
5.94[75, 85, 411, 317, 105, 43, 37, 31]
5.96[75, 85, 411, 317, 105, 43, 37, 31]
5.96[75, 85, 411, 317, 105, 43, 37, 31]
5.96[75, 85, 411, 317, 105, 43, 37, 31]
5.96[75, 85, 411, 317, 105, 43, 37, 31]
5.96[75, 85, 411, 317, 105, 43, 37, 31]
5.96[75, 85, 411, 317, 105, 43, 37, 31]
5.96[75, 85, 411, 317, 105, 43, 37, 31]
5.96[74, 83, 375, 332, 119, 52, 38, 33]
5.98[74, 83, 375, 332, 119, 52, 38, 33]
5.98[74, 83, 375, 332, 119, 52, 38, 33]
5.98[74, 83, 375, 332, 119, 52, 38, 33]
5.98[74, 83, 375, 332, 119, 52, 38, 33]
5.98[74, 83, 375, 332, 119, 52, 38, 33]
5.98[74, 83, 375, 332, 119, 52, 38, 33]
5.98[74, 83, 375, 332, 119, 52, 38, 33]
5.98[88, 110, 420, 383, 126, 56, 41, 32]
6.0[88, 110, 420, 383, 126, 56, 41, 32]
6.0[88, 110, 420, 383, 126, 56, 41, 32]
6.0[88, 110, 420, 383, 126, 56, 41, 32]
6.0[88, 110, 420, 383, 126, 56, 41, 32]
6.0[88, 110, 420, 383, 126, 56, 41, 32]
6.0[88, 110, 420, 383, 126, 56, 41, 32]
6.0[88, 110, 420, 383, 126, 56, 41, 32]
6.0[78, 112, 365, 368, 126, 57, 41, 30]
6.02[78, 112, 365, 368, 126, 57, 41, 30]
6.02[78, 112, 365, 368, 126, 57, 41, 30]
6.02[78, 112, 365, 368, 126, 57, 41, 30]
6.02[78, 112, 365, 368, 126, 57, 41, 30]
6.02[78, 112, 365, 368, 126, 57, 41, 30]
6.02[78, 112, 365, 368, 126, 57, 41, 30]
6.02[78, 112, 365, 368, 126, 57, 41, 30]
6.02[77, 121, 358, 369, 117, 53, 37, 31]
6.04[77, 121, 358, 369, 117, 53, 37, 31]
6.04[77, 121, 358, 369, 117, 53, 37, 31]
6.04[77, 121, 358, 369, 117, 53, 37, 31]
6.04[77, 121, 358, 369, 117, 53, 37, 31]
6.04[77, 121, 358, 369, 117, 53, 37, 31]
6.04[77, 121, 358, 369, 117, 53, 37, 31]
6.04[77, 121, 358, 369, 117, 53, 37, 31]
6.04[82, 122, 324, 362, 121, 56, 39, 32]
6.06[82, 122, 324, 362, 121, 56, 39, 32]
6.06[82, 122, 324, 362, 121, 56, 39, 32]
6.06[82, 122, 324, 362, 121, 56, 39, 32]
6.06[82, 122, 324, 362, 121, 56, 39, 32]
6.06[82, 122, 324, 362, 121, 56, 39, 32]
6.06[82, 122, 324, 362, 121, 56, 39, 32]
6.06[82, 122, 324, 362, 121, 56, 39, 32]
6.06[73, 119, 326, 351, 116, 48, 35, 31]
6.08[73, 119, 326, 351, 116, 48, 35, 31]
6.08[73, 119, 326, 351, 116, 48, 35, 31]
6.08[73, 119, 326, 351, 116, 48, 35, 31]
6.08[73, 119, 326, 351, 116, 48, 35, 31]
6.08[73, 119, 326, 351, 116, 48, 35, 31]
6.08[73, 119, 326, 351, 116, 48, 35, 31]
6.08[73, 119, 326, 351, 116, 48, 35, 31]
6.08[93, 98, 244, 315, 110, 46, 30, 30]
6.1[93, 98, 244, 315, 110, 46, 30, 30]
6.1[93, 98, 244, 315, 110, 46, 30, 30]
6.1[93, 98, 244, 315, 110, 46, 30, 30]
6.1[93, 98, 244, 315, 110, 46, 30, 30]
6.1[93, 98, 244, 315, 110, 46, 30, 30]
6.1[93, 98, 244, 315, 110, 46, 30, 30]
6.1[93, 98, 244, 315, 110, 46, 30, 30]
6.1[94, 99, 250, 305, 109, 44, 27, 30]
6.12[94, 99, 250, 305, 109, 44, 27, 30]
6.12[94, 99, 250, 305, 109, 44, 27, 30]
6.12[94, 99, 250, 305, 109, 44, 27, 30]
6.12[94, 99, 250, 305, 109, 44, 27, 30]
6.12[94, 99, 250, 305, 109, 44, 27, 30]
6.12[94, 99, 250, 305, 109, 44, 27, 30]
6.12[94, 99, 250, 305, 109, 44, 27, 30]
6.12[99, 113, 264, 324, 111, 48, 30, 32]
6.14[99, 113, 264, 324, 111, 48, 30, 32]
6.14[99, 113, 264, 324, 111, 48, 30, 32]
6.14[99, 113, 264, 324, 111, 48, 30, 32]
6.14[99, 113, 264, 324, 111, 48, 30, 32]
6.14[99, 113, 264, 324, 111, 48, 30, 32]
6.14[99, 113, 264, 324, 111, 48, 30, 32]
6.14[99, 113, 264, 324, 111, 48, 30, 32]
6.14[97, 120, 253, 320, 112, 47, 27, 32]
6.16[97, 120, 253, 320, 112, 47, 27, 32]
6.16[97, 120, 253, 320, 112, 47, 27, 32]
6.16[97, 120, 253, 320, 112, 47, 27, 32]
6.16[97, 120, 253, 320, 112, 47, 27, 32]
6.16[97, 120, 253, 320, 112, 47, 27, 32]
6.16[97, 120, 253, 320, 112, 47, 27, 32]
6.16[97, 120, 253, 320, 112, 47, 27, 32]
6.16[97, 119, 254, 289, 99, 45, 31, 30]
6.18[97, 119, 254, 289, 99, 45, 31, 30]
6.18[97, 119, 254, 289, 99, 45, 31, 30]
6.18[97, 119, 254, 289, 99, 45, 31, 30]
6.18[97, 119, 254, 289, 99, 45, 31, 30]
6.18[97, 119, 254, 289, 99, 45, 31, 30]
6.18[97, 119, 254, 289, 99, 45, 31, 30]
6.18[97, 119, 254, 289, 99, 45, 31, 30]
6.18[63, 121, 257, 270, 105, 45, 35, 30]
6.2[63, 121, 257, 270, 105, 45, 35, 30]
6.2[63, 121, 257, 270, 105, 45, 35, 30]
6.2[63, 121, 257, 270, 105, 45, 35, 30]
6.2[63, 121, 257, 270, 105, 45, 35, 30]
6.2[63, 121, 257, 270, 105, 45, 35, 30]
6.2[63, 121, 257, 270, 105, 45, 35, 30]
6.2[63, 121, 257, 270, 105, 45, 35, 30]
6.2[66, 129, 223, 284, 106, 45, 36, 32]
6.22[66, 129, 223, 284, 106, 45, 36, 32]
6.22[66, 129, 223, 284, 106, 45, 36, 32]
6.22[66, 129, 223, 284, 106, 45, 36, 32]
6.22[66, 129, 223, 284, 106, 45, 36, 32]
6.22[66, 129, 223, 284, 106, 45, 36, 32]
6.22[66, 129, 223, 284, 106, 45, 36, 32]
6.22[66, 129, 223, 284, 106, 45, 36, 32]
6.22[58, 108, 246, 253, 107, 43, 36, 28]
6.24[58, 108, 246, 253, 107, 43, 36, 28]
6.24[58, 108, 246, 253, 107, 43, 36, 28]
6.24[58, 108, 246, 253, 107, 43, 36, 28]
6.24[58, 108, 246, 253, 107, 43, 36, 28]
6.24[58, 108, 246, 253, 107, 43, 36, 28]
6.24[58, 108, 246, 253, 107, 43, 36, 28]
6.24[58, 108, 246, 253, 107, 43, 36, 28]
6.24[56, 99, 263, 316, 117, 45, 36, 27]
6.26[56, 99, 263, 316, 117, 45, 36, 27]
6.26[56, 99, 263, 316, 117, 45, 36, 27]
6.26[56, 99, 263, 316, 117, 45, 36, 27]
6.26[56, 99, 263, 316, 117, 45, 36, 27]
6.26[56, 99, 263, 316, 117, 45, 36, 27]
6.26[56, 99, 263, 316, 117, 45, 36, 27]
6.26[56, 99, 263, 316, 117, 45, 36, 27]
6.26[61, 103, 299, 324, 119, 47, 36, 31]
6.27[61, 103, 299, 324, 119, 47, 36, 31]
6.27[61, 103, 299, 324, 119, 47, 36, 31]
6.27[61, 103, 299, 324, 119, 47, 36, 31]
6.27[61, 103, 299, 324, 119, 47, 36, 31]
6.27[61, 103, 299, 324, 119, 47, 36, 31]
6.27[61, 103, 299, 324, 119, 47, 36, 31]
6.27[61, 103, 299, 324, 119, 47, 36, 31]
6.27[76, 98, 297, 351, 128, 49, 33, 31]
6.3[76, 98, 297, 351, 128, 49, 33, 31]
6.3[76, 98, 297, 351, 128, 49, 33, 31]
6.3[76, 98, 297, 351, 128, 49, 33, 31]
6.3[76, 98, 297, 351, 128, 49, 33, 31]
6.3[76, 98, 297, 351, 128, 49, 33, 31]
6.3[76, 98, 297, 351, 128, 49, 33, 31]
6.3[76, 98, 297, 351, 128, 49, 33, 31]
6.3[77, 91, 318, 365, 125, 47, 32, 29]
6.32[77, 91, 318, 365, 125, 47, 32, 29]
6.32[77, 91, 318, 365, 125, 47, 32, 29]
6.32[77, 91, 318, 365, 125, 47, 32, 29]
6.32[77, 91, 318, 365, 125, 47, 32, 29]
6.32[77, 91, 318, 365, 125, 47, 32, 29]
6.32[77, 91, 318, 365, 125, 47, 32, 29]
6.32[77, 91, 318, 365, 125, 47, 32, 29]
6.32[80, 93, 329, 361, 127, 46, 29, 29]
6.34[80, 93, 329, 361, 127, 46, 29, 29]
6.34[80, 93, 329, 361, 127, 46, 29, 29]
6.34[80, 93, 329, 361, 127, 46, 29, 29]
6.34[80, 93, 329, 361, 127, 46, 29, 29]
6.34[80, 93, 329, 361, 127, 46, 29, 29]
6.34[80, 93, 329, 361, 127, 46, 29, 29]
6.34[80, 93, 329, 361, 127, 46, 29, 29]
6.34[84, 92, 328, 319, 110, 46, 30, 29]
6.36[84, 92, 328, 319, 110, 46, 30, 29]
6.36[84, 92, 328, 319, 110, 46, 30, 29]
6.36[84, 92, 328, 319, 110, 46, 30, 29]
6.36[84, 92, 328, 319, 110, 46, 30, 29]
6.36[84, 92, 328, 319, 110, 46, 30, 29]
6.36[84, 92, 328, 319, 110, 46, 30, 29]
6.36[84, 92, 328, 319, 110, 46, 30, 29]
6.36[93, 89, 298, 311, 107, 42, 28, 25]
6.38[93, 89, 298, 311, 107, 42, 28, 25]
6.38[93, 89, 298, 311, 107, 42, 28, 25]
6.38[93, 89, 298, 311, 107, 42, 28, 25]
6.38[93, 89, 298, 311, 107, 42, 28, 25]
6.38[93, 89, 298, 311, 107, 42, 28, 25]
6.38[93, 89, 298, 311, 107, 42, 28, 25]
6.38[93, 89, 298, 311, 107, 42, 28, 25]
6.38[78, 96, 360, 280, 84, 42, 29, 26]
6.39[78, 96, 360, 280, 84, 42, 29, 26]
6.39[78, 96, 360, 280, 84, 42, 29, 26]
6.39[78, 96, 360, 280, 84, 42, 29, 26]
6.39[78, 96, 360, 280, 84, 42, 29, 26]
6.39[78, 96, 360, 280, 84, 42, 29, 26]
6.39[78, 96, 360, 280, 84, 42, 29, 26]
6.39[78, 96, 360, 280, 84, 42, 29, 26]
6.39[74, 96, 360, 298, 101, 45, 27, 26]
6.42[74, 96, 360, 298, 101, 45, 27, 26]
6.42[74, 96, 360, 298, 101, 45, 27, 26]
6.42[74, 96, 360, 298, 101, 45, 27, 26]
6.42[74, 96, 360, 298, 101, 45, 27, 26]
6.42[74, 96, 360, 298, 101, 45, 27, 26]
6.42[74, 96, 360, 298, 101, 45, 27, 26]
6.42[74, 96, 360, 298, 101, 45, 27, 26]
6.42[72, 95, 360, 281, 102, 47, 34, 28]
6.44[72, 95, 360, 281, 102, 47, 34, 28]
6.44[72, 95, 360, 281, 102, 47, 34, 28]
6.44[72, 95, 360, 281, 102, 47, 34, 28]
6.44[72, 95, 360, 281, 102, 47, 34, 28]
6.44[72, 95, 360, 281, 102, 47, 34, 28]
6.44[72, 95, 360, 281, 102, 47, 34, 28]
6.44[72, 95, 360, 281, 102, 47, 34, 28]
6.44[87, 98, 349, 267, 103, 45, 31, 29]
6.45[87, 98, 349, 267, 103, 45, 31, 29]
6.45[87, 98, 349, 267, 103, 45, 31, 29]
6.45[87, 98, 349, 267, 103, 45, 31, 29]
6.45[87, 98, 349, 267, 103, 45, 31, 29]
6.45[87, 98, 349, 267, 103, 45, 31, 29]
6.45[87, 98, 349, 267, 103, 45, 31, 29]
6.45[87, 98, 349, 267, 103, 45, 31, 29]
6.45[79, 101, 416, 333, 115, 52, 36, 31]
6.48[79, 101, 416, 333, 115, 52, 36, 31]
6.48[79, 101, 416, 333, 115, 52, 36, 31]
6.48[79, 101, 416, 333, 115, 52, 36, 31]
6.48[79, 101, 416, 333, 115, 52, 36, 31]
6.48[79, 101, 416, 333, 115, 52, 36, 31]
6.48[79, 101, 416, 333, 115, 52, 36, 31]
6.48[79, 101, 416, 333, 115, 52, 36, 31]
6.48[82, 90, 369, 320, 111, 49, 35, 31]
6.5[82, 90, 369, 320, 111, 49, 35, 31]
6.5[82, 90, 369, 320, 111, 49, 35, 31]
6.5[82, 90, 369, 320, 111, 49, 35, 31]
6.5[82, 90, 369, 320, 111, 49, 35, 31]
6.5[82, 90, 369, 320, 111, 49, 35, 31]
6.5[82, 90, 369, 320, 111, 49, 35, 31]
6.5[82, 90, 369, 320, 111, 49, 35, 31]
6.5[82, 98, 356, 256, 91, 46, 36, 30]
6.51[82, 98, 356, 256, 91, 46, 36, 30]
6.51[82, 98, 356, 256, 91, 46, 36, 30]
6.51[82, 98, 356, 256, 91, 46, 36, 30]
6.51[82, 98, 356, 256, 91, 46, 36, 30]
6.51[82, 98, 356, 256, 91, 46, 36, 30]
6.51[82, 98, 356, 256, 91, 46, 36, 30]
6.51[82, 98, 356, 256, 91, 46, 36, 30]
6.51[94, 112, 318, 275, 89, 44, 31, 29]
6.54[94, 112, 318, 275, 89, 44, 31, 29]
6.54[94, 112, 318, 275, 89, 44, 31, 29]
6.54[94, 112, 318, 275, 89, 44, 31, 29]
6.54[94, 112, 318, 275, 89, 44, 31, 29]
6.54[94, 112, 318, 275, 89, 44, 31, 29]
6.54[94, 112, 318, 275, 89, 44, 31, 29]
6.54[94, 112, 318, 275, 89, 44, 31, 29]
6.54[81, 109, 320, 313, 91, 43, 35, 27]
6.56[81, 109, 320, 313, 91, 43, 35, 27]
6.56[81, 109, 320, 313, 91, 43, 35, 27]
6.56[81, 109, 320, 313, 91, 43, 35, 27]
6.56[81, 109, 320, 313, 91, 43, 35, 27]
6.56[81, 109, 320, 313, 91, 43, 35, 27]
6.56[81, 109, 320, 313, 91, 43, 35, 27]
6.56[81, 109, 320, 313, 91, 43, 35, 27]
6.56[81, 104, 280, 301, 98, 44, 34, 28]
6.57[81, 104, 280, 301, 98, 44, 34, 28]
6.57[81, 104, 280, 301, 98, 44, 34, 28]
6.57[81, 104, 280, 301, 98, 44, 34, 28]
6.57[81, 104, 280, 301, 98, 44, 34, 28]
6.57[81, 104, 280, 301, 98, 44, 34, 28]
6.57[81, 104, 280, 301, 98, 44, 34, 28]
6.57[81, 104, 280, 301, 98, 44, 34, 28]
6.57[78, 104, 271, 299, 107, 48, 35, 29]
6.6[78, 104, 271, 299, 107, 48, 35, 29]
6.6[78, 104, 271, 299, 107, 48, 35, 29]
6.6[78, 104, 271, 299, 107, 48, 35, 29]
6.6[78, 104, 271, 299, 107, 48, 35, 29]
6.6[78, 104, 271, 299, 107, 48, 35, 29]
6.6[78, 104, 271, 299, 107, 48, 35, 29]
6.6[78, 104, 271, 299, 107, 48, 35, 29]
6.6[95, 98, 268, 300, 111, 49, 37, 30]
6.62[95, 98, 268, 300, 111, 49, 37, 30]
6.62[95, 98, 268, 300, 111, 49, 37, 30]
6.62[95, 98, 268, 300, 111, 49, 37, 30]
6.62[95, 98, 268, 300, 111, 49, 37, 30]
6.62[95, 98, 268, 300, 111, 49, 37, 30]
6.62[95, 98, 268, 300, 111, 49, 37, 30]
6.62[95, 98, 268, 300, 111, 49, 37, 30]
6.62[84, 83, 256, 286, 106, 47, 36, 27]
6.63[84, 83, 256, 286, 106, 47, 36, 27]
6.63[84, 83, 256, 286, 106, 47, 36, 27]
6.63[84, 83, 256, 286, 106, 47, 36, 27]
6.63[84, 83, 256, 286, 106, 47, 36, 27]
6.63[84, 83, 256, 286, 106, 47, 36, 27]
6.63[84, 83, 256, 286, 106, 47, 36, 27]
6.63[84, 83, 256, 286, 106, 47, 36, 27]
6.63[78, 79, 256, 331, 134, 55, 34, 28]
6.66[78, 79, 256, 331, 134, 55, 34, 28]
6.66[78, 79, 256, 331, 134, 55, 34, 28]
6.66[78, 79, 256, 331, 134, 55, 34, 28]
6.66[78, 79, 256, 331, 134, 55, 34, 28]
6.66[78, 79, 256, 331, 134, 55, 34, 28]
6.66[78, 79, 256, 331, 134, 55, 34, 28]
6.66[78, 79, 256, 331, 134, 55, 34, 28]
6.66[75, 80, 280, 371, 138, 58, 32, 27]
6.68[75, 80, 280, 371, 138, 58, 32, 27]
6.68[75, 80, 280, 371, 138, 58, 32, 27]
6.68[75, 80, 280, 371, 138, 58, 32, 27]
6.68[75, 80, 280, 371, 138, 58, 32, 27]
6.68[75, 80, 280, 371, 138, 58, 32, 27]
6.68[75, 80, 280, 371, 138, 58, 32, 27]
6.68[75, 80, 280, 371, 138, 58, 32, 27]
6.68[81, 95, 292, 373, 135, 56, 33, 26]
6.69[81, 95, 292, 373, 135, 56, 33, 26]
6.69[81, 95, 292, 373, 135, 56, 33, 26]
6.69[81, 95, 292, 373, 135, 56, 33, 26]
6.69[81, 95, 292, 373, 135, 56, 33, 26]
6.69[81, 95, 292, 373, 135, 56, 33, 26]
6.69[81, 95, 292, 373, 135, 56, 33, 26]
6.69[81, 95, 292, 373, 135, 56, 33, 26]
6.69[73, 98, 312, 371, 132, 56, 32, 28]
6.72[73, 98, 312, 371, 132, 56, 32, 28]
6.72[73, 98, 312, 371, 132, 56, 32, 28]
6.72[73, 98, 312, 371, 132, 56, 32, 28]
6.72[73, 98, 312, 371, 132, 56, 32, 28]
6.72[73, 98, 312, 371, 132, 56, 32, 28]
6.72[73, 98, 312, 371, 132, 56, 32, 28]
6.72[73, 98, 312, 371, 132, 56, 32, 28]
6.72[69, 99, 327, 391, 135, 56, 31, 29]
6.74[69, 99, 327, 391, 135, 56, 31, 29]
6.74[69, 99, 327, 391, 135, 56, 31, 29]
6.74[69, 99, 327, 391, 135, 56, 31, 29]
6.74[69, 99, 327, 391, 135, 56, 31, 29]
6.74[69, 99, 327, 391, 135, 56, 31, 29]
6.74[69, 99, 327, 391, 135, 56, 31, 29]
6.74[69, 99, 327, 391, 135, 56, 31, 29]
6.74[70, 98, 329, 319, 104, 49, 32, 29]
6.75[70, 98, 329, 319, 104, 49, 32, 29]
6.75[70, 98, 329, 319, 104, 49, 32, 29]
6.75[70, 98, 329, 319, 104, 49, 32, 29]
6.75[70, 98, 329, 319, 104, 49, 32, 29]
6.75[70, 98, 329, 319, 104, 49, 32, 29]
6.75[70, 98, 329, 319, 104, 49, 32, 29]
6.75[70, 98, 329, 319, 104, 49, 32, 29]
6.75[72, 99, 298, 223, 86, 43, 32, 25]
6.78[72, 99, 298, 223, 86, 43, 32, 25]
6.78[72, 99, 298, 223, 86, 43, 32, 25]
6.78[72, 99, 298, 223, 86, 43, 32, 25]
6.78[72, 99, 298, 223, 86, 43, 32, 25]
6.78[72, 99, 298, 223, 86, 43, 32, 25]
6.78[72, 99, 298, 223, 86, 43, 32, 25]
6.78[72, 99, 298, 223, 86, 43, 32, 25]
6.78[61, 81, 291, 225, 84, 40, 27, 23]
6.8[61, 81, 291, 225, 84, 40, 27, 23]
6.8[61, 81, 291, 225, 84, 40, 27, 23]
6.8[61, 81, 291, 225, 84, 40, 27, 23]
6.8[61, 81, 291, 225, 84, 40, 27, 23]
6.8[61, 81, 291, 225, 84, 40, 27, 23]
6.8[61, 81, 291, 225, 84, 40, 27, 23]
6.8[61, 81, 291, 225, 84, 40, 27, 23]
6.8[42, 62, 283, 228, 81, 38, 26, 24]
6.82[42, 62, 283, 228, 81, 38, 26, 24]
6.82[42, 62, 283, 228, 81, 38, 26, 24]
6.82[42, 62, 283, 228, 81, 38, 26, 24]
6.82[42, 62, 283, 228, 81, 38, 26, 24]
6.82[42, 62, 283, 228, 81, 38, 26, 24]
6.82[42, 62, 283, 228, 81, 38, 26, 24]
6.82[42, 62, 283, 228, 81, 38, 26, 24]
6.82[42, 51, 270, 186, 72, 38, 27, 22]
6.84[42, 51, 270, 186, 72, 38, 27, 22]
6.84[42, 51, 270, 186, 72, 38, 27, 22]
6.84[42, 51, 270, 186, 72, 38, 27, 22]
6.84[42, 51, 270, 186, 72, 38, 27, 22]
6.84[42, 51, 270, 186, 72, 38, 27, 22]
6.84[42, 51, 270, 186, 72, 38, 27, 22]
6.84[42, 51, 270, 186, 72, 38, 27, 22]
6.84[39, 59, 422, 211, 76, 37, 28, 23]
6.86[39, 59, 422, 211, 76, 37, 28, 23]
6.86[39, 59, 422, 211, 76, 37, 28, 23]
6.86[39, 59, 422, 211, 76, 37, 28, 23]
6.86[39, 59, 422, 211, 76, 37, 28, 23]
6.86[39, 59, 422, 211, 76, 37, 28, 23]
6.86[39, 59, 422, 211, 76, 37, 28, 23]
6.86[39, 59, 422, 211, 76, 37, 28, 23]
6.86[31, 49, 392, 210, 65, 30, 24, 23]
6.88[31, 49, 392, 210, 65, 30, 24, 23]
6.88[31, 49, 392, 210, 65, 30, 24, 23]
6.88[31, 49, 392, 210, 65, 30, 24, 23]
6.88[31, 49, 392, 210, 65, 30, 24, 23]
6.88[31, 49, 392, 210, 65, 30, 24, 23]
6.88[31, 49, 392, 210, 65, 30, 24, 23]
6.88[31, 49, 392, 210, 65, 30, 24, 23]
6.88[31, 57, 397, 267, 79, 36, 27, 24]
6.9[31, 57, 397, 267, 79, 36, 27, 24]
6.9[31, 57, 397, 267, 79, 36, 27, 24]
6.9[31, 57, 397, 267, 79, 36, 27, 24]
6.9[31, 57, 397, 267, 79, 36, 27, 24]
6.9[31, 57, 397, 267, 79, 36, 27, 24]
6.9[31, 57, 397, 267, 79, 36, 27, 24]
6.9[31, 57, 397, 267, 79, 36, 27, 24]
6.9[31, 123, 393, 277, 84, 38, 30, 26]
6.92[31, 123, 393, 277, 84, 38, 30, 26]
6.92[31, 123, 393, 277, 84, 38, 30, 26]
6.92[31, 123, 393, 277, 84, 38, 30, 26]
6.92[31, 123, 393, 277, 84, 38, 30, 26]
6.92[31, 123, 393, 277, 84, 38, 30, 26]
6.92[31, 123, 393, 277, 84, 38, 30, 26]
6.92[31, 123, 393, 277, 84, 38, 30, 26]
6.92[35, 149, 408, 282, 86, 37, 29, 26]
6.94[35, 149, 408, 282, 86, 37, 29, 26]
6.94[35, 149, 408, 282, 86, 37, 29, 26]
6.94[35, 149, 408, 282, 86, 37, 29, 26]
6.94[35, 149, 408, 282, 86, 37, 29, 26]
6.94[35, 149, 408, 282, 86, 37, 29, 26]
6.94[35, 149, 408, 282, 86, 37, 29, 26]
6.94[35, 149, 408, 282, 86, 37, 29, 26]
6.94[47, 195, 262, 251, 78, 35, 27, 27]
6.96[47, 195, 262, 251, 78, 35, 27, 27]
6.96[47, 195, 262, 251, 78, 35, 27, 27]
6.96[47, 195, 262, 251, 78, 35, 27, 27]
6.96[47, 195, 262, 251, 78, 35, 27, 27]
6.96[47, 195, 262, 251, 78, 35, 27, 27]
6.96[47, 195, 262, 251, 78, 35, 27, 27]
6.96[47, 195, 262, 251, 78, 35, 27, 27]
6.96[48, 207, 279, 241, 77, 33, 28, 27]
6.98[48, 207, 279, 241, 77, 33, 28, 27]
6.98[48, 207, 279, 241, 77, 33, 28, 27]
6.98[48, 207, 279, 241, 77, 33, 28, 27]
6.98[48, 207, 279, 241, 77, 33, 28, 27]
6.98[48, 207, 279, 241, 77, 33, 28, 27]
6.98[48, 207, 279, 241, 77, 33, 28, 27]
6.98[48, 207, 279, 241, 77, 33, 28, 27]
6.98[61, 271, 289, 151, 62, 27, 29, 31]
7.0[61, 271, 289, 151, 62, 27, 29, 31]
7.0[61, 271, 289, 151, 62, 27, 29, 31]
7.0[61, 271, 289, 151, 62, 27, 29, 31]
7.0[61, 271, 289, 151, 62, 27, 29, 31]
7.0[61, 271, 289, 151, 62, 27, 29, 31]
7.0[61, 271, 289, 151, 62, 27, 29, 31]
7.0[61, 271, 289, 151, 62, 27, 29, 31]
7.0[67, 264, 269, 122, 53, 24, 25, 29]
7.02[67, 264, 269, 122, 53, 24, 25, 29]
7.02[67, 264, 269, 122, 53, 24, 25, 29]
7.02[67, 264, 269, 122, 53, 24, 25, 29]
7.02[67, 264, 269, 122, 53, 24, 25, 29]
7.02[67, 264, 269, 122, 53, 24, 25, 29]
7.02[67, 264, 269, 122, 53, 24, 25, 29]
7.02[67, 264, 269, 122, 53, 24, 25, 29]
7.02[90, 329, 260, 103, 51, 27, 31, 44]
7.04[90, 329, 260, 103, 51, 27, 31, 44]
7.04[90, 329, 260, 103, 51, 27, 31, 44]
7.04[90, 329, 260, 103, 51, 27, 31, 44]
7.04[90, 329, 260, 103, 51, 27, 31, 44]
7.04[90, 329, 260, 103, 51, 27, 31, 44]
7.04[90, 329, 260, 103, 51, 27, 31, 44]
7.04[90, 329, 260, 103, 51, 27, 31, 44]
7.04[87, 334, 233, 102, 50, 27, 32, 44]
7.06[87, 334, 233, 102, 50, 27, 32, 44]
7.06[87, 334, 233, 102, 50, 27, 32, 44]
7.06[87, 334, 233, 102, 50, 27, 32, 44]
7.06[87, 334, 233, 102, 50, 27, 32, 44]
7.06[87, 334, 233, 102, 50, 27, 32, 44]
7.06[87, 334, 233, 102, 50, 27, 32, 44]
7.06[87, 334, 233, 102, 50, 27, 32, 44]
7.06[96, 380, 270, 97, 51, 29, 31, 44]
7.08[96, 380, 270, 97, 51, 29, 31, 44]
7.08[96, 380, 270, 97, 51, 29, 31, 44]
7.08[96, 380, 270, 97, 51, 29, 31, 44]
7.08[96, 380, 270, 97, 51, 29, 31, 44]
7.08[96, 380, 270, 97, 51, 29, 31, 44]
7.08[96, 380, 270, 97, 51, 29, 31, 44]
7.08[96, 380, 270, 97, 51, 29, 31, 44]
7.08[93, 391, 257, 124, 49, 30, 31, 42]
7.1[93, 391, 257, 124, 49, 30, 31, 42]
7.1[93, 391, 257, 124, 49, 30, 31, 42]
7.1[93, 391, 257, 124, 49, 30, 31, 42]
7.1[93, 391, 257, 124, 49, 30, 31, 42]
7.1[93, 391, 257, 124, 49, 30, 31, 42]
7.1[93, 391, 257, 124, 49, 30, 31, 42]
7.1[93, 391, 257, 124, 49, 30, 31, 42]
7.1[94, 436, 282, 129, 50, 31, 32, 42]
7.12[94, 436, 282, 129, 50, 31, 32, 42]
7.12[94, 436, 282, 129, 50, 31, 32, 42]
7.12[94, 436, 282, 129, 50, 31, 32, 42]
7.12[94, 436, 282, 129, 50, 31, 32, 42]
7.12[94, 436, 282, 129, 50, 31, 32, 42]
7.12[94, 436, 282, 129, 50, 31, 32, 42]
7.12[94, 436, 282, 129, 50, 31, 32, 42]
7.12[73, 393, 266, 137, 49, 29, 25, 27]
7.14[73, 393, 266, 137, 49, 29, 25, 27]
7.14[73, 393, 266, 137, 49, 29, 25, 27]
7.14[73, 393, 266, 137, 49, 29, 25, 27]
7.14[73, 393, 266, 137, 49, 29, 25, 27]
7.14[73, 393, 266, 137, 49, 29, 25, 27]
7.14[73, 393, 266, 137, 49, 29, 25, 27]
7.14[73, 393, 266, 137, 49, 29, 25, 27]
7.14[76, 413, 344, 150, 59, 30, 26, 27]
7.16[76, 413, 344, 150, 59, 30, 26, 27]
7.16[76, 413, 344, 150, 59, 30, 26, 27]
7.16[76, 413, 344, 150, 59, 30, 26, 27]
7.16[76, 413, 344, 150, 59, 30, 26, 27]
7.16[76, 413, 344, 150, 59, 30, 26, 27]
7.16[76, 413, 344, 150, 59, 30, 26, 27]
7.16[76, 413, 344, 150, 59, 30, 26, 27]
7.16[68, 406, 377, 161, 67, 34, 26, 27]
7.18[68, 406, 377, 161, 67, 34, 26, 27]
7.18[68, 406, 377, 161, 67, 34, 26, 27]
7.18[68, 406, 377, 161, 67, 34, 26, 27]
7.18[68, 406, 377, 161, 67, 34, 26, 27]
7.18[68, 406, 377, 161, 67, 34, 26, 27]
7.18[68, 406, 377, 161, 67, 34, 26, 27]
7.18[68, 406, 377, 161, 67, 34, 26, 27]
7.18[63, 369, 374, 142, 64, 34, 25, 26]
7.2[63, 369, 374, 142, 64, 34, 25, 26]
7.2[63, 369, 374, 142, 64, 34, 25, 26]
7.2[63, 369, 374, 142, 64, 34, 25, 26]
7.2[63, 369, 374, 142, 64, 34, 25, 26]
7.2[63, 369, 374, 142, 64, 34, 25, 26]
7.2[63, 369, 374, 142, 64, 34, 25, 26]
7.2[63, 369, 374, 142, 64, 34, 25, 26]
7.2[61, 321, 356, 144, 63, 34, 24, 23]
7.22[61, 321, 356, 144, 63, 34, 24, 23]
7.22[61, 321, 356, 144, 63, 34, 24, 23]
7.22[61, 321, 356, 144, 63, 34, 24, 23]
7.22[61, 321, 356, 144, 63, 34, 24, 23]
7.22[61, 321, 356, 144, 63, 34, 24, 23]
7.22[61, 321, 356, 144, 63, 34, 24, 23]
7.22[61, 321, 356, 144, 63, 34, 24, 23]
7.22[74, 329, 365, 152, 66, 33, 26, 26]
7.24[74, 329, 365, 152, 66, 33, 26, 26]
7.24[74, 329, 365, 152, 66, 33, 26, 26]
7.24[74, 329, 365, 152, 66, 33, 26, 26]
7.24[74, 329, 365, 152, 66, 33, 26, 26]
7.24[74, 329, 365, 152, 66, 33, 26, 26]
7.24[74, 329, 365, 152, 66, 33, 26, 26]
7.24[74, 329, 365, 152, 66, 33, 26, 26]
7.24[78, 328, 338, 156, 63, 34, 27, 25]
7.26[78, 328, 338, 156, 63, 34, 27, 25]
7.26[78, 328, 338, 156, 63, 34, 27, 25]
7.26[78, 328, 338, 156, 63, 34, 27, 25]
7.26[78, 328, 338, 156, 63, 34, 27, 25]
7.26[78, 328, 338, 156, 63, 34, 27, 25]
7.26[78, 328, 338, 156, 63, 34, 27, 25]
7.26[78, 328, 338, 156, 63, 34, 27, 25]
7.26[90, 325, 284, 143, 62, 33, 29, 28]
7.28[90, 325, 284, 143, 62, 33, 29, 28]
7.28[90, 325, 284, 143, 62, 33, 29, 28]
7.28[90, 325, 284, 143, 62, 33, 29, 28]
7.28[90, 325, 284, 143, 62, 33, 29, 28]
7.28[90, 325, 284, 143, 62, 33, 29, 28]
7.28[90, 325, 284, 143, 62, 33, 29, 28]
7.28[90, 325, 284, 143, 62, 33, 29, 28]
7.28[93, 334, 276, 141, 59, 32, 29, 28]
7.3[93, 334, 276, 141, 59, 32, 29, 28]
7.3[93, 334, 276, 141, 59, 32, 29, 28]
7.3[93, 334, 276, 141, 59, 32, 29, 28]
7.3[93, 334, 276, 141, 59, 32, 29, 28]
7.3[93, 334, 276, 141, 59, 32, 29, 28]
7.3[93, 334, 276, 141, 59, 32, 29, 28]
7.3[93, 334, 276, 141, 59, 32, 29, 28]
7.3[92, 348, 387, 172, 76, 39, 31, 31]
7.32[92, 348, 387, 172, 76, 39, 31, 31]
7.32[92, 348, 387, 172, 76, 39, 31, 31]
7.32[92, 348, 387, 172, 76, 39, 31, 31]
7.32[92, 348, 387, 172, 76, 39, 31, 31]
7.32[92, 348, 387, 172, 76, 39, 31, 31]
7.32[92, 348, 387, 172, 76, 39, 31, 31]
7.32[92, 348, 387, 172, 76, 39, 31, 31]
7.32[92, 400, 400, 192, 79, 43, 30, 29]
7.34[92, 400, 400, 192, 79, 43, 30, 29]
7.34[92, 400, 400, 192, 79, 43, 30, 29]
7.34[92, 400, 400, 192, 79, 43, 30, 29]
7.34[92, 400, 400, 192, 79, 43, 30, 29]
7.34[92, 400, 400, 192, 79, 43, 30, 29]
7.34[92, 400, 400, 192, 79, 43, 30, 29]
7.34[92, 400, 400, 192, 79, 43, 30, 29]
7.34[89, 382, 367, 197, 84, 42, 28, 27]
7.36[89, 382, 367, 197, 84, 42, 28, 27]
7.36[89, 382, 367, 197, 84, 42, 28, 27]
7.36[89, 382, 367, 197, 84, 42, 28, 27]
7.36[89, 382, 367, 197, 84, 42, 28, 27]
7.36[89, 382, 367, 197, 84, 42, 28, 27]
7.36[89, 382, 367, 197, 84, 42, 28, 27]
7.36[89, 382, 367, 197, 84, 42, 28, 27]
7.36[76, 457, 349, 195, 80, 40, 26, 25]
7.38[76, 457, 349, 195, 80, 40, 26, 25]
7.38[76, 457, 349, 195, 80, 40, 26, 25]
7.38[76, 457, 349, 195, 80, 40, 26, 25]
7.38[76, 457, 349, 195, 80, 40, 26, 25]
7.38[76, 457, 349, 195, 80, 40, 26, 25]
7.38[76, 457, 349, 195, 80, 40, 26, 25]
7.38[76, 457, 349, 195, 80, 40, 26, 25]
7.38[78, 496, 455, 206, 85, 40, 27, 24]
7.4[78, 496, 455, 206, 85, 40, 27, 24]
7.4[78, 496, 455, 206, 85, 40, 27, 24]
7.4[78, 496, 455, 206, 85, 40, 27, 24]
7.4[78, 496, 455, 206, 85, 40, 27, 24]
7.4[78, 496, 455, 206, 85, 40, 27, 24]
7.4[78, 496, 455, 206, 85, 40, 27, 24]
7.4[78, 496, 455, 206, 85, 40, 27, 24]
7.4[81, 492, 417, 206, 78, 36, 25, 23]
7.42[81, 492, 417, 206, 78, 36, 25, 23]
7.42[81, 492, 417, 206, 78, 36, 25, 23]
7.42[81, 492, 417, 206, 78, 36, 25, 23]
7.42[81, 492, 417, 206, 78, 36, 25, 23]
7.42[81, 492, 417, 206, 78, 36, 25, 23]
7.42[81, 492, 417, 206, 78, 36, 25, 23]
7.42[81, 492, 417, 206, 78, 36, 25, 23]
7.42[74, 453, 473, 297, 106, 38, 26, 25]
7.44[74, 453, 473, 297, 106, 38, 26, 25]
7.44[74, 453, 473, 297, 106, 38, 26, 25]
7.44[74, 453, 473, 297, 106, 38, 26, 25]
7.44[74, 453, 473, 297, 106, 38, 26, 25]
7.44[74, 453, 473, 297, 106, 38, 26, 25]
7.44[74, 453, 473, 297, 106, 38, 26, 25]
7.44[74, 453, 473, 297, 106, 38, 26, 25]
7.44[77, 465, 496, 313, 107, 40, 28, 26]
7.46[77, 465, 496, 313, 107, 40, 28, 26]
7.46[77, 465, 496, 313, 107, 40, 28, 26]
7.46[77, 465, 496, 313, 107, 40, 28, 26]
7.46[77, 465, 496, 313, 107, 40, 28, 26]
7.46[77, 465, 496, 313, 107, 40, 28, 26]
7.46[77, 465, 496, 313, 107, 40, 28, 26]
7.46[77, 465, 496, 313, 107, 40, 28, 26]
7.46[87, 407, 526, 314, 105, 38, 27, 26]
7.48[87, 407, 526, 314, 105, 38, 27, 26]
7.48[87, 407, 526, 314, 105, 38, 27, 26]
7.48[87, 407, 526, 314, 105, 38, 27, 26]
7.48[87, 407, 526, 314, 105, 38, 27, 26]
7.48[87, 407, 526, 314, 105, 38, 27, 26]
7.48[87, 407, 526, 314, 105, 38, 27, 26]
7.48[87, 407, 526, 314, 105, 38, 27, 26]
7.48[83, 355, 475, 314, 105, 41, 27, 29]
7.5[83, 355, 475, 314, 105, 41, 27, 29]
7.5[83, 355, 475, 314, 105, 41, 27, 29]
7.5[83, 355, 475, 314, 105, 41, 27, 29]
7.5[83, 355, 475, 314, 105, 41, 27, 29]
7.5[83, 355, 475, 314, 105, 41, 27, 29]
7.5[83, 355, 475, 314, 105, 41, 27, 29]
7.5[83, 355, 475, 314, 105, 41, 27, 29]
7.5[94, 427, 454, 305, 107, 43, 26, 28]
7.52[94, 427, 454, 305, 107, 43, 26, 28]
7.52[94, 427, 454, 305, 107, 43, 26, 28]
7.52[94, 427, 454, 305, 107, 43, 26, 28]
7.52[94, 427, 454, 305, 107, 43, 26, 28]
7.52[94, 427, 454, 305, 107, 43, 26, 28]
7.52[94, 427, 454, 305, 107, 43, 26, 28]
7.52[94, 427, 454, 305, 107, 43, 26, 28]
7.52[91, 420, 403, 215, 88, 41, 23, 26]
7.54[91, 420, 403, 215, 88, 41, 23, 26]
7.54[91, 420, 403, 215, 88, 41, 23, 26]
7.54[91, 420, 403, 215, 88, 41, 23, 26]
7.54[91, 420, 403, 215, 88, 41, 23, 26]
7.54[91, 420, 403, 215, 88, 41, 23, 26]
7.54[91, 420, 403, 215, 88, 41, 23, 26]
7.54[91, 420, 403, 215, 88, 41, 23, 26]
7.54[85, 394, 380, 206, 91, 39, 23, 27]
7.56[85, 394, 380, 206, 91, 39, 23, 27]
7.56[85, 394, 380, 206, 91, 39, 23, 27]
7.56[85, 394, 380, 206, 91, 39, 23, 27]
7.56[85, 394, 380, 206, 91, 39, 23, 27]
7.56[85, 394, 380, 206, 91, 39, 23, 27]
7.56[85, 394, 380, 206, 91, 39, 23, 27]
7.56[85, 394, 380, 206, 91, 39, 23, 27]
7.56[78, 371, 381, 209, 93, 41, 24, 30]
7.58[78, 371, 381, 209, 93, 41, 24, 30]
7.58[78, 371, 381, 209, 93, 41, 24, 30]
7.58[78, 371, 381, 209, 93, 41, 24, 30]
7.58[78, 371, 381, 209, 93, 41, 24, 30]
7.58[78, 371, 381, 209, 93, 41, 24, 30]
7.58[78, 371, 381, 209, 93, 41, 24, 30]
7.58[78, 371, 381, 209, 93, 41, 24, 30]
7.58[97, 420, 348, 226, 96, 37, 23, 31]
7.6[97, 420, 348, 226, 96, 37, 23, 31]
7.6[97, 420, 348, 226, 96, 37, 23, 31]
7.6[97, 420, 348, 226, 96, 37, 23, 31]
7.6[97, 420, 348, 226, 96, 37, 23, 31]
7.6[97, 420, 348, 226, 96, 37, 23, 31]
7.6[97, 420, 348, 226, 96, 37, 23, 31]
7.6[97, 420, 348, 226, 96, 37, 23, 31]
7.6[83, 336, 333, 234, 100, 36, 24, 30]
7.62[83, 336, 333, 234, 100, 36, 24, 30]
7.62[83, 336, 333, 234, 100, 36, 24, 30]
7.62[83, 336, 333, 234, 100, 36, 24, 30]
7.62[83, 336, 333, 234, 100, 36, 24, 30]
7.62[83, 336, 333, 234, 100, 36, 24, 30]
7.62[83, 336, 333, 234, 100, 36, 24, 30]
7.62[83, 336, 333, 234, 100, 36, 24, 30]
7.62[81, 327, 342, 237, 93, 36, 30, 31]
7.64[81, 327, 342, 237, 93, 36, 30, 31]
7.64[81, 327, 342, 237, 93, 36, 30, 31]
7.64[81, 327, 342, 237, 93, 36, 30, 31]
7.64[81, 327, 342, 237, 93, 36, 30, 31]
7.64[81, 327, 342, 237, 93, 36, 30, 31]
7.64[81, 327, 342, 237, 93, 36, 30, 31]
7.64[81, 327, 342, 237, 93, 36, 30, 31]
7.64[80, 320, 344, 215, 83, 35, 29, 30]
7.66[80, 320, 344, 215, 83, 35, 29, 30]
7.66[80, 320, 344, 215, 83, 35, 29, 30]
7.66[80, 320, 344, 215, 83, 35, 29, 30]
7.66[80, 320, 344, 215, 83, 35, 29, 30]
7.66[80, 320, 344, 215, 83, 35, 29, 30]
7.66[80, 320, 344, 215, 83, 35, 29, 30]
7.66[80, 320, 344, 215, 83, 35, 29, 30]
7.66[85, 333, 336, 225, 83, 38, 32, 31]
7.68[85, 333, 336, 225, 83, 38, 32, 31]
7.68[85, 333, 336, 225, 83, 38, 32, 31]
7.68[85, 333, 336, 225, 83, 38, 32, 31]
7.68[85, 333, 336, 225, 83, 38, 32, 31]
7.68[85, 333, 336, 225, 83, 38, 32, 31]
7.68[85, 333, 336, 225, 83, 38, 32, 31]
7.68[85, 333, 336, 225, 83, 38, 32, 31]
7.68[76, 374, 381, 233, 82, 37, 32, 27]
7.7[76, 374, 381, 233, 82, 37, 32, 27]
7.7[76, 374, 381, 233, 82, 37, 32, 27]
7.7[76, 374, 381, 233, 82, 37, 32, 27]
7.7[76, 374, 381, 233, 82, 37, 32, 27]
7.7[76, 374, 381, 233, 82, 37, 32, 27]
7.7[76, 374, 381, 233, 82, 37, 32, 27]
7.7[76, 374, 381, 233, 82, 37, 32, 27]
7.7[77, 376, 403, 240, 71, 36, 32, 29]
7.72[77, 376, 403, 240, 71, 36, 32, 29]
7.72[77, 376, 403, 240, 71, 36, 32, 29]
7.72[77, 376, 403, 240, 71, 36, 32, 29]
7.72[77, 376, 403, 240, 71, 36, 32, 29]
7.72[77, 376, 403, 240, 71, 36, 32, 29]
7.72[77, 376, 403, 240, 71, 36, 32, 29]
7.72[77, 376, 403, 240, 71, 36, 32, 29]
7.72[81, 397, 381, 225, 72, 31, 26, 29]
7.74[81, 397, 381, 225, 72, 31, 26, 29]
7.74[81, 397, 381, 225, 72, 31, 26, 29]
7.74[81, 397, 381, 225, 72, 31, 26, 29]
7.74[81, 397, 381, 225, 72, 31, 26, 29]
7.74[81, 397, 381, 225, 72, 31, 26, 29]
7.74[81, 397, 381, 225, 72, 31, 26, 29]
7.74[81, 397, 381, 225, 72, 31, 26, 29]
7.74[83, 391, 374, 220, 72, 31, 29, 29]
7.76[83, 391, 374, 220, 72, 31, 29, 29]
7.76[83, 391, 374, 220, 72, 31, 29, 29]
7.76[83, 391, 374, 220, 72, 31, 29, 29]
7.76[83, 391, 374, 220, 72, 31, 29, 29]
7.76[83, 391, 374, 220, 72, 31, 29, 29]
7.76[83, 391, 374, 220, 72, 31, 29, 29]
7.76[83, 391, 374, 220, 72, 31, 29, 29]
7.76[87, 396, 384, 211, 73, 30, 26, 24]
7.78[87, 396, 384, 211, 73, 30, 26, 24]
7.78[87, 396, 384, 211, 73, 30, 26, 24]
7.78[87, 396, 384, 211, 73, 30, 26, 24]
7.78[87, 396, 384, 211, 73, 30, 26, 24]
7.78[87, 396, 384, 211, 73, 30, 26, 24]
7.78[87, 396, 384, 211, 73, 30, 26, 24]
7.78[87, 396, 384, 211, 73, 30, 26, 24]
7.78[86, 328, 336, 256, 96, 32, 26, 24]
7.8[86, 328, 336, 256, 96, 32, 26, 24]
7.8[86, 328, 336, 256, 96, 32, 26, 24]
7.8[86, 328, 336, 256, 96, 32, 26, 24]
7.8[86, 328, 336, 256, 96, 32, 26, 24]
7.8[86, 328, 336, 256, 96, 32, 26, 24]
7.8[86, 328, 336, 256, 96, 32, 26, 24]
7.8[86, 328, 336, 256, 96, 32, 26, 24]
7.8[88, 318, 327, 269, 104, 36, 26, 24]
7.82[88, 318, 327, 269, 104, 36, 26, 24]
7.82[88, 318, 327, 269, 104, 36, 26, 24]
7.82[88, 318, 327, 269, 104, 36, 26, 24]
7.82[88, 318, 327, 269, 104, 36, 26, 24]
7.82[88, 318, 327, 269, 104, 36, 26, 24]
7.82[88, 318, 327, 269, 104, 36, 26, 24]
7.82[88, 318, 327, 269, 104, 36, 26, 24]
7.82[85, 299, 334, 272, 104, 36, 26, 22]
7.84[85, 299, 334, 272, 104, 36, 26, 22]
7.84[85, 299, 334, 272, 104, 36, 26, 22]
7.84[85, 299, 334, 272, 104, 36, 26, 22]
7.84[85, 299, 334, 272, 104, 36, 26, 22]
7.84[85, 299, 334, 272, 104, 36, 26, 22]
7.84[85, 299, 334, 272, 104, 36, 26, 22]
7.84[85, 299, 334, 272, 104, 36, 26, 22]
7.84[83, 303, 332, 274, 106, 36, 25, 26]
7.86[83, 303, 332, 274, 106, 36, 25, 26]
7.86[83, 303, 332, 274, 106, 36, 25, 26]
7.86[83, 303, 332, 274, 106, 36, 25, 26]
7.86[83, 303, 332, 274, 106, 36, 25, 26]
7.86[83, 303, 332, 274, 106, 36, 25, 26]
7.86[83, 303, 332, 274, 106, 36, 25, 26]
7.86[83, 303, 332, 274, 106, 36, 25, 26]
7.86[75, 336, 296, 294, 110, 35, 27, 28]
7.88[75, 336, 296, 294, 110, 35, 27, 28]
7.88[75, 336, 296, 294, 110, 35, 27, 28]
7.88[75, 336, 296, 294, 110, 35, 27, 28]
7.88[75, 336, 296, 294, 110, 35, 27, 28]
7.88[75, 336, 296, 294, 110, 35, 27, 28]
7.88[75, 336, 296, 294, 110, 35, 27, 28]
7.88[75, 336, 296, 294, 110, 35, 27, 28]
7.88[71, 338, 369, 235, 85, 35, 27, 29]
7.9[71, 338, 369, 235, 85, 35, 27, 29]
7.9[71, 338, 369, 235, 85, 35, 27, 29]
7.9[71, 338, 369, 235, 85, 35, 27, 29]
7.9[71, 338, 369, 235, 85, 35, 27, 29]
7.9[71, 338, 369, 235, 85, 35, 27, 29]
7.9[71, 338, 369, 235, 85, 35, 27, 29]
7.9[71, 338, 369, 235, 85, 35, 27, 29]
7.9[78, 392, 368, 198, 72, 32, 26, 29]
7.92[78, 392, 368, 198, 72, 32, 26, 29]
7.92[78, 392, 368, 198, 72, 32, 26, 29]
7.92[78, 392, 368, 198, 72, 32, 26, 29]
7.92[78, 392, 368, 198, 72, 32, 26, 29]
7.92[78, 392, 368, 198, 72, 32, 26, 29]
7.92[78, 392, 368, 198, 72, 32, 26, 29]
7.92[78, 392, 368, 198, 72, 32, 26, 29]
7.92[78, 389, 359, 195, 66, 32, 27, 29]
7.94[78, 389, 359, 195, 66, 32, 27, 29]
7.94[78, 389, 359, 195, 66, 32, 27, 29]
7.94[78, 389, 359, 195, 66, 32, 27, 29]
7.94[78, 389, 359, 195, 66, 32, 27, 29]
7.94[78, 389, 359, 195, 66, 32, 27, 29]
7.94[78, 389, 359, 195, 66, 32, 27, 29]
7.94[78, 389, 359, 195, 66, 32, 27, 29]
7.94[77, 397, 357, 227, 69, 31, 26, 28]
7.96[77, 397, 357, 227, 69, 31, 26, 28]
7.96[77, 397, 357, 227, 69, 31, 26, 28]
7.96[77, 397, 357, 227, 69, 31, 26, 28]
7.96[77, 397, 357, 227, 69, 31, 26, 28]
7.96[77, 397, 357, 227, 69, 31, 26, 28]
7.96[77, 397, 357, 227, 69, 31, 26, 28]
7.96[77, 397, 357, 227, 69, 31, 26, 28]
7.96[74, 328, 339, 200, 63, 29, 25, 27]
7.98[74, 328, 339, 200, 63, 29, 25, 27]
7.98[74, 328, 339, 200, 63, 29, 25, 27]
7.98[74, 328, 339, 200, 63, 29, 25, 27]
7.98[74, 328, 339, 200, 63, 29, 25, 27]
7.98[74, 328, 339, 200, 63, 29, 25, 27]
7.98[74, 328, 339, 200, 63, 29, 25, 27]
7.98[74, 328, 339, 200, 63, 29, 25, 27]
7.98[72, 322, 288, 197, 64, 31, 24, 28]
8.0[72, 322, 288, 197, 64, 31, 24, 28]
8.0[72, 322, 288, 197, 64, 31, 24, 28]
8.0[72, 322, 288, 197, 64, 31, 24, 28]
8.0[72, 322, 288, 197, 64, 31, 24, 28]
8.0[72, 322, 288, 197, 64, 31, 24, 28]
8.0[72, 322, 288, 197, 64, 31, 24, 28]
8.0[72, 322, 288, 197, 64, 31, 24, 28]
8.0[58, 243, 303, 189, 62, 28, 25, 26]
8.02[58, 243, 303, 189, 62, 28, 25, 26]
8.02[58, 243, 303, 189, 62, 28, 25, 26]
8.02[58, 243, 303, 189, 62, 28, 25, 26]
8.02[58, 243, 303, 189, 62, 28, 25, 26]
8.02[58, 243, 303, 189, 62, 28, 25, 26]
8.02[58, 243, 303, 189, 62, 28, 25, 26]
8.02[58, 243, 303, 189, 62, 28, 25, 26]
8.02[59, 247, 313, 191, 75, 28, 24, 28]
8.04[59, 247, 313, 191, 75, 28, 24, 28]
8.04[59, 247, 313, 191, 75, 28, 24, 28]
8.04[59, 247, 313, 191, 75, 28, 24, 28]
8.04[59, 247, 313, 191, 75, 28, 24, 28]
8.04[59, 247, 313, 191, 75, 28, 24, 28]
8.04[59, 247, 313, 191, 75, 28, 24, 28]
8.04[59, 247, 313, 191, 75, 28, 24, 28]
8.04[61, 245, 330, 151, 69, 29, 23, 26]
8.06[61, 245, 330, 151, 69, 29, 23, 26]
8.06[61, 245, 330, 151, 69, 29, 23, 26]
8.06[61, 245, 330, 151, 69, 29, 23, 26]
8.06[61, 245, 330, 151, 69, 29, 23, 26]
8.06[61, 245, 330, 151, 69, 29, 23, 26]
8.06[61, 245, 330, 151, 69, 29, 23, 26]
8.06[61, 245, 330, 151, 69, 29, 23, 26]
8.06[63, 275, 337, 138, 65, 31, 22, 28]
8.08[63, 275, 337, 138, 65, 31, 22, 28]
8.08[63, 275, 337, 138, 65, 31, 22, 28]
8.08[63, 275, 337, 138, 65, 31, 22, 28]
8.08[63, 275, 337, 138, 65, 31, 22, 28]
8.08[63, 275, 337, 138, 65, 31, 22, 28]
8.08[63, 275, 337, 138, 65, 31, 22, 28]
8.08[63, 275, 337, 138, 65, 31, 22, 28]
8.08[66, 246, 324, 134, 64, 29, 22, 26]
8.1[66, 246, 324, 134, 64, 29, 22, 26]
8.1[66, 246, 324, 134, 64, 29, 22, 26]
8.1[66, 246, 324, 134, 64, 29, 22, 26]
8.1[66, 246, 324, 134, 64, 29, 22, 26]
