[50, 126, 337, 222, 65, 31, 26, 26]
0.46[50, 126, 337, 222, 65, 31, 26, 26]
0.46[50, 126, 337, 222, 65, 31, 26, 26]
0.46[50, 126, 337, 222, 65, 31, 26, 26]
0.46[50, 126, 337, 222, 65, 31, 26, 26]
0.46[50, 126, 337, 222, 65, 31, 26, 26]
0.46[50, 126, 337, 222, 65, 31, 26, 26]
0.46[50, 126, 337, 222, 65, 31, 26, 26]
0.46[52, 107, 351, 242, 72, 35, 28, 27]
0.48[52, 107, 351, 242, 72, 35, 28, 27]
0.48[52, 107, 351, 242, 72, 35, 28, 27]
0.48[52, 107, 351, 242, 72, 35, 28, 27]
0.48[52, 107, 351, 242, 72, 35, 28, 27]
0.48[52, 107, 351, 242, 72, 35, 28, 27]
0.48[52, 107, 351, 242, 72, 35, 28, 27]
0.48[52, 107, 351, 242, 72, 35, 28, 27]
0.48[54, 115, 244, 201, 62, 34, 26, 26]
0.5[54, 115, 244, 201, 62, 34, 26, 26]
0.5[54, 115, 244, 201, 62, 34, 26, 26]
0.5[54, 115, 244, 201, 62, 34, 26, 26]
0.5[54, 115, 244, 201, 62, 34, 26, 26]
0.5[54, 115, 244, 201, 62, 34, 26, 26]
0.5[54, 115, 244, 201, 62, 34, 26, 26]
0.5[54, 115, 244, 201, 62, 34, 26, 26]
0.5[49, 98, 240, 192, 61, 35, 26, 27]
0.52[49, 98, 240, 192, 61, 35, 26, 27]
0.52[49, 98, 240, 192, 61, 35, 26, 27]
0.52[49, 98, 240, 192, 61, 35, 26, 27]
0.52[49, 98, 240, 192, 61, 35, 26, 27]
0.52[49, 98, 240, 192, 61, 35, 26, 27]
0.52[49, 98, 240, 192, 61, 35, 26, 27]
0.52[49, 98, 240, 192, 61, 35, 26, 27]
0.52[44, 96, 245, 191, 59, 32, 25, 25]
0.55[44, 96, 245, 191, 59, 32, 25, 25]
0.55[44, 96, 245, 191, 59, 32, 25, 25]
0.55[44, 96, 245, 191, 59, 32, 25, 25]
0.55[44, 96, 245, 191, 59, 32, 25, 25]
0.55[44, 96, 245, 191, 59, 32, 25, 25]
0.55[44, 96, 245, 191, 59, 32, 25, 25]
0.55[44, 96, 245, 191, 59, 32, 25, 25]
0.55[46, 142, 320, 147, 52, 29, 23, 25]
0.56[46, 142, 320, 147, 52, 29, 23, 25]
0.56[46, 142, 320, 147, 52, 29, 23, 25]
0.56[46, 142, 320, 147, 52, 29, 23, 25]
0.56[46, 142, 320, 147, 52, 29, 23, 25]
0.56[46, 142, 320, 147, 52, 29, 23, 25]
0.56[46, 142, 320, 147, 52, 29, 23, 25]
0.56[46, 142, 320, 147, 52, 29, 23, 25]
0.56[45, 144, 323, 109, 47, 28, 22, 27]
0.58[45, 144, 323, 109, 47, 28, 22, 27]
0.58[45, 144, 323, 109, 47, 28, 22, 27]
0.58[45, 144, 323, 109, 47, 28, 22, 27]
0.58[45, 144, 323, 109, 47, 28, 22, 27]
0.58[45, 144, 323, 109, 47, 28, 22, 27]
0.58[45, 144, 323, 109, 47, 28, 22, 27]
0.58[45, 144, 323, 109, 47, 28, 22, 27]
0.58[42, 138, 357, 168, 62, 29, 23, 27]
0.6[42, 138, 357, 168, 62, 29, 23, 27]
0.6[42, 138, 357, 168, 62, 29, 23, 27]
0.6[42, 138, 357, 168, 62, 29, 23, 27]
0.6[42, 138, 357, 168, 62, 29, 23, 27]
0.6[42, 138, 357, 168, 62, 29, 23, 27]
0.6[42, 138, 357, 168, 62, 29, 23, 27]
0.6[42, 138, 357, 168, 62, 29, 23, 27]
0.6[42, 140, 353, 170, 61, 29, 23, 25]
0.62[42, 140, 353, 170, 61, 29, 23, 25]
0.62[42, 140, 353, 170, 61, 29, 23, 25]
0.62[42, 140, 353, 170, 61, 29, 23, 25]
0.62[42, 140, 353, 170, 61, 29, 23, 25]
0.62[42, 140, 353, 170, 61, 29, 23, 25]
0.62[42, 140, 353, 170, 61, 29, 23, 25]
0.62[42, 140, 353, 170, 61, 29, 23, 25]
0.62[44, 144, 400, 174, 61, 29, 23, 26]
0.64[44, 144, 400, 174, 61, 29, 23, 26]
0.64[44, 144, 400, 174, 61, 29, 23, 26]
0.64[44, 144, 400, 174, 61, 29, 23, 26]
0.64[44, 144, 400, 174, 61, 29, 23, 26]
0.64[44, 144, 400, 174, 61, 29, 23, 26]
0.64[44, 144, 400, 174, 61, 29, 23, 26]
0.64[44, 144, 400, 174, 61, 29, 23, 26]
0.64[40, 102, 344, 186, 64, 29, 22, 26]
0.66[40, 102, 344, 186, 64, 29, 22, 26]
0.66[40, 102, 344, 186, 64, 29, 22, 26]
0.66[40, 102, 344, 186, 64, 29, 22, 26]
0.66[40, 102, 344, 186, 64, 29, 22, 26]
0.66[40, 102, 344, 186, 64, 29, 22, 26]
0.66[40, 102, 344, 186, 64, 29, 22, 26]
0.66[40, 102, 344, 186, 64, 29, 22, 26]
0.66[35, 99, 338, 206, 62, 26, 21, 23]
0.68[35, 99, 338, 206, 62, 26, 21, 23]
0.68[35, 99, 338, 206, 62, 26, 21, 23]
0.68[35, 99, 338, 206, 62, 26, 21, 23]
0.68[35, 99, 338, 206, 62, 26, 21, 23]
0.68[35, 99, 338, 206, 62, 26, 21, 23]
0.68[35, 99, 338, 206, 62, 26, 21, 23]
0.68[35, 99, 338, 206, 62, 26, 21, 23]
0.68[49, 145, 390, 163, 52, 28, 23, 26]
0.7[49, 145, 390, 163, 52, 28, 23, 26]
0.7[49, 145, 390, 163, 52, 28, 23, 26]
0.7[49, 145, 390, 163, 52, 28, 23, 26]
0.7[49, 145, 390, 163, 52, 28, 23, 26]
0.7[49, 145, 390, 163, 52, 28, 23, 26]
0.7[49, 145, 390, 163, 52, 28, 23, 26]
0.7[49, 145, 390, 163, 52, 28, 23, 26]
0.7[51, 151, 406, 158, 53, 30, 25, 27]
0.72[51, 151, 406, 158, 53, 30, 25, 27]
0.72[51, 151, 406, 158, 53, 30, 25, 27]
0.72[51, 151, 406, 158, 53, 30, 25, 27]
0.72[51, 151, 406, 158, 53, 30, 25, 27]
0.72[51, 151, 406, 158, 53, 30, 25, 27]
0.72[51, 151, 406, 158, 53, 30, 25, 27]
0.72[51, 151, 406, 158, 53, 30, 25, 27]
0.72[52, 149, 375, 159, 55, 30, 27, 26]
0.74[52, 149, 375, 159, 55, 30, 27, 26]
0.74[52, 149, 375, 159, 55, 30, 27, 26]
0.74[52, 149, 375, 159, 55, 30, 27, 26]
0.74[52, 149, 375, 159, 55, 30, 27, 26]
0.74[52, 149, 375, 159, 55, 30, 27, 26]
0.74[52, 149, 375, 159, 55, 30, 27, 26]
0.74[52, 149, 375, 159, 55, 30, 27, 26]
0.74[53, 149, 376, 142, 50, 29, 25, 26]
0.76[53, 149, 376, 142, 50, 29, 25, 26]
0.76[53, 149, 376, 142, 50, 29, 25, 26]
0.76[53, 149, 376, 142, 50, 29, 25, 26]
0.76[53, 149, 376, 142, 50, 29, 25, 26]
0.76[53, 149, 376, 142, 50, 29, 25, 26]
0.76[53, 149, 376, 142, 50, 29, 25, 26]
0.76[53, 149, 376, 142, 50, 29, 25, 26]
0.76[54, 145, 426, 120, 57, 30, 27, 25]
0.78[54, 145, 426, 120, 57, 30, 27, 25]
0.78[54, 145, 426, 120, 57, 30, 27, 25]
0.78[54, 145, 426, 120, 57, 30, 27, 25]
0.78[54, 145, 426, 120, 57, 30, 27, 25]
0.78[54, 145, 426, 120, 57, 30, 27, 25]
0.78[54, 145, 426, 120, 57, 30, 27, 25]
0.78[54, 145, 426, 120, 57, 30, 27, 25]
0.78[43, 130, 404, 151, 58, 26, 26, 21]
0.8[43, 130, 404, 151, 58, 26, 26, 21]
0.8[43, 130, 404, 151, 58, 26, 26, 21]
0.8[43, 130, 404, 151, 58, 26, 26, 21]
0.8[43, 130, 404, 151, 58, 26, 26, 21]
0.8[43, 130, 404, 151, 58, 26, 26, 21]
0.8[43, 130, 404, 151, 58, 26, 26, 21]
0.8[43, 130, 404, 151, 58, 26, 26, 21]
0.8[44, 136, 422, 170, 59, 28, 25, 20]
0.82[44, 136, 422, 170, 59, 28, 25, 20]
0.82[44, 136, 422, 170, 59, 28, 25, 20]
0.82[44, 136, 422, 170, 59, 28, 25, 20]
0.82[44, 136, 422, 170, 59, 28, 25, 20]
0.82[44, 136, 422, 170, 59, 28, 25, 20]
0.82[44, 136, 422, 170, 59, 28, 25, 20]
0.82[44, 136, 422, 170, 59, 28, 25, 20]
0.82[44, 140, 409, 175, 60, 26, 25, 22]
0.84[44, 140, 409, 175, 60, 26, 25, 22]
0.84[44, 140, 409, 175, 60, 26, 25, 22]
0.84[44, 140, 409, 175, 60, 26, 25, 22]
0.84[44, 140, 409, 175, 60, 26, 25, 22]
0.84[44, 140, 409, 175, 60, 26, 25, 22]
0.84[44, 140, 409, 175, 60, 26, 25, 22]
0.84[44, 140, 409, 175, 60, 26, 25, 22]
0.84[43, 139, 397, 173, 59, 28, 27, 22]
0.86[43, 139, 397, 173, 59, 28, 27, 22]
0.86[43, 139, 397, 173, 59, 28, 27, 22]
0.86[43, 139, 397, 173, 59, 28, 27, 22]
0.86[43, 139, 397, 173, 59, 28, 27, 22]
0.86[43, 139, 397, 173, 59, 28, 27, 22]
0.86[43, 139, 397, 173, 59, 28, 27, 22]
0.86[43, 139, 397, 173, 59, 28, 27, 22]
0.86[43, 137, 340, 169, 53, 26, 26, 24]
0.88[43, 137, 340, 169, 53, 26, 26, 24]
0.88[43, 137, 340, 169, 53, 26, 26, 24]
0.88[43, 137, 340, 169, 53, 26, 26, 24]
0.88[43, 137, 340, 169, 53, 26, 26, 24]
0.88[43, 137, 340, 169, 53, 26, 26, 24]
0.88[43, 137, 340, 169, 53, 26, 26, 24]
0.88[43, 137, 340, 169, 53, 26, 26, 24]
0.88[46, 118, 281, 163, 47, 27, 24, 25]
0.9[46, 118, 281, 163, 47, 27, 24, 25]
0.9[46, 118, 281, 163, 47, 27, 24, 25]
0.9[46, 118, 281, 163, 47, 27, 24, 25]
0.9[46, 118, 281, 163, 47, 27, 24, 25]
0.9[46, 118, 281, 163, 47, 27, 24, 25]
0.9[46, 118, 281, 163, 47, 27, 24, 25]
0.9[46, 118, 281, 163, 47, 27, 24, 25]
0.9[45, 98, 223, 146, 46, 21, 23, 25]
0.92[45, 98, 223, 146, 46, 21, 23, 25]
0.92[45, 98, 223, 146, 46, 21, 23, 25]
0.92[45, 98, 223, 146, 46, 21, 23, 25]
0.92[45, 98, 223, 146, 46, 21, 23, 25]
0.92[45, 98, 223, 146, 46, 21, 23, 25]
0.92[45, 98, 223, 146, 46, 21, 23, 25]
0.92[45, 98, 223, 146, 46, 21, 23, 25]
0.92[44, 86, 219, 142, 44, 25, 23, 23]
0.95[44, 86, 219, 142, 44, 25, 23, 23]
0.95[44, 86, 219, 142, 44, 25, 23, 23]
0.95[44, 86, 219, 142, 44, 25, 23, 23]
0.95[44, 86, 219, 142, 44, 25, 23, 23]
0.95[44, 86, 219, 142, 44, 25, 23, 23]
0.95[44, 86, 219, 142, 44, 25, 23, 23]
0.95[44, 86, 219, 142, 44, 25, 23, 23]
0.95[46, 97, 356, 146, 47, 24, 23, 24]
0.96[46, 97, 356, 146, 47, 24, 23, 24]
0.96[46, 97, 356, 146, 47, 24, 23, 24]
0.96[46, 97, 356, 146, 47, 24, 23, 24]
0.96[46, 97, 356, 146, 47, 24, 23, 24]
0.96[46, 97, 356, 146, 47, 24, 23, 24]
0.96[46, 97, 356, 146, 47, 24, 23, 24]
0.96[46, 97, 356, 146, 47, 24, 23, 24]
0.96[44, 109, 378, 152, 47, 29, 22, 23]
0.98[44, 109, 378, 152, 47, 29, 22, 23]
0.98[44, 109, 378, 152, 47, 29, 22, 23]
0.98[44, 109, 378, 152, 47, 29, 22, 23]
0.98[44, 109, 378, 152, 47, 29, 22, 23]
0.98[44, 109, 378, 152, 47, 29, 22, 23]
0.98[44, 109, 378, 152, 47, 29, 22, 23]
0.98[44, 109, 378, 152, 47, 29, 22, 23]
0.98[40, 133, 370, 157, 49, 30, 23, 23]
1.01[40, 133, 370, 157, 49, 30, 23, 23]
1.01[40, 133, 370, 157, 49, 30, 23, 23]
1.01[40, 133, 370, 157, 49, 30, 23, 23]
1.01[40, 133, 370, 157, 49, 30, 23, 23]
1.01[40, 133, 370, 157, 49, 30, 23, 23]
1.01[40, 133, 370, 157, 49, 30, 23, 23]
1.01[40, 133, 370, 157, 49, 30, 23, 23]
1.01[39, 145, 392, 167, 46, 31, 24, 24]
1.02[39, 145, 392, 167, 46, 31, 24, 24]
1.02[39, 145, 392, 167, 46, 31, 24, 24]
1.02[39, 145, 392, 167, 46, 31, 24, 24]
1.02[39, 145, 392, 167, 46, 31, 24, 24]
1.02[39, 145, 392, 167, 46, 31, 24, 24]
1.02[39, 145, 392, 167, 46, 31, 24, 24]
1.02[39, 145, 392, 167, 46, 31, 24, 24]
1.02[39, 141, 402, 180, 47, 29, 26, 25]
1.04[39, 141, 402, 180, 47, 29, 26, 25]
1.04[39, 141, 402, 180, 47, 29, 26, 25]
1.04[39, 141, 402, 180, 47, 29, 26, 25]
1.04[39, 141, 402, 180, 47, 29, 26, 25]
1.04[39, 141, 402, 180, 47, 29, 26, 25]
1.04[39, 141, 402, 180, 47, 29, 26, 25]
1.04[39, 141, 402, 180, 47, 29, 26, 25]
1.04[37, 140, 302, 176, 41, 29, 24, 24]
1.06[37, 140, 302, 176, 41, 29, 24, 24]
1.07[37, 140, 302, 176, 41, 29, 24, 24]
1.07[37, 140, 302, 176, 41, 29, 24, 24]
1.07[37, 140, 302, 176, 41, 29, 24, 24]
1.07[37, 140, 302, 176, 41, 29, 24, 24]
1.07[37, 140, 302, 176, 41, 29, 24, 24]
1.07[37, 140, 302, 176, 41, 29, 24, 24]
1.07[42, 135, 268, 182, 40, 26, 25, 23]
1.08[42, 135, 268, 182, 40, 26, 25, 23]
1.08[42, 135, 268, 182, 40, 26, 25, 23]
1.08[42, 135, 268, 182, 40, 26, 25, 23]
1.08[42, 135, 268, 182, 40, 26, 25, 23]
1.08[42, 135, 268, 182, 40, 26, 25, 23]
1.08[42, 135, 268, 182, 40, 26, 25, 23]
1.08[42, 135, 268, 182, 40, 26, 25, 23]
1.08[43, 96, 292, 168, 42, 27, 25, 23]
1.1[43, 96, 292, 168, 42, 27, 25, 23]
1.1[43, 96, 292, 168, 42, 27, 25, 23]
1.1[43, 96, 292, 168, 42, 27, 25, 23]
1.1[43, 96, 292, 168, 42, 27, 25, 23]
1.1[43, 96, 292, 168, 42, 27, 25, 23]
1.1[43, 96, 292, 168, 42, 27, 25, 23]
1.1[43, 96, 292, 168, 42, 27, 25, 23]
1.1[45, 90, 304, 176, 45, 27, 26, 23]
1.12[45, 90, 304, 176, 45, 27, 26, 23]
1.12[45, 90, 304, 176, 45, 27, 26, 23]
1.12[45, 90, 304, 176, 45, 27, 26, 23]
1.12[45, 90, 304, 176, 45, 27, 26, 23]
1.12[45, 90, 304, 176, 45, 27, 26, 23]
1.12[45, 90, 304, 176, 45, 27, 26, 23]
1.13[45, 90, 304, 176, 45, 27, 26, 23]
1.13[43, 96, 294, 176, 46, 29, 26, 25]
1.14[43, 96, 294, 176, 46, 29, 26, 25]
1.14[43, 96, 294, 176, 46, 29, 26, 25]
1.14[43, 96, 294, 176, 46, 29, 26, 25]
1.14[43, 96, 294, 176, 46, 29, 26, 25]
1.14[43, 96, 294, 176, 46, 29, 26, 25]
1.14[43, 96, 294, 176, 46, 29, 26, 25]
1.14[43, 96, 294, 176, 46, 29, 26, 25]
1.14[44, 98, 292, 188, 50, 31, 27, 25]
1.16[44, 98, 292, 188, 50, 31, 27, 25]
1.16[44, 98, 292, 188, 50, 31, 27, 25]
1.16[44, 98, 292, 188, 50, 31, 27, 25]
1.16[44, 98, 292, 188, 50, 31, 27, 25]
1.16[44, 98, 292, 188, 50, 31, 27, 25]
1.16[44, 98, 292, 188, 50, 31, 27, 25]
1.16[44, 98, 292, 188, 50, 31, 27, 25]
1.16[41, 97, 303, 189, 54, 32, 26, 25]
1.19[41, 97, 303, 189, 54, 32, 26, 25]
1.19[41, 97, 303, 189, 54, 32, 26, 25]
1.19[41, 97, 303, 189, 54, 32, 26, 25]
1.19[41, 97, 303, 189, 54, 32, 26, 25]
1.19[41, 97, 303, 189, 54, 32, 26, 25]
1.19[41, 97, 303, 189, 54, 32, 26, 25]
1.19[41, 97, 303, 189, 54, 32, 26, 25]
1.19[37, 99, 319, 176, 51, 30, 26, 24]
1.2[37, 99, 319, 176, 51, 30, 26, 24]
1.2[37, 99, 319, 176, 51, 30, 26, 24]
1.2[37, 99, 319, 176, 51, 30, 26, 24]
1.2[37, 99, 319, 176, 51, 30, 26, 24]
1.2[37, 99, 319, 176, 51, 30, 26, 24]
1.2[37, 99, 319, 176, 51, 30, 26, 24]
1.2[37, 99, 319, 176, 51, 30, 26, 24]
1.2[32, 109, 286, 158, 50, 33, 26, 26]
1.22[32, 109, 286, 158, 50, 33, 26, 26]
1.22[32, 109, 286, 158, 50, 33, 26, 26]
1.22[32, 109, 286, 158, 50, 33, 26, 26]
1.22[32, 109, 286, 158, 50, 33, 26, 26]
1.22[32, 109, 286, 158, 50, 33, 26, 26]
1.22[32, 109, 286, 158, 50, 33, 26, 26]
1.22[32, 109, 286, 158, 50, 33, 26, 26]
1.22[33, 110, 277, 139, 47, 33, 25, 24]
1.25[33, 110, 277, 139, 47, 33, 25, 24]
1.25[33, 110, 277, 139, 47, 33, 25, 24]
1.25[33, 110, 277, 139, 47, 33, 25, 24]
1.25[33, 110, 277, 139, 47, 33, 25, 24]
1.25[33, 110, 277, 139, 47, 33, 25, 24]
1.25[33, 110, 277, 139, 47, 33, 25, 24]
1.25[33, 110, 277, 139, 47, 33, 25, 24]
1.25[34, 99, 263, 151, 44, 31, 25, 23]
1.26[34, 99, 263, 151, 44, 31, 25, 23]
1.26[34, 99, 263, 151, 44, 31, 25, 23]
1.26[34, 99, 263, 151, 44, 31, 25, 23]
1.26[34, 99, 263, 151, 44, 31, 25, 23]
1.26[34, 99, 263, 151, 44, 31, 25, 23]
1.26[34, 99, 263, 151, 44, 31, 25, 23]
1.26[34, 99, 263, 151, 44, 31, 25, 23]
1.26[36, 108, 253, 126, 38, 28, 25, 23]
1.28[36, 108, 253, 126, 38, 28, 25, 23]
1.28[36, 108, 253, 126, 38, 28, 25, 23]
1.28[36, 108, 253, 126, 38, 28, 25, 23]
1.28[36, 108, 253, 126, 38, 28, 25, 23]
1.28[36, 108, 253, 126, 38, 28, 25, 23]
1.28[36, 108, 253, 126, 38, 28, 25, 23]
1.28[36, 108, 253, 126, 38, 28, 25, 23]
1.28[36, 112, 308, 156, 39, 29, 25, 24]
1.31[36, 112, 308, 156, 39, 29, 25, 24]
1.31[36, 112, 308, 156, 39, 29, 25, 24]
1.31[36, 112, 308, 156, 39, 29, 25, 24]
1.31[36, 112, 308, 156, 39, 29, 25, 24]
1.31[36, 112, 308, 156, 39, 29, 25, 24]
1.31[36, 112, 308, 156, 39, 29, 25, 24]
1.31[36, 112, 308, 156, 39, 29, 25, 24]
1.31[38, 100, 357, 181, 41, 27, 21, 24]
1.32[38, 100, 357, 181, 41, 27, 21, 24]
1.32[38, 100, 357, 181, 41, 27, 21, 24]
1.32[38, 100, 357, 181, 41, 27, 21, 24]
1.32[38, 100, 357, 181, 41, 27, 21, 24]
1.32[38, 100, 357, 181, 41, 27, 21, 24]
1.32[38, 100, 357, 181, 41, 27, 21, 24]
1.32[38, 100, 357, 181, 41, 27, 21, 24]
1.32[38, 100, 369, 183, 42, 25, 22, 26]
1.34[38, 100, 369, 183, 42, 25, 22, 26]
1.34[38, 100, 369, 183, 42, 25, 22, 26]
1.34[38, 100, 369, 183, 42, 25, 22, 26]
1.34[38, 100, 369, 183, 42, 25, 22, 26]
1.34[38, 100, 369, 183, 42, 25, 22, 26]
1.34[38, 100, 369, 183, 42, 25, 22, 26]
1.34[38, 100, 369, 183, 42, 25, 22, 26]
1.34[36, 108, 444, 158, 40, 26, 22, 26]
1.36[36, 108, 444, 158, 40, 26, 22, 26]
1.36[36, 108, 444, 158, 40, 26, 22, 26]
1.36[36, 108, 444, 158, 40, 26, 22, 26]
1.36[36, 108, 444, 158, 40, 26, 22, 26]
1.36[36, 108, 444, 158, 40, 26, 22, 26]
1.36[36, 108, 444, 158, 40, 26, 22, 26]
1.36[36, 108, 444, 158, 40, 26, 22, 26]
1.36[37, 95, 469, 172, 45, 26, 22, 26]
1.39[37, 95, 469, 172, 45, 26, 22, 26]
1.39[37, 95, 469, 172, 45, 26, 22, 26]
1.39[37, 95, 469, 172, 45, 26, 22, 26]
1.39[37, 95, 469, 172, 45, 26, 22, 26]
1.39[37, 95, 469, 172, 45, 26, 22, 26]
1.39[37, 95, 469, 172, 45, 26, 22, 26]
1.39[37, 95, 469, 172, 45, 26, 22, 26]
1.39[45, 121, 420, 170, 48, 27, 23, 26]
1.4[45, 121, 420, 170, 48, 27, 23, 26]
1.4[45, 121, 420, 170, 48, 27, 23, 26]
1.4[45, 121, 420, 170, 48, 27, 23, 26]
1.4[45, 121, 420, 170, 48, 27, 23, 26]
1.4[45, 121, 420, 170, 48, 27, 23, 26]
1.4[45, 121, 420, 170, 48, 27, 23, 26]
1.4[45, 121, 420, 170, 48, 27, 23, 26]
1.4[46, 122, 420, 147, 45, 27, 21, 24]
1.43[46, 122, 420, 147, 45, 27, 21, 24]
1.43[46, 122, 420, 147, 45, 27, 21, 24]
1.43[46, 122, 420, 147, 45, 27, 21, 24]
1.43[46, 122, 420, 147, 45, 27, 21, 24]
1.43[46, 122, 420, 147, 45, 27, 21, 24]
1.43[46, 122, 420, 147, 45, 27, 21, 24]
1.43[46, 122, 420, 147, 45, 27, 21, 24]
1.43[49, 124, 407, 152, 46, 31, 21, 25]
1.45[49, 124, 407, 152, 46, 31, 21, 25]
1.45[49, 124, 407, 152, 46, 31, 21, 25]
1.45[49, 124, 407, 152, 46, 31, 21, 25]
1.45[49, 124, 407, 152, 46, 31, 21, 25]
1.45[49, 124, 407, 152, 46, 31, 21, 25]
1.45[49, 124, 407, 152, 46, 31, 21, 25]
1.45[49, 124, 407, 152, 46, 31, 21, 25]
1.45[47, 120, 336, 153, 47, 30, 19, 25]
1.47[47, 120, 336, 153, 47, 30, 19, 25]
1.47[47, 120, 336, 153, 47, 30, 19, 25]
1.47[47, 120, 336, 153, 47, 30, 19, 25]
1.47[47, 120, 336, 153, 47, 30, 19, 25]
1.47[47, 120, 336, 153, 47, 30, 19, 25]
1.47[47, 120, 336, 153, 47, 30, 19, 25]
1.47[47, 120, 336, 153, 47, 30, 19, 25]
1.47[50, 119, 311, 156, 46, 31, 21, 26]
1.49[50, 119, 311, 156, 46, 31, 21, 26]
1.49[50, 119, 311, 156, 46, 31, 21, 26]
1.49[50, 119, 311, 156, 46, 31, 21, 26]
1.49[50, 119, 311, 156, 46, 31, 21, 26]
1.49[50, 119, 311, 156, 46, 31, 21, 26]
1.49[50, 119, 311, 156, 46, 31, 21, 26]
1.49[50, 119, 311, 156, 46, 31, 21, 26]
1.49[47, 100, 318, 132, 41, 29, 21, 27]
1.51[47, 100, 318, 132, 41, 29, 21, 27]
1.51[47, 100, 318, 132, 41, 29, 21, 27]
1.51[47, 100, 318, 132, 41, 29, 21, 27]
1.51[47, 100, 318, 132, 41, 29, 21, 27]
1.51[47, 100, 318, 132, 41, 29, 21, 27]
1.51[47, 100, 318, 132, 41, 29, 21, 27]
1.51[47, 100, 318, 132, 41, 29, 21, 27]
1.51[43, 95, 262, 119, 38, 28, 23, 26]
1.53[43, 95, 262, 119, 38, 28, 23, 26]
1.53[43, 95, 262, 119, 38, 28, 23, 26]
1.53[43, 95, 262, 119, 38, 28, 23, 26]
1.53[43, 95, 262, 119, 38, 28, 23, 26]
1.53[43, 95, 262, 119, 38, 28, 23, 26]
1.53[43, 95, 262, 119, 38, 28, 23, 26]
1.53[43, 95, 262, 119, 38, 28, 23, 26]
1.53[42, 93, 267, 125, 40, 23, 22, 25]
1.55[42, 93, 267, 125, 40, 23, 22, 25]
1.55[42, 93, 267, 125, 40, 23, 22, 25]
1.55[42, 93, 267, 125, 40, 23, 22, 25]
1.55[42, 93, 267, 125, 40, 23, 22, 25]
1.55[42, 93, 267, 125, 40, 23, 22, 25]
1.55[42, 93, 267, 125, 40, 23, 22, 25]
1.55[42, 93, 267, 125, 40, 23, 22, 25]
1.55[43, 99, 289, 149, 44, 24, 25, 26]
1.57[43, 99, 289, 149, 44, 24, 25, 26]
1.57[43, 99, 289, 149, 44, 24, 25, 26]
1.57[43, 99, 289, 149, 44, 24, 25, 26]
1.57[43, 99, 289, 149, 44, 24, 25, 26]
1.57[43, 99, 289, 149, 44, 24, 25, 26]
1.57[43, 99, 289, 149, 44, 24, 25, 26]
1.57[43, 99, 289, 149, 44, 24, 25, 26]
1.57[43, 104, 273, 136, 45, 25, 23, 25]
1.59[43, 104, 273, 136, 45, 25, 23, 25]
1.59[43, 104, 273, 136, 45, 25, 23, 25]
1.59[43, 104, 273, 136, 45, 25, 23, 25]
1.59[43, 104, 273, 136, 45, 25, 23, 25]
1.59[43, 104, 273, 136, 45, 25, 23, 25]
1.59[43, 104, 273, 136, 45, 25, 23, 25]
1.59[43, 104, 273, 136, 45, 25, 23, 25]
1.59[39, 100, 262, 130, 43, 25, 23, 24]
1.61[39, 100, 262, 130, 43, 25, 23, 24]
1.61[39, 100, 262, 130, 43, 25, 23, 24]
1.61[39, 100, 262, 130, 43, 25, 23, 24]
1.61[39, 100, 262, 130, 43, 25, 23, 24]
1.61[39, 100, 262, 130, 43, 25, 23, 24]
1.61[39, 100, 262, 130, 43, 25, 23, 24]
1.61[39, 100, 262, 130, 43, 25, 23, 24]
1.61[41, 101, 287, 145, 47, 26, 22, 25]
1.63[41, 101, 287, 145, 47, 26, 22, 25]
1.63[41, 101, 287, 145, 47, 26, 22, 25]
1.63[41, 101, 287, 145, 47, 26, 22, 25]
1.63[41, 101, 287, 145, 47, 26, 22, 25]
1.63[41, 101, 287, 145, 47, 26, 22, 25]
1.63[41, 101, 287, 145, 47, 26, 22, 25]
1.63[41, 101, 287, 145, 47, 26, 22, 25]
1.63[40, 102, 294, 144, 44, 27, 22, 25]
1.65[40, 102, 294, 144, 44, 27, 22, 25]
1.65[40, 102, 294, 144, 44, 27, 22, 25]
1.65[40, 102, 294, 144, 44, 27, 22, 25]
1.65[40, 102, 294, 144, 44, 27, 22, 25]
1.65[40, 102, 294, 144, 44, 27, 22, 25]
1.65[40, 102, 294, 144, 44, 27, 22, 25]
1.65[40, 102, 294, 144, 44, 27, 22, 25]
1.65[47, 136, 272, 122, 43, 26, 20, 26]
1.66[47, 136, 272, 122, 43, 26, 20, 26]
1.66[47, 136, 272, 122, 43, 26, 20, 26]
1.66[47, 136, 272, 122, 43, 26, 20, 26]
1.66[47, 136, 272, 122, 43, 26, 20, 26]
1.66[47, 136, 272, 122, 43, 26, 20, 26]
1.66[47, 136, 272, 122, 43, 26, 20, 26]
1.66[47, 136, 272, 122, 43, 26, 20, 26]
1.66[42, 140, 343, 114, 42, 27, 20, 25]
1.69[42, 140, 343, 114, 42, 27, 20, 25]
1.69[42, 140, 343, 114, 42, 27, 20, 25]
1.69[42, 140, 343, 114, 42, 27, 20, 25]
1.69[42, 140, 343, 114, 42, 27, 20, 25]
1.69[42, 140, 343, 114, 42, 27, 20, 25]
1.69[42, 140, 343, 114, 42, 27, 20, 25]
1.69[42, 140, 343, 114, 42, 27, 20, 25]
1.69[45, 135, 337, 117, 45, 28, 21, 26]
1.71[45, 135, 337, 117, 45, 28, 21, 26]
1.71[45, 135, 337, 117, 45, 28, 21, 26]
1.71[45, 135, 337, 117, 45, 28, 21, 26]
1.71[45, 135, 337, 117, 45, 28, 21, 26]
1.71[45, 135, 337, 117, 45, 28, 21, 26]
1.71[45, 135, 337, 117, 45, 28, 21, 26]
1.71[45, 135, 337, 117, 45, 28, 21, 26]
1.71[46, 134, 350, 130, 43, 26, 21, 24]
1.73[46, 134, 350, 130, 43, 26, 21, 24]
1.73[46, 134, 350, 130, 43, 26, 21, 24]
1.73[46, 134, 350, 130, 43, 26, 21, 24]
1.73[46, 134, 350, 130, 43, 26, 21, 24]
1.73[46, 134, 350, 130, 43, 26, 21, 24]
1.73[46, 134, 350, 130, 43, 26, 21, 24]
1.73[46, 134, 350, 130, 43, 26, 21, 24]
1.73[47, 132, 377, 124, 45, 26, 23, 23]
1.75[47, 132, 377, 124, 45, 26, 23, 23]
1.75[47, 132, 377, 124, 45, 26, 23, 23]
1.75[47, 132, 377, 124, 45, 26, 23, 23]
1.75[47, 132, 377, 124, 45, 26, 23, 23]
1.75[47, 132, 377, 124, 45, 26, 23, 23]
1.75[47, 132, 377, 124, 45, 26, 23, 23]
1.75[47, 132, 377, 124, 45, 26, 23, 23]
1.75[41, 93, 379, 120, 49, 28, 23, 21]
1.77[41, 93, 379, 120, 49, 28, 23, 21]
1.77[41, 93, 379, 120, 49, 28, 23, 21]
1.77[41, 93, 379, 120, 49, 28, 23, 21]
1.77[41, 93, 379, 120, 49, 28, 23, 21]
1.77[41, 93, 379, 120, 49, 28, 23, 21]
1.77[41, 93, 379, 120, 49, 28, 23, 21]
1.77[41, 93, 379, 120, 49, 28, 23, 21]
1.77[40, 88, 411, 140, 53, 28, 24, 21]
1.79[40, 88, 411, 140, 53, 28, 24, 21]
1.79[40, 88, 411, 140, 53, 28, 24, 21]
1.79[40, 88, 411, 140, 53, 28, 24, 21]
1.79[40, 88, 411, 140, 53, 28, 24, 21]
1.79[40, 88, 411, 140, 53, 28, 24, 21]
1.79[40, 88, 411, 140, 53, 28, 24, 21]
1.79[40, 88, 411, 140, 53, 28, 24, 21]
1.79[40, 88, 403, 146, 52, 28, 25, 19]
1.81[40, 88, 403, 146, 52, 28, 25, 19]
1.81[40, 88, 403, 146, 52, 28, 25, 19]
1.81[40, 88, 403, 146, 52, 28, 25, 19]
1.81[40, 88, 403, 146, 52, 28, 25, 19]
1.81[40, 88, 403, 146, 52, 28, 25, 19]
1.81[40, 88, 403, 146, 52, 28, 25, 19]
1.81[40, 88, 403, 146, 52, 28, 25, 19]
1.81[40, 98, 396, 137, 56, 31, 26, 25]
1.83[40, 98, 396, 137, 56, 31, 26, 25]
1.83[40, 98, 396, 137, 56, 31, 26, 25]
1.83[40, 98, 396, 137, 56, 31, 26, 25]
1.83[40, 98, 396, 137, 56, 31, 26, 25]
1.83[40, 98, 396, 137, 56, 31, 26, 25]
1.83[40, 98, 396, 137, 56, 31, 26, 25]
1.83[40, 98, 396, 137, 56, 31, 26, 25]
1.83[37, 95, 371, 144, 60, 32, 23, 26]
1.84[37, 95, 371, 144, 60, 32, 23, 26]
1.84[37, 95, 371, 144, 60, 32, 23, 26]
1.84[37, 95, 371, 144, 60, 32, 23, 26]
1.84[37, 95, 371, 144, 60, 32, 23, 26]
1.84[37, 95, 371, 144, 60, 32, 23, 26]
1.84[37, 95, 371, 144, 60, 32, 23, 26]
1.84[37, 95, 371, 144, 60, 32, 23, 26]
1.85[38, 96, 377, 146, 57, 31, 23, 26]
1.87[38, 96, 377, 146, 57, 31, 23, 26]
1.87[38, 96, 377, 146, 57, 31, 23, 26]
1.87[38, 96, 377, 146, 57, 31, 23, 26]
1.87[38, 96, 377, 146, 57, 31, 23, 26]
1.87[38, 96, 377, 146, 57, 31, 23, 26]
1.87[38, 96, 377, 146, 57, 31, 23, 26]
1.87[38, 96, 377, 146, 57, 31, 23, 26]
1.87[37, 88, 283, 140, 50, 29, 23, 28]
1.89[37, 88, 283, 140, 50, 29, 23, 28]
1.89[37, 88, 283, 140, 50, 29, 23, 28]
1.89[37, 88, 283, 140, 50, 29, 23, 28]
1.89[37, 88, 283, 140, 50, 29, 23, 28]
1.89[37, 88, 283, 140, 50, 29, 23, 28]
1.89[37, 88, 283, 140, 50, 29, 23, 28]
1.89[37, 88, 283, 140, 50, 29, 23, 28]
1.89[35, 98, 275, 133, 49, 28, 25, 28]
1.91[35, 98, 275, 133, 49, 28, 25, 28]
1.91[35, 98, 275, 133, 49, 28, 25, 28]
1.91[35, 98, 275, 133, 49, 28, 25, 28]
1.91[35, 98, 275, 133, 49, 28, 25, 28]
1.91[35, 98, 275, 133, 49, 28, 25, 28]
1.91[35, 98, 275, 133, 49, 28, 25, 28]
1.91[35, 98, 275, 133, 49, 28, 25, 28]
1.91[32, 102, 279, 115, 48, 25, 26, 23]
1.93[32, 102, 279, 115, 48, 25, 26, 23]
1.93[32, 102, 279, 115, 48, 25, 26, 23]
1.93[32, 102, 279, 115, 48, 25, 26, 23]
1.93[32, 102, 279, 115, 48, 25, 26, 23]
1.93[32, 102, 279, 115, 48, 25, 26, 23]
1.93[32, 102, 279, 115, 48, 25, 26, 23]
1.93[32, 102, 279, 115, 48, 25, 26, 23]
1.93[43, 142, 303, 110, 40, 24, 27, 25]
1.95[43, 142, 303, 110, 40, 24, 27, 25]
1.95[43, 142, 303, 110, 40, 24, 27, 25]
1.95[43, 142, 303, 110, 40, 24, 27, 25]
1.95[43, 142, 303, 110, 40, 24, 27, 25]
1.95[43, 142, 303, 110, 40, 24, 27, 25]
1.95[43, 142, 303, 110, 40, 24, 27, 25]
1.95[43, 142, 303, 110, 40, 24, 27, 25]
1.95[47, 142, 284, 123, 37, 24, 26, 26]
1.96[47, 142, 284, 123, 37, 24, 26, 26]
1.97[47, 142, 284, 123, 37, 24, 26, 26]
1.97[47, 142, 284, 123, 37, 24, 26, 26]
1.97[47, 142, 284, 123, 37, 24, 26, 26]
1.97[47, 142, 284, 123, 37, 24, 26, 26]
1.97[47, 142, 284, 123, 37, 24, 26, 26]
1.97[47, 142, 284, 123, 37, 24, 26, 26]
1.97[50, 142, 274, 128, 37, 23, 26, 27]
1.99[50, 142, 274, 128, 37, 23, 26, 27]
1.99[50, 142, 274, 128, 37, 23, 26, 27]
1.99[50, 142, 274, 128, 37, 23, 26, 27]
1.99[50, 142, 274, 128, 37, 23, 26, 27]
1.99[50, 142, 274, 128, 37, 23, 26, 27]
1.99[50, 142, 274, 128, 37, 23, 26, 27]
1.99[50, 142, 274, 128, 37, 23, 26, 27]
1.99[52, 143, 338, 140, 42, 24, 23, 27]
2.01[52, 143, 338, 140, 42, 24, 23, 27]
2.01[52, 143, 338, 140, 42, 24, 23, 27]
2.01[52, 143, 338, 140, 42, 24, 23, 27]
2.01[52, 143, 338, 140, 42, 24, 23, 27]
2.01[52, 143, 338, 140, 42, 24, 23, 27]
2.01[52, 143, 338, 140, 42, 24, 23, 27]
2.01[52, 143, 338, 140, 42, 24, 23, 27]
2.01[53, 140, 304, 141, 37, 25, 24, 27]
2.02[53, 140, 304, 141, 37, 25, 24, 27]
2.02[53, 140, 304, 141, 37, 25, 24, 27]
2.02[53, 140, 304, 141, 37, 25, 24, 27]
2.02[53, 140, 304, 141, 37, 25, 24, 27]
2.02[53, 140, 304, 141, 37, 25, 24, 27]
2.02[53, 140, 304, 141, 37, 25, 24, 27]
2.02[53, 140, 304, 141, 37, 25, 24, 27]
2.02[51, 138, 286, 159, 38, 24, 23, 27]
2.05[51, 138, 286, 159, 38, 24, 23, 27]
2.05[51, 138, 286, 159, 38, 24, 23, 27]
2.05[51, 138, 286, 159, 38, 24, 23, 27]
2.05[51, 138, 286, 159, 38, 24, 23, 27]
2.05[51, 138, 286, 159, 38, 24, 23, 27]
2.05[51, 138, 286, 159, 38, 24, 23, 27]
2.05[51, 138, 286, 159, 38, 24, 23, 27]
2.05[50, 149, 301, 153, 38, 25, 23, 27]
2.07[50, 149, 301, 153, 38, 25, 23, 27]
2.07[50, 149, 301, 153, 38, 25, 23, 27]
2.07[50, 149, 301, 153, 38, 25, 23, 27]
2.07[50, 149, 301, 153, 38, 25, 23, 27]
2.07[50, 149, 301, 153, 38, 25, 23, 27]
2.07[50, 149, 301, 153, 38, 25, 23, 27]
2.07[50, 149, 301, 153, 38, 25, 23, 27]
2.07[46, 150, 317, 139, 43, 26, 22, 24]
2.09[46, 150, 317, 139, 43, 26, 22, 24]
2.09[46, 150, 317, 139, 43, 26, 22, 24]
2.09[46, 150, 317, 139, 43, 26, 22, 24]
2.09[46, 150, 317, 139, 43, 26, 22, 24]
2.09[46, 150, 317, 139, 43, 26, 22, 24]
2.09[46, 150, 317, 139, 43, 26, 22, 24]
2.09[46, 150, 317, 139, 43, 26, 22, 24]
2.09[44, 140, 274, 131, 40, 29, 22, 27]
2.11[44, 140, 274, 131, 40, 29, 22, 27]
2.11[44, 140, 274, 131, 40, 29, 22, 27]
2.11[44, 140, 274, 131, 40, 29, 22, 27]
2.11[44, 140, 274, 131, 40, 29, 22, 27]
2.11[44, 140, 274, 131, 40, 29, 22, 27]
2.11[44, 140, 274, 131, 40, 29, 22, 27]
2.11[44, 140, 274, 131, 40, 29, 22, 27]
2.11[45, 134, 283, 146, 40, 28, 19, 26]
2.13[45, 134, 283, 146, 40, 28, 19, 26]
2.13[45, 134, 283, 146, 40, 28, 19, 26]
2.13[45, 134, 283, 146, 40, 28, 19, 26]
2.13[45, 134, 283, 146, 40, 28, 19, 26]
2.13[45, 134, 283, 146, 40, 28, 19, 26]
2.13[45, 134, 283, 146, 40, 28, 19, 26]
2.13[45, 134, 283, 146, 40, 28, 19, 26]
2.13[41, 118, 267, 129, 38, 26, 20, 26]
2.14[41, 118, 267, 129, 38, 26, 20, 26]
2.14[41, 118, 267, 129, 38, 26, 20, 26]
2.14[41, 118, 267, 129, 38, 26, 20, 26]
2.14[41, 118, 267, 129, 38, 26, 20, 26]
2.14[41, 118, 267, 129, 38, 26, 20, 26]
2.14[41, 118, 267, 129, 38, 26, 20, 26]
2.14[41, 118, 267, 129, 38, 26, 20, 26]
2.14[39, 108, 294, 134, 42, 25, 20, 26]
2.17[39, 108, 294, 134, 42, 25, 20, 26]
2.17[39, 108, 294, 134, 42, 25, 20, 26]
2.17[39, 108, 294, 134, 42, 25, 20, 26]
2.17[39, 108, 294, 134, 42, 25, 20, 26]
2.17[39, 108, 294, 134, 42, 25, 20, 26]
2.17[39, 108, 294, 134, 42, 25, 20, 26]
2.17[39, 108, 294, 134, 42, 25, 20, 26]
2.17[42, 127, 342, 164, 47, 29, 23, 25]
2.19[42, 127, 342, 164, 47, 29, 23, 25]
2.19[42, 127, 342, 164, 47, 29, 23, 25]
2.19[42, 127, 342, 164, 47, 29, 23, 25]
2.19[42, 127, 342, 164, 47, 29, 23, 25]
2.19[42, 127, 342, 164, 47, 29, 23, 25]
2.19[42, 127, 342, 164, 47, 29, 23, 25]
2.19[42, 127, 342, 164, 47, 29, 23, 25]
2.19[43, 135, 335, 164, 46, 30, 24, 24]
2.21[43, 135, 335, 164, 46, 30, 24, 24]
2.21[43, 135, 335, 164, 46, 30, 24, 24]
2.21[43, 135, 335, 164, 46, 30, 24, 24]
2.21[43, 135, 335, 164, 46, 30, 24, 24]
2.21[43, 135, 335, 164, 46, 30, 24, 24]
2.21[43, 135, 335, 164, 46, 30, 24, 24]
2.21[43, 135, 335, 164, 46, 30, 24, 24]
2.21[44, 140, 364, 162, 46, 30, 24, 25]
2.23[44, 140, 364, 162, 46, 30, 24, 25]
2.23[44, 140, 364, 162, 46, 30, 24, 25]
2.23[44, 140, 364, 162, 46, 30, 24, 25]
2.23[44, 140, 364, 162, 46, 30, 24, 25]
2.23[44, 140, 364, 162, 46, 30, 24, 25]
2.23[44, 140, 364, 162, 46, 30, 24, 25]
2.23[44, 140, 364, 162, 46, 30, 24, 25]
2.23[43, 124, 409, 156, 46, 32, 23, 24]
2.25[43, 124, 409, 156, 46, 32, 23, 24]
2.25[43, 124, 409, 156, 46, 32, 23, 24]
2.25[43, 124, 409, 156, 46, 32, 23, 24]
2.25[43, 124, 409, 156, 46, 32, 23, 24]
2.25[43, 124, 409, 156, 46, 32, 23, 24]
2.25[43, 124, 409, 156, 46, 32, 23, 24]
2.25[43, 124, 409, 156, 46, 32, 23, 24]
2.25[43, 119, 387, 150, 42, 33, 23, 26]
2.27[43, 119, 387, 150, 42, 33, 23, 26]
2.27[43, 119, 387, 150, 42, 33, 23, 26]
2.27[43, 119, 387, 150, 42, 33, 23, 26]
2.27[43, 119, 387, 150, 42, 33, 23, 26]
2.27[43, 119, 387, 150, 42, 33, 23, 26]
2.27[43, 119, 387, 150, 42, 33, 23, 26]
2.27[43, 119, 387, 150, 42, 33, 23, 26]
2.27[42, 102, 355, 154, 43, 30, 21, 25]
2.29[42, 102, 355, 154, 43, 30, 21, 25]
2.29[42, 102, 355, 154, 43, 30, 21, 25]
2.29[42, 102, 355, 154, 43, 30, 21, 25]
2.29[42, 102, 355, 154, 43, 30, 21, 25]
2.29[42, 102, 355, 154, 43, 30, 21, 25]
2.29[42, 102, 355, 154, 43, 30, 21, 25]
2.29[42, 102, 355, 154, 43, 30, 21, 25]
2.29[43, 101, 341, 156, 44, 27, 21, 26]
2.31[43, 101, 341, 156, 44, 27, 21, 26]
2.31[43, 101, 341, 156, 44, 27, 21, 26]
2.31[43, 101, 341, 156, 44, 27, 21, 26]
2.31[43, 101, 341, 156, 44, 27, 21, 26]
2.31[43, 101, 341, 156, 44, 27, 21, 26]
2.31[43, 101, 341, 156, 44, 27, 21, 26]
2.31[43, 101, 341, 156, 44, 27, 21, 26]
2.31[40, 90, 312, 142, 42, 29, 22, 27]
2.33[40, 90, 312, 142, 42, 29, 22, 27]
2.33[40, 90, 312, 142, 42, 29, 22, 27]
2.33[40, 90, 312, 142, 42, 29, 22, 27]
2.33[40, 90, 312, 142, 42, 29, 22, 27]
2.33[40, 90, 312, 142, 42, 29, 22, 27]
2.33[40, 90, 312, 142, 42, 29, 22, 27]
2.33[40, 90, 312, 142, 42, 29, 22, 27]
2.33[42, 92, 315, 142, 44, 28, 21, 27]
2.35[42, 92, 315, 142, 44, 28, 21, 27]
2.35[42, 92, 315, 142, 44, 28, 21, 27]
2.35[42, 92, 315, 142, 44, 28, 21, 27]
2.35[42, 92, 315, 142, 44, 28, 21, 27]
2.35[42, 92, 315, 142, 44, 28, 21, 27]
2.35[42, 92, 315, 142, 44, 28, 21, 27]
2.35[42, 92, 315, 142, 44, 28, 21, 27]
2.35[41, 89, 299, 137, 45, 26, 21, 25]
2.37[41, 89, 299, 137, 45, 26, 21, 25]
2.37[41, 89, 299, 137, 45, 26, 21, 25]
2.37[41, 89, 299, 137, 45, 26, 21, 25]
2.37[41, 89, 299, 137, 45, 26, 21, 25]
2.37[41, 89, 299, 137, 45, 26, 21, 25]
2.37[41, 89, 299, 137, 45, 26, 21, 25]
2.37[41, 89, 299, 137, 45, 26, 21, 25]
2.37[42, 125, 276, 114, 41, 25, 20, 25]
2.39[42, 125, 276, 114, 41, 25, 20, 25]
2.39[42, 125, 276, 114, 41, 25, 20, 25]
2.39[42, 125, 276, 114, 41, 25, 20, 25]
2.39[42, 125, 276, 114, 41, 25, 20, 25]
2.39[42, 125, 276, 114, 41, 25, 20, 25]
2.39[42, 125, 276, 114, 41, 25, 20, 25]
2.39[42, 125, 276, 114, 41, 25, 20, 25]
2.39[41, 130, 312, 109, 40, 25, 20, 23]
2.41[41, 130, 312, 109, 40, 25, 20, 23]
2.41[41, 130, 312, 109, 40, 25, 20, 23]
2.41[41, 130, 312, 109, 40, 25, 20, 23]
2.41[41, 130, 312, 109, 40, 25, 20, 23]
2.41[41, 130, 312, 109, 40, 25, 20, 23]
2.41[41, 130, 312, 109, 40, 25, 20, 23]
2.41[41, 130, 312, 109, 40, 25, 20, 23]
2.41[53, 144, 313, 110, 44, 27, 19, 24]
2.43[53, 144, 313, 110, 44, 27, 19, 24]
2.43[53, 144, 313, 110, 44, 27, 19, 24]
2.43[53, 144, 313, 110, 44, 27, 19, 24]
2.43[53, 144, 313, 110, 44, 27, 19, 24]
2.43[53, 144, 313, 110, 44, 27, 19, 24]
2.43[53, 144, 313, 110, 44, 27, 19, 24]
2.43[53, 144, 313, 110, 44, 27, 19, 24]
2.43[55, 185, 323, 105, 43, 27, 18, 23]
2.45[55, 185, 323, 105, 43, 27, 18, 23]
2.45[55, 185, 323, 105, 43, 27, 18, 23]
2.45[55, 185, 323, 105, 43, 27, 18, 23]
2.45[55, 185, 323, 105, 43, 27, 18, 23]
2.45[55, 185, 323, 105, 43, 27, 18, 23]
2.45[55, 185, 323, 105, 43, 27, 18, 23]
2.45[55, 185, 323, 105, 43, 27, 18, 23]
2.45[66, 212, 346, 115, 44, 29, 21, 23]
2.47[66, 212, 346, 115, 44, 29, 21, 23]
2.47[66, 212, 346, 115, 44, 29, 21, 23]
2.47[66, 212, 346, 115, 44, 29, 21, 23]
2.47[66, 212, 346, 115, 44, 29, 21, 23]
2.47[66, 212, 346, 115, 44, 29, 21, 23]
2.47[66, 212, 346, 115, 44, 29, 21, 23]
2.47[66, 212, 346, 115, 44, 29, 21, 23]
2.47[83, 268, 411, 130, 45, 31, 26, 27]
2.49[83, 268, 411, 130, 45, 31, 26, 27]
2.49[83, 268, 411, 130, 45, 31, 26, 27]
2.49[83, 268, 411, 130, 45, 31, 26, 27]
2.49[83, 268, 411, 130, 45, 31, 26, 27]
2.49[83, 268, 411, 130, 45, 31, 26, 27]
2.49[83, 268, 411, 130, 45, 31, 26, 27]
2.49[83, 268, 411, 130, 45, 31, 26, 27]
2.49[89, 290, 400, 140, 48, 29, 28, 28]
2.51[89, 290, 400, 140, 48, 29, 28, 28]
2.51[89, 290, 400, 140, 48, 29, 28, 28]
2.51[89, 290, 400, 140, 48, 29, 28, 28]
2.51[89, 290, 400, 140, 48, 29, 28, 28]
2.51[89, 290, 400, 140, 48, 29, 28, 28]
2.51[89, 290, 400, 140, 48, 29, 28, 28]
2.51[89, 290, 400, 140, 48, 29, 28, 28]
2.51[96, 338, 409, 144, 48, 26, 33, 39]
2.53[96, 338, 409, 144, 48, 26, 33, 39]
2.53[96, 338, 409, 144, 48, 26, 33, 39]
2.53[96, 338, 409, 144, 48, 26, 33, 39]
2.53[96, 338, 409, 144, 48, 26, 33, 39]
2.53[96, 338, 409, 144, 48, 26, 33, 39]
2.53[96, 338, 409, 144, 48, 26, 33, 39]
2.53[96, 338, 409, 144, 48, 26, 33, 39]
2.53[97, 330, 391, 144, 46, 25, 34, 42]
2.55[97, 330, 391, 144, 46, 25, 34, 42]
2.55[97, 330, 391, 144, 46, 25, 34, 42]
2.55[97, 330, 391, 144, 46, 25, 34, 42]
2.55[97, 330, 391, 144, 46, 25, 34, 42]
2.55[97, 330, 391, 144, 46, 25, 34, 42]
2.55[97, 330, 391, 144, 46, 25, 34, 42]
2.55[97, 330, 391, 144, 46, 25, 34, 42]
2.55[99, 379, 423, 135, 49, 26, 36, 47]
2.57[99, 379, 423, 135, 49, 26, 36, 47]
2.57[99, 379, 423, 135, 49, 26, 36, 47]
2.57[99, 379, 423, 135, 49, 26, 36, 47]
2.57[99, 379, 423, 135, 49, 26, 36, 47]
2.57[99, 379, 423, 135, 49, 26, 36, 47]
2.57[99, 379, 423, 135, 49, 26, 36, 47]
2.57[99, 379, 423, 135, 49, 26, 36, 47]
2.57[105, 378, 462, 102, 48, 26, 34, 46]
2.59[105, 378, 462, 102, 48, 26, 34, 46]
2.59[105, 378, 462, 102, 48, 26, 34, 46]
2.59[105, 378, 462, 102, 48, 26, 34, 46]
2.59[105, 378, 462, 102, 48, 26, 34, 46]
2.59[105, 378, 462, 102, 48, 26, 34, 46]
2.59[105, 378, 462, 102, 48, 26, 34, 46]
2.59[105, 378, 462, 102, 48, 26, 34, 46]
2.59[113, 410, 479, 87, 49, 32, 35, 47]
2.61[113, 410, 479, 87, 49, 32, 35, 47]
2.61[113, 410, 479, 87, 49, 32, 35, 47]
2.61[113, 410, 479, 87, 49, 32, 35, 47]
2.61[113, 410, 479, 87, 49, 32, 35, 47]
2.61[113, 410, 479, 87, 49, 32, 35, 47]
2.61[113, 410, 479, 87, 49, 32, 35, 47]
2.61[113, 410, 479, 87, 49, 32, 35, 47]
2.61[111, 401, 573, 87, 47, 32, 31, 38]
2.63[111, 401, 573, 87, 47, 32, 31, 38]
2.63[111, 401, 573, 87, 47, 32, 31, 38]
2.63[111, 401, 573, 87, 47, 32, 31, 38]
2.63[111, 401, 573, 87, 47, 32, 31, 38]
2.63[111, 401, 573, 87, 47, 32, 31, 38]
2.63[111, 401, 573, 87, 47, 32, 31, 38]
2.63[111, 401, 573, 87, 47, 32, 31, 38]
2.63[116, 416, 571, 97, 49, 35, 32, 38]
2.65[116, 416, 571, 97, 49, 35, 32, 38]
2.65[116, 416, 571, 97, 49, 35, 32, 38]
2.65[116, 416, 571, 97, 49, 35, 32, 38]
2.65[116, 416, 571, 97, 49, 35, 32, 38]
2.65[116, 416, 571, 97, 49, 35, 32, 38]
2.65[116, 416, 571, 97, 49, 35, 32, 38]
2.65[116, 416, 571, 97, 49, 35, 32, 38]
2.65[132, 428, 549, 103, 44, 33, 33, 36]
2.67[132, 428, 549, 103, 44, 33, 33, 36]
2.67[132, 428, 549, 103, 44, 33, 33, 36]
2.67[132, 428, 549, 103, 44, 33, 33, 36]
2.67[132, 428, 549, 103, 44, 33, 33, 36]
2.67[132, 428, 549, 103, 44, 33, 33, 36]
2.67[132, 428, 549, 103, 44, 33, 33, 36]
2.67[132, 428, 549, 103, 44, 33, 33, 36]
2.67[127, 495, 510, 102, 38, 34, 33, 36]
2.69[127, 495, 510, 102, 38, 34, 33, 36]
2.69[127, 495, 510, 102, 38, 34, 33, 36]
2.69[127, 495, 510, 102, 38, 34, 33, 36]
2.69[127, 495, 510, 102, 38, 34, 33, 36]
2.69[127, 495, 510, 102, 38, 34, 33, 36]
2.69[127, 495, 510, 102, 38, 34, 33, 36]
2.69[127, 495, 510, 102, 38, 34, 33, 36]
2.69[137, 552, 547, 108, 34, 32, 33, 42]
2.71[137, 552, 547, 108, 34, 32, 33, 42]
2.71[137, 552, 547, 108, 34, 32, 33, 42]
2.71[137, 552, 547, 108, 34, 32, 33, 42]
2.71[137, 552, 547, 108, 34, 32, 33, 42]
2.71[137, 552, 547, 108, 34, 32, 33, 42]
2.71[137, 552, 547, 108, 34, 32, 33, 42]
2.71[137, 552, 547, 108, 34, 32, 33, 42]
2.71[145, 592, 465, 113, 34, 34, 35, 45]
2.73[145, 592, 465, 113, 34, 34, 35, 45]
2.73[145, 592, 465, 113, 34, 34, 35, 45]
2.73[145, 592, 465, 113, 34, 34, 35, 45]
2.73[145, 592, 465, 113, 34, 34, 35, 45]
2.73[145, 592, 465, 113, 34, 34, 35, 45]
2.73[145, 592, 465, 113, 34, 34, 35, 45]
2.73[145, 592, 465, 113, 34, 34, 35, 45]
2.73[149, 642, 446, 102, 31, 35, 42, 85]
2.75[149, 642, 446, 102, 31, 35, 42, 85]
2.75[149, 642, 446, 102, 31, 35, 42, 85]
2.75[149, 642, 446, 102, 31, 35, 42, 85]
2.75[149, 642, 446, 102, 31, 35, 42, 85]
2.75[149, 642, 446, 102, 31, 35, 42, 85]
2.75[149, 642, 446, 102, 31, 35, 42, 85]
2.75[149, 642, 446, 102, 31, 35, 42, 85]
2.75[162, 694, 454, 94, 31, 35, 40, 86]
2.77[162, 694, 454, 94, 31, 35, 40, 86]
2.77[162, 694, 454, 94, 31, 35, 40, 86]
2.77[162, 694, 454, 94, 31, 35, 40, 86]
2.77[162, 694, 454, 94, 31, 35, 40, 86]
2.77[162, 694, 454, 94, 31, 35, 40, 86]
2.77[162, 694, 454, 94, 31, 35, 40, 86]
2.77[162, 694, 454, 94, 31, 35, 40, 86]
2.77[173, 705, 438, 105, 38, 38, 41, 88]
2.79[173, 705, 438, 105, 38, 38, 41, 88]
2.79[173, 705, 438, 105, 38, 38, 41, 88]
2.79[173, 705, 438, 105, 38, 38, 41, 88]
2.79[173, 705, 438, 105, 38, 38, 41, 88]
2.79[173, 705, 438, 105, 38, 38, 41, 88]
2.79[173, 705, 438, 105, 38, 38, 41, 88]
2.79[173, 705, 438, 105, 38, 38, 41, 88]
2.79[160, 653, 456, 99, 39, 36, 38, 89]
2.82[160, 653, 456, 99, 39, 36, 38, 89]
2.82[160, 653, 456, 99, 39, 36, 38, 89]
2.82[160, 653, 456, 99, 39, 36, 38, 89]
2.82[160, 653, 456, 99, 39, 36, 38, 89]
2.82[160, 653, 456, 99, 39, 36, 38, 89]
2.82[160, 653, 456, 99, 39, 36, 38, 89]
2.82[160, 653, 456, 99, 39, 36, 38, 89]
2.82[158, 624, 445, 95, 42, 36, 40, 96]
2.83[158, 624, 445, 95, 42, 36, 40, 96]
2.83[158, 624, 445, 95, 42, 36, 40, 96]
2.83[158, 624, 445, 95, 42, 36, 40, 96]
2.83[158, 624, 445, 95, 42, 36, 40, 96]
2.83[158, 624, 445, 95, 42, 36, 40, 96]
2.83[158, 624, 445, 95, 42, 36, 40, 96]
2.83[158, 624, 445, 95, 42, 36, 40, 96]
2.83[165, 633, 534, 102, 45, 37, 34, 66]
2.85[165, 633, 534, 102, 45, 37, 34, 66]
2.85[165, 633, 534, 102, 45, 37, 34, 66]
2.85[165, 633, 534, 102, 45, 37, 34, 66]
2.85[165, 633, 534, 102, 45, 37, 34, 66]
2.85[165, 633, 534, 102, 45, 37, 34, 66]
2.85[165, 633, 534, 102, 45, 37, 34, 66]
2.85[165, 633, 534, 102, 45, 37, 34, 66]
2.85[137, 583, 586, 140, 52, 39, 37, 64]
2.88[137, 583, 586, 140, 52, 39, 37, 64]
2.88[137, 583, 586, 140, 52, 39, 37, 64]
2.88[137, 583, 586, 140, 52, 39, 37, 64]
2.88[137, 583, 586, 140, 52, 39, 37, 64]
2.88[137, 583, 586, 140, 52, 39, 37, 64]
2.88[137, 583, 586, 140, 52, 39, 37, 64]
2.88[137, 583, 586, 140, 52, 39, 37, 64]
2.88[120, 576, 607, 142, 52, 38, 37, 75]
2.89[120, 576, 607, 142, 52, 38, 37, 75]
2.89[120, 576, 607, 142, 52, 38, 37, 75]
2.89[120, 576, 607, 142, 52, 38, 37, 75]
2.89[120, 576, 607, 142, 52, 38, 37, 75]
2.89[120, 576, 607, 142, 52, 38, 37, 75]
2.89[120, 576, 607, 142, 52, 38, 37, 75]
2.89[120, 576, 607, 142, 52, 38, 37, 75]
2.89[137, 615, 665, 171, 58, 40, 42, 107]
2.91[137, 615, 665, 171, 58, 40, 42, 107]
2.91[137, 615, 665, 171, 58, 40, 42, 107]
2.91[137, 615, 665, 171, 58, 40, 42, 107]
2.91[137, 615, 665, 171, 58, 40, 42, 107]
2.91[137, 615, 665, 171, 58, 40, 42, 107]
2.91[137, 615, 665, 171, 58, 40, 42, 107]
2.91[137, 615, 665, 171, 58, 40, 42, 107]
2.91[132, 624, 676, 182, 57, 40, 40, 103]
2.93[132, 624, 676, 182, 57, 40, 40, 103]
2.93[132, 624, 676, 182, 57, 40, 40, 103]
2.93[132, 624, 676, 182, 57, 40, 40, 103]
2.93[132, 624, 676, 182, 57, 40, 40, 103]
2.93[132, 624, 676, 182, 57, 40, 40, 103]
2.93[132, 624, 676, 182, 57, 40, 40, 103]
2.93[132, 624, 676, 182, 57, 40, 40, 103]
2.93[148, 694, 643, 203, 61, 42, 44, 107]
2.95[148, 694, 643, 203, 61, 42, 44, 107]
2.95[148, 694, 643, 203, 61, 42, 44, 107]
2.95[148, 694, 643, 203, 61, 42, 44, 107]
2.95[148, 694, 643, 203, 61, 42, 44, 107]
2.95[148, 694, 643, 203, 61, 42, 44, 107]
2.95[148, 694, 643, 203, 61, 42, 44, 107]
2.95[148, 694, 643, 203, 61, 42, 44, 107]
2.95[166, 688, 675, 191, 60, 40, 47, 111]
2.97[166, 688, 675, 191, 60, 40, 47, 111]
2.97[166, 688, 675, 191, 60, 40, 47, 111]
2.97[166, 688, 675, 191, 60, 40, 47, 111]
2.97[166, 688, 675, 191, 60, 40, 47, 111]
2.97[166, 688, 675, 191, 60, 40, 47, 111]
2.97[166, 688, 675, 191, 60, 40, 47, 111]
2.97[166, 688, 675, 191, 60, 40, 47, 111]
2.97[181, 720, 745, 202, 65, 48, 47, 138]
2.99[181, 720, 745, 202, 65, 48, 47, 138]
2.99[181, 720, 745, 202, 65, 48, 47, 138]
2.99[181, 720, 745, 202, 65, 48, 47, 138]
2.99[181, 720, 745, 202, 65, 48, 47, 138]
2.99[181, 720, 745, 202, 65, 48, 47, 138]
2.99[181, 720, 745, 202, 65, 48, 47, 138]
2.99[181, 720, 745, 202, 65, 48, 47, 138]
2.99[223, 778, 716, 182, 65, 50, 48, 117]
3.01[223, 778, 716, 182, 65, 50, 48, 117]
3.01[223, 778, 716, 182, 65, 50, 48, 117]
3.01[223, 778, 716, 182, 65, 50, 48, 117]
3.01[223, 778, 716, 182, 65, 50, 48, 117]
3.01[223, 778, 716, 182, 65, 50, 48, 117]
3.01[223, 778, 716, 182, 65, 50, 48, 117]
3.01[223, 778, 716, 182, 65, 50, 48, 117]
3.01[232, 836, 730, 170, 68, 55, 51, 120]
3.03[232, 836, 730, 170, 68, 55, 51, 120]
3.03[232, 836, 730, 170, 68, 55, 51, 120]
3.03[232, 836, 730, 170, 68, 55, 51, 120]
3.03[232, 836, 730, 170, 68, 55, 51, 120]
3.03[232, 836, 730, 170, 68, 55, 51, 120]
3.03[232, 836, 730, 170, 68, 55, 51, 120]
3.03[232, 836, 730, 170, 68, 55, 51, 120]
3.03[232, 796, 748, 165, 70, 54, 57, 146]
3.05[232, 796, 748, 165, 70, 54, 57, 146]
3.05[232, 796, 748, 165, 70, 54, 57, 146]
3.05[232, 796, 748, 165, 70, 54, 57, 146]
3.05[232, 796, 748, 165, 70, 54, 57, 146]
3.05[232, 796, 748, 165, 70, 54, 57, 146]
3.05[232, 796, 748, 165, 70, 54, 57, 146]
3.05[232, 796, 748, 165, 70, 54, 57, 146]
3.05[235, 885, 754, 171, 72, 56, 54, 148]
3.07[235, 885, 754, 171, 72, 56, 54, 148]
3.07[235, 885, 754, 171, 72, 56, 54, 148]
3.07[235, 885, 754, 171, 72, 56, 54, 148]
3.07[235, 885, 754, 171, 72, 56, 54, 148]
3.07[235, 885, 754, 171, 72, 56, 54, 148]
3.07[235, 885, 754, 171, 72, 56, 54, 148]
3.07[235, 885, 754, 171, 72, 56, 54, 148]
3.07[238, 882, 701, 158, 66, 51, 55, 121]
3.09[238, 882, 701, 158, 66, 51, 55, 121]
3.09[238, 882, 701, 158, 66, 51, 55, 121]
3.09[238, 882, 701, 158, 66, 51, 55, 121]
3.09[238, 882, 701, 158, 66, 51, 55, 121]
3.09[238, 882, 701, 158, 66, 51, 55, 121]
3.09[238, 882, 701, 158, 66, 51, 55, 121]
3.09[238, 882, 701, 158, 66, 51, 55, 121]
3.09[199, 874, 841, 175, 64, 47, 53, 127]
3.11[199, 874, 841, 175, 64, 47, 53, 127]
3.11[199, 874, 841, 175, 64, 47, 53, 127]
3.11[199, 874, 841, 175, 64, 47, 53, 127]
3.11[199, 874, 841, 175, 64, 47, 53, 127]
3.11[199, 874, 841, 175, 64, 47, 53, 127]
3.11[199, 874, 841, 175, 64, 47, 53, 127]
3.11[199, 874, 841, 175, 64, 47, 53, 127]
3.11[237, 900, 884, 199, 74, 47, 58, 131]
3.13[237, 900, 884, 199, 74, 47, 58, 131]
3.13[237, 900, 884, 199, 74, 47, 58, 131]
3.13[237, 900, 884, 199, 74, 47, 58, 131]
3.13[237, 900, 884, 199, 74, 47, 58, 131]
3.13[237, 900, 884, 199, 74, 47, 58, 131]
3.13[237, 900, 884, 199, 74, 47, 58, 131]
3.13[237, 900, 884, 199, 74, 47, 58, 131]
3.13[232, 927, 878, 195, 80, 47, 50, 112]
3.15[232, 927, 878, 195, 80, 47, 50, 112]
3.15[232, 927, 878, 195, 80, 47, 50, 112]
3.15[232, 927, 878, 195, 80, 47, 50, 112]
3.15[232, 927, 878, 195, 80, 47, 50, 112]
3.15[232, 927, 878, 195, 80, 47, 50, 112]
3.15[232, 927, 878, 195, 80, 47, 50, 112]
3.15[232, 927, 878, 195, 80, 47, 50, 112]
3.15[258, 883, 820, 185, 81, 50, 53, 109]
3.17[258, 883, 820, 185, 81, 50, 53, 109]
3.17[258, 883, 820, 185, 81, 50, 53, 109]
3.17[258, 883, 820, 185, 81, 50, 53, 109]
3.17[258, 883, 820, 185, 81, 50, 53, 109]
3.17[258, 883, 820, 185, 81, 50, 53, 109]
3.17[258, 883, 820, 185, 81, 50, 53, 109]
3.17[258, 883, 820, 185, 81, 50, 53, 109]
3.17[258, 849, 813, 184, 81, 48, 51, 104]
3.19[258, 849, 813, 184, 81, 48, 51, 104]
3.19[258, 849, 813, 184, 81, 48, 51, 104]
3.19[258, 849, 813, 184, 81, 48, 51, 104]
3.19[258, 849, 813, 184, 81, 48, 51, 104]
3.19[258, 849, 813, 184, 81, 48, 51, 104]
3.19[258, 849, 813, 184, 81, 48, 51, 104]
3.19[258, 849, 813, 184, 81, 48, 51, 104]
3.19[260, 894, 628, 169, 87, 56, 54, 93]
3.21[260, 894, 628, 169, 87, 56, 54, 93]
3.21[260, 894, 628, 169, 87, 56, 54, 93]
3.21[260, 894, 628, 169, 87, 56, 54, 93]
3.21[260, 894, 628, 169, 87, 56, 54, 93]
3.21[260, 894, 628, 169, 87, 56, 54, 93]
3.21[260, 894, 628, 169, 87, 56, 54, 93]
3.21[260, 894, 628, 169, 87, 56, 54, 93]
3.21[238, 927, 612, 160, 81, 57, 50, 84]
3.23[238, 927, 612, 160, 81, 57, 50, 84]
3.23[238, 927, 612, 160, 81, 57, 50, 84]
3.23[238, 927, 612, 160, 81, 57, 50, 84]
3.23[238, 927, 612, 160, 81, 57, 50, 84]
3.23[238, 927, 612, 160, 81, 57, 50, 84]
3.23[238, 927, 612, 160, 81, 57, 50, 84]
3.23[238, 927, 612, 160, 81, 57, 50, 84]
3.23[233, 864, 701, 163, 70, 54, 47, 70]
3.25[233, 864, 701, 163, 70, 54, 47, 70]
3.25[233, 864, 701, 163, 70, 54, 47, 70]
3.25[233, 864, 701, 163, 70, 54, 47, 70]
3.25[233, 864, 701, 163, 70, 54, 47, 70]
3.25[233, 864, 701, 163, 70, 54, 47, 70]
3.25[233, 864, 701, 163, 70, 54, 47, 70]
3.25[233, 864, 701, 163, 70, 54, 47, 70]
3.25[200, 884, 744, 177, 65, 51, 50, 88]
3.27[200, 884, 744, 177, 65, 51, 50, 88]
3.27[200, 884, 744, 177, 65, 51, 50, 88]
3.27[200, 884, 744, 177, 65, 51, 50, 88]
3.27[200, 884, 744, 177, 65, 51, 50, 88]
3.27[200, 884, 744, 177, 65, 51, 50, 88]
3.27[200, 884, 744, 177, 65, 51, 50, 88]
3.27[200, 884, 744, 177, 65, 51, 50, 88]
3.27[204, 924, 754, 183, 71, 56, 57, 94]
3.29[204, 924, 754, 183, 71, 56, 57, 94]
3.29[204, 924, 754, 183, 71, 56, 57, 94]
3.29[204, 924, 754, 183, 71, 56, 57, 94]
3.29[204, 924, 754, 183, 71, 56, 57, 94]
3.29[204, 924, 754, 183, 71, 56, 57, 94]
3.29[204, 924, 754, 183, 71, 56, 57, 94]
3.29[204, 924, 754, 183, 71, 56, 57, 94]
3.29[228, 881, 768, 188, 63, 49, 53, 95]
3.31[228, 881, 768, 188, 63, 49, 53, 95]
3.31[228, 881, 768, 188, 63, 49, 53, 95]
3.31[228, 881, 768, 188, 63, 49, 53, 95]
3.31[228, 881, 768, 188, 63, 49, 53, 95]
3.31[228, 881, 768, 188, 63, 49, 53, 95]
3.31[228, 881, 768, 188, 63, 49, 53, 95]
3.31[228, 881, 768, 188, 63, 49, 53, 95]
3.31[219, 807, 806, 186, 65, 48, 54, 97]
3.33[219, 807, 806, 186, 65, 48, 54, 97]
3.33[219, 807, 806, 186, 65, 48, 54, 97]
3.33[219, 807, 806, 186, 65, 48, 54, 97]
3.33[219, 807, 806, 186, 65, 48, 54, 97]
3.33[219, 807, 806, 186, 65, 48, 54, 97]
3.33[219, 807, 806, 186, 65, 48, 54, 97]
3.33[219, 807, 806, 186, 65, 48, 54, 97]
3.33[267, 932, 785, 174, 70, 52, 59, 97]
3.35[267, 932, 785, 174, 70, 52, 59, 97]
3.35[267, 932, 785, 174, 70, 52, 59, 97]
3.35[267, 932, 785, 174, 70, 52, 59, 97]
3.35[267, 932, 785, 174, 70, 52, 59, 97]
3.35[267, 932, 785, 174, 70, 52, 59, 97]
3.35[267, 932, 785, 174, 70, 52, 59, 97]
3.35[267, 932, 785, 174, 70, 52, 59, 97]
3.35[260, 858, 793, 166, 70, 55, 55, 81]
3.37[260, 858, 793, 166, 70, 55, 55, 81]
3.37[260, 858, 793, 166, 70, 55, 55, 81]
3.37[260, 858, 793, 166, 70, 55, 55, 81]
3.37[260, 858, 793, 166, 70, 55, 55, 81]
3.37[260, 858, 793, 166, 70, 55, 55, 81]
3.37[260, 858, 793, 166, 70, 55, 55, 81]
3.37[260, 858, 793, 166, 70, 55, 55, 81]
3.37[266, 812, 779, 160, 72, 52, 54, 75]
3.39[266, 812, 779, 160, 72, 52, 54, 75]
3.39[266, 812, 779, 160, 72, 52, 54, 75]
3.39[266, 812, 779, 160, 72, 52, 54, 75]
3.39[266, 812, 779, 160, 72, 52, 54, 75]
3.39[266, 812, 779, 160, 72, 52, 54, 75]
3.39[266, 812, 779, 160, 72, 52, 54, 75]
3.39[266, 812, 779, 160, 72, 52, 54, 75]
3.39[256, 821, 817, 152, 71, 52, 56, 76]
3.41[256, 821, 817, 152, 71, 52, 56, 76]
3.41[256, 821, 817, 152, 71, 52, 56, 76]
3.41[256, 821, 817, 152, 71, 52, 56, 76]
3.41[256, 821, 817, 152, 71, 52, 56, 76]
3.41[256, 821, 817, 152, 71, 52, 56, 76]
3.41[256, 821, 817, 152, 71, 52, 56, 76]
3.41[256, 821, 817, 152, 71, 52, 56, 76]
3.41[256, 771, 786, 154, 67, 48, 53, 72]
3.43[256, 771, 786, 154, 67, 48, 53, 72]
3.43[256, 771, 786, 154, 67, 48, 53, 72]
3.43[256, 771, 786, 154, 67, 48, 53, 72]
3.43[256, 771, 786, 154, 67, 48, 53, 72]
3.43[256, 771, 786, 154, 67, 48, 53, 72]
3.43[256, 771, 786, 154, 67, 48, 53, 72]
3.43[256, 771, 786, 154, 67, 48, 53, 72]
3.43[204, 701, 726, 169, 63, 46, 47, 67]
3.45[204, 701, 726, 169, 63, 46, 47, 67]
3.45[204, 701, 726, 169, 63, 46, 47, 67]
3.45[204, 701, 726, 169, 63, 46, 47, 67]
3.45[204, 701, 726, 169, 63, 46, 47, 67]
3.45[204, 701, 726, 169, 63, 46, 47, 67]
3.45[204, 701, 726, 169, 63, 46, 47, 67]
3.45[204, 701, 726, 169, 63, 46, 47, 67]
3.45[215, 765, 704, 174, 68, 43, 48, 63]
3.47[215, 765, 704, 174, 68, 43, 48, 63]
3.47[215, 765, 704, 174, 68, 43, 48, 63]
3.47[215, 765, 704, 174, 68, 43, 48, 63]
3.47[215, 765, 704, 174, 68, 43, 48, 63]
3.47[215, 765, 704, 174, 68, 43, 48, 63]
3.47[215, 765, 704, 174, 68, 43, 48, 63]
3.47[215, 765, 704, 174, 68, 43, 48, 63]
3.47[198, 806, 718, 175, 66, 42, 41, 65]
3.49[198, 806, 718, 175, 66, 42, 41, 65]
3.49[198, 806, 718, 175, 66, 42, 41, 65]
3.49[198, 806, 718, 175, 66, 42, 41, 65]
3.49[198, 806, 718, 175, 66, 42, 41, 65]
3.49[198, 806, 718, 175, 66, 42, 41, 65]
3.49[198, 806, 718, 175, 66, 42, 41, 65]
3.49[198, 806, 718, 175, 66, 42, 41, 65]
3.49[194, 778, 665, 182, 77, 48, 49, 70]
3.51[194, 778, 665, 182, 77, 48, 49, 70]
3.51[194, 778, 665, 182, 77, 48, 49, 70]
3.51[194, 778, 665, 182, 77, 48, 49, 70]
3.51[194, 778, 665, 182, 77, 48, 49, 70]
3.51[194, 778, 665, 182, 77, 48, 49, 70]
3.51[194, 778, 665, 182, 77, 48, 49, 70]
3.51[194, 778, 665, 182, 77, 48, 49, 70]
3.51[210, 830, 697, 188, 78, 49, 51, 74]
3.53[210, 830, 697, 188, 78, 49, 51, 74]
3.53[210, 830, 697, 188, 78, 49, 51, 74]
3.53[210, 830, 697, 188, 78, 49, 51, 74]
3.53[210, 830, 697, 188, 78, 49, 51, 74]
3.53[210, 830, 697, 188, 78, 49, 51, 74]
3.53[210, 830, 697, 188, 78, 49, 51, 74]
3.53[210, 830, 697, 188, 78, 49, 51, 74]
3.53[220, 748, 685, 173, 80, 52, 57, 91]
3.55[220, 748, 685, 173, 80, 52, 57, 91]
3.55[220, 748, 685, 173, 80, 52, 57, 91]
3.55[220, 748, 685, 173, 80, 52, 57, 91]
3.55[220, 748, 685, 173, 80, 52, 57, 91]
3.55[220, 748, 685, 173, 80, 52, 57, 91]
3.55[220, 748, 685, 173, 80, 52, 57, 91]
3.55[220, 748, 685, 173, 80, 52, 57, 91]
3.55[220, 831, 697, 172, 78, 51, 54, 91]
3.57[220, 831, 697, 172, 78, 51, 54, 91]
3.57[220, 831, 697, 172, 78, 51, 54, 91]
3.57[220, 831, 697, 172, 78, 51, 54, 91]
3.57[220, 831, 697, 172, 78, 51, 54, 91]
3.57[220, 831, 697, 172, 78, 51, 54, 91]
3.57[220, 831, 697, 172, 78, 51, 54, 91]
3.57[220, 831, 697, 172, 78, 51, 54, 91]
3.57[225, 785, 685, 177, 75, 51, 55, 94]
3.59[225, 785, 685, 177, 75, 51, 55, 94]
3.59[225, 785, 685, 177, 75, 51, 55, 94]
3.59[225, 785, 685, 177, 75, 51, 55, 94]
3.59[225, 785, 685, 177, 75, 51, 55, 94]
3.59[225, 785, 685, 177, 75, 51, 55, 94]
3.59[225, 785, 685, 177, 75, 51, 55, 94]
3.59[225, 785, 685, 177, 75, 51, 55, 94]
3.59[240, 798, 688, 178, 73, 51, 54, 97]
3.61[240, 798, 688, 178, 73, 51, 54, 97]
3.61[240, 798, 688, 178, 73, 51, 54, 97]
3.61[240, 798, 688, 178, 73, 51, 54, 97]
3.61[240, 798, 688, 178, 73, 51, 54, 97]
3.61[240, 798, 688, 178, 73, 51, 54, 97]
3.61[240, 798, 688, 178, 73, 51, 54, 97]
3.61[240, 798, 688, 178, 73, 51, 54, 97]
3.61[227, 758, 632, 182, 73, 49, 56, 103]
3.63[227, 758, 632, 182, 73, 49, 56, 103]
3.63[227, 758, 632, 182, 73, 49, 56, 103]
3.63[227, 758, 632, 182, 73, 49, 56, 103]
3.63[227, 758, 632, 182, 73, 49, 56, 103]
3.63[227, 758, 632, 182, 73, 49, 56, 103]
3.63[227, 758, 632, 182, 73, 49, 56, 103]
3.63[227, 758, 632, 182, 73, 49, 56, 103]
3.63[239, 792, 674, 197, 71, 47, 62, 134]
3.65[239, 792, 674, 197, 71, 47, 62, 134]
3.65[239, 792, 674, 197, 71, 47, 62, 134]
3.65[239, 792, 674, 197, 71, 47, 62, 134]
3.65[239, 792, 674, 197, 71, 47, 62, 134]
3.65[239, 792, 674, 197, 71, 47, 62, 134]
3.65[239, 792, 674, 197, 71, 47, 62, 134]
3.65[239, 792, 674, 197, 71, 47, 62, 134]
3.65[250, 733, 657, 190, 74, 52, 63, 153]
3.67[250, 733, 657, 190, 74, 52, 63, 153]
3.67[250, 733, 657, 190, 74, 52, 63, 153]
3.67[250, 733, 657, 190, 74, 52, 63, 153]
3.67[250, 733, 657, 190, 74, 52, 63, 153]
3.67[250, 733, 657, 190, 74, 52, 63, 153]
3.67[250, 733, 657, 190, 74, 52, 63, 153]
3.67[250, 733, 657, 190, 74, 52, 63, 153]
3.67[282, 774, 660, 228, 96, 61, 72, 156]
3.69[282, 774, 660, 228, 96, 61, 72, 156]
3.69[282, 774, 660, 228, 96, 61, 72, 156]
3.69[282, 774, 660, 228, 96, 61, 72, 156]
3.69[282, 774, 660, 228, 96, 61, 72, 156]
3.69[282, 774, 660, 228, 96, 61, 72, 156]
3.69[282, 774, 660, 228, 96, 61, 72, 156]
3.69[282, 774, 660, 228, 96, 61, 72, 156]
3.69[263, 725, 689, 241, 98, 64, 71, 153]
3.71[263, 725, 689, 241, 98, 64, 71, 153]
3.71[263, 725, 689, 241, 98, 64, 71, 153]
3.71[263, 725, 689, 241, 98, 64, 71, 153]
3.71[263, 725, 689, 241, 98, 64, 71, 153]
3.71[263, 725, 689, 241, 98, 64, 71, 153]
3.71[263, 725, 689, 241, 98, 64, 71, 153]
3.71[263, 725, 689, 241, 98, 64, 71, 153]
3.71[276, 772, 679, 231, 96, 63, 69, 152]
3.73[276, 772, 679, 231, 96, 63, 69, 152]
3.73[276, 772, 679, 231, 96, 63, 69, 152]
3.73[276, 772, 679, 231, 96, 63, 69, 152]
3.73[276, 772, 679, 231, 96, 63, 69, 152]
3.73[276, 772, 679, 231, 96, 63, 69, 152]
3.73[276, 772, 679, 231, 96, 63, 69, 152]
3.73[276, 772, 679, 231, 96, 63, 69, 152]
3.73[265, 795, 652, 219, 96, 63, 62, 127]
3.75[265, 795, 652, 219, 96, 63, 62, 127]
3.75[265, 795, 652, 219, 96, 63, 62, 127]
3.75[265, 795, 652, 219, 96, 63, 62, 127]
3.75[265, 795, 652, 219, 96, 63, 62, 127]
3.75[265, 795, 652, 219, 96, 63, 62, 127]
3.75[265, 795, 652, 219, 96, 63, 62, 127]
3.75[265, 795, 652, 219, 96, 63, 62, 127]
3.75[273, 777, 632, 233, 98, 64, 68, 107]
3.77[273, 777, 632, 233, 98, 64, 68, 107]
3.77[273, 777, 632, 233, 98, 64, 68, 107]
3.77[273, 777, 632, 233, 98, 64, 68, 107]
3.77[273, 777, 632, 233, 98, 64, 68, 107]
3.77[273, 777, 632, 233, 98, 64, 68, 107]
3.77[273, 777, 632, 233, 98, 64, 68, 107]
3.77[273, 777, 632, 233, 98, 64, 68, 107]
3.77[257, 789, 672, 255, 92, 60, 65, 109]
3.79[257, 789, 672, 255, 92, 60, 65, 109]
3.79[257, 789, 672, 255, 92, 60, 65, 109]
3.79[257, 789, 672, 255, 92, 60, 65, 109]
3.79[257, 789, 672, 255, 92, 60, 65, 109]
3.79[257, 789, 672, 255, 92, 60, 65, 109]
3.79[257, 789, 672, 255, 92, 60, 65, 109]
3.79[257, 789, 672, 255, 92, 60, 65, 109]
3.79[254, 793, 624, 241, 83, 52, 60, 107]
3.81[254, 793, 624, 241, 83, 52, 60, 107]
3.81[254, 793, 624, 241, 83, 52, 60, 107]
3.81[254, 793, 624, 241, 83, 52, 60, 107]
3.81[254, 793, 624, 241, 83, 52, 60, 107]
3.81[254, 793, 624, 241, 83, 52, 60, 107]
3.81[254, 793, 624, 241, 83, 52, 60, 107]
3.81[254, 793, 624, 241, 83, 52, 60, 107]
3.81[245, 795, 648, 242, 83, 53, 59, 99]
3.83[245, 795, 648, 242, 83, 53, 59, 99]
3.83[245, 795, 648, 242, 83, 53, 59, 99]
3.83[245, 795, 648, 242, 83, 53, 59, 99]
3.83[245, 795, 648, 242, 83, 53, 59, 99]
3.83[245, 795, 648, 242, 83, 53, 59, 99]
3.83[245, 795, 648, 242, 83, 53, 59, 99]
3.83[245, 795, 648, 242, 83, 53, 59, 99]
3.83[245, 815, 720, 251, 84, 52, 59, 85]
3.85[245, 815, 720, 251, 84, 52, 59, 85]
3.85[245, 815, 720, 251, 84, 52, 59, 85]
3.85[245, 815, 720, 251, 84, 52, 59, 85]
3.85[245, 815, 720, 251, 84, 52, 59, 85]
3.85[245, 815, 720, 251, 84, 52, 59, 85]
3.85[245, 815, 720, 251, 84, 52, 59, 85]
3.85[245, 815, 720, 251, 84, 52, 59, 85]
3.85[212, 789, 726, 236, 76, 46, 52, 88]
3.87[212, 789, 726, 236, 76, 46, 52, 88]
3.87[212, 789, 726, 236, 76, 46, 52, 88]
3.87[212, 789, 726, 236, 76, 46, 52, 88]
3.87[212, 789, 726, 236, 76, 46, 52, 88]
3.87[212, 789, 726, 236, 76, 46, 52, 88]
3.87[212, 789, 726, 236, 76, 46, 52, 88]
3.87[212, 789, 726, 236, 76, 46, 52, 88]
3.87[183, 775, 654, 172, 60, 38, 40, 75]
3.89[183, 775, 654, 172, 60, 38, 40, 75]
3.89[183, 775, 654, 172, 60, 38, 40, 75]
3.89[183, 775, 654, 172, 60, 38, 40, 75]
3.89[183, 775, 654, 172, 60, 38, 40, 75]
3.89[183, 775, 654, 172, 60, 38, 40, 75]
3.89[183, 775, 654, 172, 60, 38, 40, 75]
3.89[183, 775, 654, 172, 60, 38, 40, 75]
3.89[185, 780, 736, 181, 63, 40, 40, 74]
3.91[185, 780, 736, 181, 63, 40, 40, 74]
3.91[185, 780, 736, 181, 63, 40, 40, 74]
3.91[185, 780, 736, 181, 63, 40, 40, 74]
3.91[185, 780, 736, 181, 63, 40, 40, 74]
3.91[185, 780, 736, 181, 63, 40, 40, 74]
3.91[185, 780, 736, 181, 63, 40, 40, 74]
3.91[185, 780, 736, 181, 63, 40, 40, 74]
3.91[177, 759, 809, 181, 63, 40, 42, 74]
3.93[177, 759, 809, 181, 63, 40, 42, 74]
3.93[177, 759, 809, 181, 63, 40, 42, 74]
3.93[177, 759, 809, 181, 63, 40, 42, 74]
3.93[177, 759, 809, 181, 63, 40, 42, 74]
3.93[177, 759, 809, 181, 63, 40, 42, 74]
3.93[177, 759, 809, 181, 63, 40, 42, 74]
3.93[177, 759, 809, 181, 63, 40, 42, 74]
3.93[170, 766, 879, 189, 59, 39, 39, 69]
3.95[170, 766, 879, 189, 59, 39, 39, 69]
3.95[170, 766, 879, 189, 59, 39, 39, 69]
3.95[170, 766, 879, 189, 59, 39, 39, 69]
3.95[170, 766, 879, 189, 59, 39, 39, 69]
3.95[170, 766, 879, 189, 59, 39, 39, 69]
3.95[170, 766, 879, 189, 59, 39, 39, 69]
3.95[170, 766, 879, 189, 59, 39, 39, 69]
3.95[188, 769, 875, 196, 71, 42, 42, 77]
3.97[188, 769, 875, 196, 71, 42, 42, 77]
3.97[188, 769, 875, 196, 71, 42, 42, 77]
3.97[188, 769, 875, 196, 71, 42, 42, 77]
3.97[188, 769, 875, 196, 71, 42, 42, 77]
3.97[188, 769, 875, 196, 71, 42, 42, 77]
3.97[188, 769, 875, 196, 71, 42, 42, 77]
3.97[188, 769, 875, 196, 71, 42, 42, 77]
3.97[188, 766, 884, 194, 66, 38, 41, 76]
3.99[188, 766, 884, 194, 66, 38, 41, 76]
3.99[188, 766, 884, 194, 66, 38, 41, 76]
3.99[188, 766, 884, 194, 66, 38, 41, 76]
3.99[188, 766, 884, 194, 66, 38, 41, 76]
3.99[188, 766, 884, 194, 66, 38, 41, 76]
3.99[188, 766, 884, 194, 66, 38, 41, 76]
3.99[188, 766, 884, 194, 66, 38, 41, 76]
3.99[182, 789, 823, 173, 65, 39, 43, 77]
4.01[182, 789, 823, 173, 65, 39, 43, 77]
4.01[182, 789, 823, 173, 65, 39, 43, 77]
4.01[182, 789, 823, 173, 65, 39, 43, 77]
4.01[182, 789, 823, 173, 65, 39, 43, 77]
4.01[182, 789, 823, 173, 65, 39, 43, 77]
4.01[182, 789, 823, 173, 65, 39, 43, 77]
4.01[182, 789, 823, 173, 65, 39, 43, 77]
4.01[183, 784, 743, 165, 65, 40, 45, 79]
4.03[183, 784, 743, 165, 65, 40, 45, 79]
4.03[183, 784, 743, 165, 65, 40, 45, 79]
4.03[183, 784, 743, 165, 65, 40, 45, 79]
4.03[183, 784, 743, 165, 65, 40, 45, 79]
4.03[183, 784, 743, 165, 65, 40, 45, 79]
4.03[183, 784, 743, 165, 65, 40, 45, 79]
4.03[183, 784, 743, 165, 65, 40, 45, 79]
4.03[180, 734, 618, 180, 68, 41, 45, 80]
4.05[180, 734, 618, 180, 68, 41, 45, 80]
4.05[180, 734, 618, 180, 68, 41, 45, 80]
4.05[180, 734, 618, 180, 68, 41, 45, 80]
4.05[180, 734, 618, 180, 68, 41, 45, 80]
4.05[180, 734, 618, 180, 68, 41, 45, 80]
4.05[180, 734, 618, 180, 68, 41, 45, 80]
4.05[180, 734, 618, 180, 68, 41, 45, 80]
4.05[175, 757, 644, 172, 60, 42, 41, 63]
4.07[175, 757, 644, 172, 60, 42, 41, 63]
4.07[175, 757, 644, 172, 60, 42, 41, 63]
4.07[175, 757, 644, 172, 60, 42, 41, 63]
4.07[175, 757, 644, 172, 60, 42, 41, 63]
4.07[175, 757, 644, 172, 60, 42, 41, 63]
4.07[175, 757, 644, 172, 60, 42, 41, 63]
4.07[175, 757, 644, 172, 60, 42, 41, 63]
4.07[182, 793, 671, 179, 61, 44, 46, 69]
4.09[182, 793, 671, 179, 61, 44, 46, 69]
4.09[182, 793, 671, 179, 61, 44, 46, 69]
4.09[182, 793, 671, 179, 61, 44, 46, 69]
4.09[182, 793, 671, 179, 61, 44, 46, 69]
4.09[182, 793, 671, 179, 61, 44, 46, 69]
4.09[182, 793, 671, 179, 61, 44, 46, 69]
4.09[182, 793, 671, 179, 61, 44, 46, 69]
4.09[180, 830, 686, 194, 60, 41, 44, 63]
4.11[180, 830, 686, 194, 60, 41, 44, 63]
4.11[180, 830, 686, 194, 60, 41, 44, 63]
4.11[180, 830, 686, 194, 60, 41, 44, 63]
4.11[180, 830, 686, 194, 60, 41, 44, 63]
4.11[180, 830, 686, 194, 60, 41, 44, 63]
4.11[180, 830, 686, 194, 60, 41, 44, 63]
4.11[180, 830, 686, 194, 60, 41, 44, 63]
4.11[180, 929, 687, 199, 66, 45, 43, 62]
4.13[180, 929, 687, 199, 66, 45, 43, 62]
4.13[180, 929, 687, 199, 66, 45, 43, 62]
4.13[180, 929, 687, 199, 66, 45, 43, 62]
4.13[180, 929, 687, 199, 66, 45, 43, 62]
4.13[180, 929, 687, 199, 66, 45, 43, 62]
4.13[180, 929, 687, 199, 66, 45, 43, 62]
4.13[180, 929, 687, 199, 66, 45, 43, 62]
4.13[179, 926, 635, 202, 70, 47, 46, 65]
4.15[179, 926, 635, 202, 70, 47, 46, 65]
4.15[179, 926, 635, 202, 70, 47, 46, 65]
4.15[179, 926, 635, 202, 70, 47, 46, 65]
4.15[179, 926, 635, 202, 70, 47, 46, 65]
4.15[179, 926, 635, 202, 70, 47, 46, 65]
4.15[179, 926, 635, 202, 70, 47, 46, 65]
4.15[179, 926, 635, 202, 70, 47, 46, 65]
4.15[186, 933, 705, 202, 67, 46, 45, 64]
4.17[186, 933, 705, 202, 67, 46, 45, 64]
4.17[186, 933, 705, 202, 67, 46, 45, 64]
4.17[186, 933, 705, 202, 67, 46, 45, 64]
4.17[186, 933, 705, 202, 67, 46, 45, 64]
4.17[186, 933, 705, 202, 67, 46, 45, 64]
4.17[186, 933, 705, 202, 67, 46, 45, 64]
4.17[186, 933, 705, 202, 67, 46, 45, 64]
4.17[181, 908, 672, 192, 70, 51, 47, 68]
4.19[181, 908, 672, 192, 70, 51, 47, 68]
4.19[181, 908, 672, 192, 70, 51, 47, 68]
4.19[181, 908, 672, 192, 70, 51, 47, 68]
4.19[181, 908, 672, 192, 70, 51, 47, 68]
4.19[181, 908, 672, 192, 70, 51, 47, 68]
4.19[181, 908, 672, 192, 70, 51, 47, 68]
4.19[181, 908, 672, 192, 70, 51, 47, 68]
4.19[193, 914, 644, 185, 73, 54, 51, 75]
4.21[193, 914, 644, 185, 73, 54, 51, 75]
4.21[193, 914, 644, 185, 73, 54, 51, 75]
4.21[193, 914, 644, 185, 73, 54, 51, 75]
4.21[193, 914, 644, 185, 73, 54, 51, 75]
4.21[193, 914, 644, 185, 73, 54, 51, 75]
4.21[193, 914, 644, 185, 73, 54, 51, 75]
4.21[193, 914, 644, 185, 73, 54, 51, 75]
4.21[192, 868, 678, 191, 69, 51, 47, 73]
4.23[192, 868, 678, 191, 69, 51, 47, 73]
4.23[192, 868, 678, 191, 69, 51, 47, 73]
4.23[192, 868, 678, 191, 69, 51, 47, 73]
4.23[192, 868, 678, 191, 69, 51, 47, 73]
4.23[192, 868, 678, 191, 69, 51, 47, 73]
4.23[192, 868, 678, 191, 69, 51, 47, 73]
4.23[192, 868, 678, 191, 69, 51, 47, 73]
4.23[196, 871, 672, 161, 62, 49, 46, 71]
4.25[196, 871, 672, 161, 62, 49, 46, 71]
4.25[196, 871, 672, 161, 62, 49, 46, 71]
4.25[196, 871, 672, 161, 62, 49, 46, 71]
4.25[196, 871, 672, 161, 62, 49, 46, 71]
4.25[196, 871, 672, 161, 62, 49, 46, 71]
4.25[196, 871, 672, 161, 62, 49, 46, 71]
4.25[196, 871, 672, 161, 62, 49, 46, 71]
4.25[182, 870, 560, 161, 64, 50, 48, 70]
4.27[182, 870, 560, 161, 64, 50, 48, 70]
4.27[182, 870, 560, 161, 64, 50, 48, 70]
4.27[182, 870, 560, 161, 64, 50, 48, 70]
4.27[182, 870, 560, 161, 64, 50, 48, 70]
4.27[182, 870, 560, 161, 64, 50, 48, 70]
4.27[182, 870, 560, 161, 64, 50, 48, 70]
4.27[182, 870, 560, 161, 64, 50, 48, 70]
4.27[185, 859, 581, 161, 57, 44, 43, 61]
4.3[185, 859, 581, 161, 57, 44, 43, 61]
4.3[185, 859, 581, 161, 57, 44, 43, 61]
4.3[185, 859, 581, 161, 57, 44, 43, 61]
4.3[185, 859, 581, 161, 57, 44, 43, 61]
4.3[185, 859, 581, 161, 57, 44, 43, 61]
4.3[185, 859, 581, 161, 57, 44, 43, 61]
4.3[185, 859, 581, 161, 57, 44, 43, 61]
4.3[163, 784, 579, 168, 49, 40, 38, 53]
4.31[163, 784, 579, 168, 49, 40, 38, 53]
4.31[163, 784, 579, 168, 49, 40, 38, 53]
4.31[163, 784, 579, 168, 49, 40, 38, 53]
4.31[163, 784, 579, 168, 49, 40, 38, 53]
4.31[163, 784, 579, 168, 49, 40, 38, 53]
4.31[163, 784, 579, 168, 49, 40, 38, 53]
4.31[163, 784, 579, 168, 49, 40, 38, 53]
4.31[152, 705, 476, 150, 48, 41, 38, 52]
4.33[152, 705, 476, 150, 48, 41, 38, 52]
4.33[152, 705, 476, 150, 48, 41, 38, 52]
4.33[152, 705, 476, 150, 48, 41, 38, 52]
4.33[152, 705, 476, 150, 48, 41, 38, 52]
4.33[152, 705, 476, 150, 48, 41, 38, 52]
4.33[152, 705, 476, 150, 48, 41, 38, 52]
4.33[152, 705, 476, 150, 48, 41, 38, 52]
4.33[142, 715, 536, 152, 53, 43, 34, 48]
4.36[142, 715, 536, 152, 53, 43, 34, 48]
4.36[142, 715, 536, 152, 53, 43, 34, 48]
4.36[142, 715, 536, 152, 53, 43, 34, 48]
4.36[142, 715, 536, 152, 53, 43, 34, 48]
4.36[142, 715, 536, 152, 53, 43, 34, 48]
4.36[142, 715, 536, 152, 53, 43, 34, 48]
4.36[142, 715, 536, 152, 53, 43, 34, 48]
4.36[140, 635, 514, 152, 55, 41, 32, 50]
4.37[140, 635, 514, 152, 55, 41, 32, 50]
4.37[140, 635, 514, 152, 55, 41, 32, 50]
4.37[140, 635, 514, 152, 55, 41, 32, 50]
4.37[140, 635, 514, 152, 55, 41, 32, 50]
4.37[140, 635, 514, 152, 55, 41, 32, 50]
4.37[140, 635, 514, 152, 55, 41, 32, 50]
4.37[140, 635, 514, 152, 55, 41, 32, 50]
4.37[125, 600, 500, 160, 57, 40, 35, 50]
4.39[125, 600, 500, 160, 57, 40, 35, 50]
4.39[125, 600, 500, 160, 57, 40, 35, 50]
4.39[125, 600, 500, 160, 57, 40, 35, 50]
4.39[125, 600, 500, 160, 57, 40, 35, 50]
4.39[125, 600, 500, 160, 57, 40, 35, 50]
4.39[125, 600, 500, 160, 57, 40, 35, 50]
4.39[125, 600, 500, 160, 57, 40, 35, 50]
4.39[134, 636, 507, 188, 70, 45, 39, 58]
4.42[134, 636, 507, 188, 70, 45, 39, 58]
4.42[134, 636, 507, 188, 70, 45, 39, 58]
4.42[134, 636, 507, 188, 70, 45, 39, 58]
4.42[134, 636, 507, 188, 70, 45, 39, 58]
4.42[134, 636, 507, 188, 70, 45, 39, 58]
4.42[134, 636, 507, 188, 70, 45, 39, 58]
4.42[134, 636, 507, 188, 70, 45, 39, 58]
4.42[134, 611, 569, 206, 74, 42, 39, 62]
4.43[134, 611, 569, 206, 74, 42, 39, 62]
4.43[134, 611, 569, 206, 74, 42, 39, 62]
4.43[134, 611, 569, 206, 74, 42, 39, 62]
4.43[134, 611, 569, 206, 74, 42, 39, 62]
4.43[134, 611, 569, 206, 74, 42, 39, 62]
4.43[134, 611, 569, 206, 74, 42, 39, 62]
4.43[134, 611, 569, 206, 74, 42, 39, 62]
4.43[145, 629, 570, 211, 81, 42, 50, 69]
4.45[145, 629, 570, 211, 81, 42, 50, 69]
4.45[145, 629, 570, 211, 81, 42, 50, 69]
4.45[145, 629, 570, 211, 81, 42, 50, 69]
4.45[145, 629, 570, 211, 81, 42, 50, 69]
4.45[145, 629, 570, 211, 81, 42, 50, 69]
4.45[145, 629, 570, 211, 81, 42, 50, 69]
4.45[145, 629, 570, 211, 81, 42, 50, 69]
4.45[159, 691, 601, 209, 79, 44, 50, 69]
4.48[159, 691, 601, 209, 79, 44, 50, 69]
4.48[159, 691, 601, 209, 79, 44, 50, 69]
4.48[159, 691, 601, 209, 79, 44, 50, 69]
4.48[159, 691, 601, 209, 79, 44, 50, 69]
4.48[159, 691, 601, 209, 79, 44, 50, 69]
4.48[159, 691, 601, 209, 79, 44, 50, 69]
4.48[159, 691, 601, 209, 79, 44, 50, 69]
4.48[162, 739, 602, 207, 81, 48, 49, 69]
4.49[162, 739, 602, 207, 81, 48, 49, 69]
4.49[162, 739, 602, 207, 81, 48, 49, 69]
4.49[162, 739, 602, 207, 81, 48, 49, 69]
4.49[162, 739, 602, 207, 81, 48, 49, 69]
4.49[162, 739, 602, 207, 81, 48, 49, 69]
4.49[162, 739, 602, 207, 81, 48, 49, 69]
4.49[162, 739, 602, 207, 81, 48, 49, 69]
4.49[165, 717, 586, 173, 75, 48, 49, 61]
4.51[165, 717, 586, 173, 75, 48, 49, 61]
4.51[165, 717, 586, 173, 75, 48, 49, 61]
4.51[165, 717, 586, 173, 75, 48, 49, 61]
4.51[165, 717, 586, 173, 75, 48, 49, 61]
4.51[165, 717, 586, 173, 75, 48, 49, 61]
4.51[165, 717, 586, 173, 75, 48, 49, 61]
4.51[165, 717, 586, 173, 75, 48, 49, 61]
4.51[173, 827, 538, 153, 80, 57, 57, 66]
4.54[173, 827, 538, 153, 80, 57, 57, 66]
4.54[173, 827, 538, 153, 80, 57, 57, 66]
4.54[173, 827, 538, 153, 80, 57, 57, 66]
4.54[173, 827, 538, 153, 80, 57, 57, 66]
4.54[173, 827, 538, 153, 80, 57, 57, 66]
4.54[173, 827, 538, 153, 80, 57, 57, 66]
4.54[173, 827, 538, 153, 80, 57, 57, 66]
4.54[173, 775, 512, 135, 72, 53, 51, 59]
4.55[173, 775, 512, 135, 72, 53, 51, 59]
4.55[173, 775, 512, 135, 72, 53, 51, 59]
4.55[173, 775, 512, 135, 72, 53, 51, 59]
4.55[173, 775, 512, 135, 72, 53, 51, 59]
4.55[173, 775, 512, 135, 72, 53, 51, 59]
4.55[173, 775, 512, 135, 72, 53, 51, 59]
4.55[173, 775, 512, 135, 72, 53, 51, 59]
4.55[155, 740, 504, 146, 70, 51, 52, 65]
4.57[155, 740, 504, 146, 70, 51, 52, 65]
4.57[155, 740, 504, 146, 70, 51, 52, 65]
4.57[155, 740, 504, 146, 70, 51, 52, 65]
4.57[155, 740, 504, 146, 70, 51, 52, 65]
4.57[155, 740, 504, 146, 70, 51, 52, 65]
4.57[155, 740, 504, 146, 70, 51, 52, 65]
4.57[155, 740, 504, 146, 70, 51, 52, 65]
4.57[164, 706, 531, 138, 71, 50, 54, 69]
4.6[164, 706, 531, 138, 71, 50, 54, 69]
4.6[164, 706, 531, 138, 71, 50, 54, 69]
4.6[164, 706, 531, 138, 71, 50, 54, 69]
4.6[164, 706, 531, 138, 71, 50, 54, 69]
4.6[164, 706, 531, 138, 71, 50, 54, 69]
4.6[164, 706, 531, 138, 71, 50, 54, 69]
4.6[164, 706, 531, 138, 71, 50, 54, 69]
4.6[156, 743, 513, 134, 69, 47, 52, 68]
4.61[156, 743, 513, 134, 69, 47, 52, 68]
4.61[156, 743, 513, 134, 69, 47, 52, 68]
4.61[156, 743, 513, 134, 69, 47, 52, 68]
4.61[156, 743, 513, 134, 69, 47, 52, 68]
4.61[156, 743, 513, 134, 69, 47, 52, 68]
4.61[156, 743, 513, 134, 69, 47, 52, 68]
4.61[156, 743, 513, 134, 69, 47, 52, 68]
4.61[160, 715, 499, 151, 68, 44, 46, 64]
4.63[160, 715, 499, 151, 68, 44, 46, 64]
4.63[160, 715, 499, 151, 68, 44, 46, 64]
4.63[160, 715, 499, 151, 68, 44, 46, 64]
4.63[160, 715, 499, 151, 68, 44, 46, 64]
4.63[160, 715, 499, 151, 68, 44, 46, 64]
4.63[160, 715, 499, 151, 68, 44, 46, 64]
4.63[160, 715, 499, 151, 68, 44, 46, 64]
4.63[148, 779, 443, 146, 67, 45, 45, 66]
4.66[148, 779, 443, 146, 67, 45, 45, 66]
4.66[148, 779, 443, 146, 67, 45, 45, 66]
4.66[148, 779, 443, 146, 67, 45, 45, 66]
4.66[148, 779, 443, 146, 67, 45, 45, 66]
4.66[148, 779, 443, 146, 67, 45, 45, 66]
4.66[148, 779, 443, 146, 67, 45, 45, 66]
4.66[148, 779, 443, 146, 67, 45, 45, 66]
4.66[162, 800, 422, 147, 69, 46, 43, 63]
4.67[162, 800, 422, 147, 69, 46, 43, 63]
4.67[162, 800, 422, 147, 69, 46, 43, 63]
4.67[162, 800, 422, 147, 69, 46, 43, 63]
4.67[162, 800, 422, 147, 69, 46, 43, 63]
4.67[162, 800, 422, 147, 69, 46, 43, 63]
4.67[162, 800, 422, 147, 69, 46, 43, 63]
4.67[162, 800, 422, 147, 69, 46, 43, 63]
4.67[150, 816, 374, 155, 65, 45, 39, 66]
4.69[150, 816, 374, 155, 65, 45, 39, 66]
4.69[150, 816, 374, 155, 65, 45, 39, 66]
4.69[150, 816, 374, 155, 65, 45, 39, 66]
4.69[150, 816, 374, 155, 65, 45, 39, 66]
4.69[150, 816, 374, 155, 65, 45, 39, 66]
4.69[150, 816, 374, 155, 65, 45, 39, 66]
4.69[150, 816, 374, 155, 65, 45, 39, 66]
4.69[162, 823, 392, 162, 64, 45, 44, 67]
4.72[162, 823, 392, 162, 64, 45, 44, 67]
4.72[162, 823, 392, 162, 64, 45, 44, 67]
4.72[162, 823, 392, 162, 64, 45, 44, 67]
4.72[162, 823, 392, 162, 64, 45, 44, 67]
4.72[162, 823, 392, 162, 64, 45, 44, 67]
4.72[162, 823, 392, 162, 64, 45, 44, 67]
4.72[162, 823, 392, 162, 64, 45, 44, 67]
4.72[146, 739, 389, 138, 53, 41, 43, 66]
4.73[146, 739, 389, 138, 53, 41, 43, 66]
4.73[146, 739, 389, 138, 53, 41, 43, 66]
4.73[146, 739, 389, 138, 53, 41, 43, 66]
4.73[146, 739, 389, 138, 53, 41, 43, 66]
4.73[146, 739, 389, 138, 53, 41, 43, 66]
4.73[146, 739, 389, 138, 53, 41, 43, 66]
4.73[146, 739, 389, 138, 53, 41, 43, 66]
4.73[147, 728, 394, 140, 53, 40, 41, 62]
4.75[147, 728, 394, 140, 53, 40, 41, 62]
4.75[147, 728, 394, 140, 53, 40, 41, 62]
4.75[147, 728, 394, 140, 53, 40, 41, 62]
4.75[147, 728, 394, 140, 53, 40, 41, 62]
4.75[147, 728, 394, 140, 53, 40, 41, 62]
4.75[147, 728, 394, 140, 53, 40, 41, 62]
4.75[147, 728, 394, 140, 53, 40, 41, 62]
4.75[155, 715, 503, 134, 54, 43, 42, 60]
4.78[155, 715, 503, 134, 54, 43, 42, 60]
4.78[155, 715, 503, 134, 54, 43, 42, 60]
4.78[155, 715, 503, 134, 54, 43, 42, 60]
4.78[155, 715, 503, 134, 54, 43, 42, 60]
4.78[155, 715, 503, 134, 54, 43, 42, 60]
4.78[155, 715, 503, 134, 54, 43, 42, 60]
4.78[155, 715, 503, 134, 54, 43, 42, 60]
4.78[164, 696, 505, 130, 52, 42, 44, 58]
4.79[164, 696, 505, 130, 52, 42, 44, 58]
4.79[164, 696, 505, 130, 52, 42, 44, 58]
4.79[164, 696, 505, 130, 52, 42, 44, 58]
4.79[164, 696, 505, 130, 52, 42, 44, 58]
4.79[164, 696, 505, 130, 52, 42, 44, 58]
4.79[164, 696, 505, 130, 52, 42, 44, 58]
4.79[164, 696, 505, 130, 52, 42, 44, 58]
4.79[151, 691, 492, 125, 51, 40, 39, 59]
4.81[151, 691, 492, 125, 51, 40, 39, 59]
4.81[151, 691, 492, 125, 51, 40, 39, 59]
4.81[151, 691, 492, 125, 51, 40, 39, 59]
4.81[151, 691, 492, 125, 51, 40, 39, 59]
4.81[151, 691, 492, 125, 51, 40, 39, 59]
4.81[151, 691, 492, 125, 51, 40, 39, 59]
4.81[151, 691, 492, 125, 51, 40, 39, 59]
4.81[151, 696, 513, 140, 55, 38, 37, 57]
4.84[151, 696, 513, 140, 55, 38, 37, 57]
4.84[151, 696, 513, 140, 55, 38, 37, 57]
4.84[151, 696, 513, 140, 55, 38, 37, 57]
4.84[151, 696, 513, 140, 55, 38, 37, 57]
4.84[151, 696, 513, 140, 55, 38, 37, 57]
4.84[151, 696, 513, 140, 55, 38, 37, 57]
4.84[151, 696, 513, 140, 55, 38, 37, 57]
4.84[155, 674, 556, 136, 57, 39, 40, 64]
4.85[155, 674, 556, 136, 57, 39, 40, 64]
4.85[155, 674, 556, 136, 57, 39, 40, 64]
4.85[155, 674, 556, 136, 57, 39, 40, 64]
4.85[155, 674, 556, 136, 57, 39, 40, 64]
4.85[155, 674, 556, 136, 57, 39, 40, 64]
4.85[155, 674, 556, 136, 57, 39, 40, 64]
4.85[155, 674, 556, 136, 57, 39, 40, 64]
4.85[146, 677, 457, 131, 55, 36, 40, 61]
4.87[146, 677, 457, 131, 55, 36, 40, 61]
4.87[146, 677, 457, 131, 55, 36, 40, 61]
4.87[146, 677, 457, 131, 55, 36, 40, 61]
4.87[146, 677, 457, 131, 55, 36, 40, 61]
4.87[146, 677, 457, 131, 55, 36, 40, 61]
4.87[146, 677, 457, 131, 55, 36, 40, 61]
4.87[146, 677, 457, 131, 55, 36, 40, 61]
4.87[141, 694, 444, 121, 54, 34, 40, 55]
4.9[141, 694, 444, 121, 54, 34, 40, 55]
4.9[141, 694, 444, 121, 54, 34, 40, 55]
4.9[141, 694, 444, 121, 54, 34, 40, 55]
4.9[141, 694, 444, 121, 54, 34, 40, 55]
4.9[141, 694, 444, 121, 54, 34, 40, 55]
4.9[141, 694, 444, 121, 54, 34, 40, 55]
4.9[141, 694, 444, 121, 54, 34, 40, 55]
4.9[148, 655, 453, 129, 60, 36, 42, 57]
4.92[148, 655, 453, 129, 60, 36, 42, 57]
4.92[148, 655, 453, 129, 60, 36, 42, 57]
4.92[148, 655, 453, 129, 60, 36, 42, 57]
4.92[148, 655, 453, 129, 60, 36, 42, 57]
4.92[148, 655, 453, 129, 60, 36, 42, 57]
4.92[148, 655, 453, 129, 60, 36, 42, 57]
4.92[148, 655, 453, 129, 60, 36, 42, 57]
4.92[154, 638, 585, 157, 55, 35, 41, 57]
4.93[154, 638, 585, 157, 55, 35, 41, 57]
4.93[154, 638, 585, 157, 55, 35, 41, 57]
4.93[154, 638, 585, 157, 55, 35, 41, 57]
4.93[154, 638, 585, 157, 55, 35, 41, 57]
4.93[154, 638, 585, 157, 55, 35, 41, 57]
4.93[154, 638, 585, 157, 55, 35, 41, 57]
4.93[154, 638, 585, 157, 55, 35, 41, 57]
4.93[152, 632, 586, 175, 58, 37, 40, 49]
4.96[152, 632, 586, 175, 58, 37, 40, 49]
4.96[152, 632, 586, 175, 58, 37, 40, 49]
4.96[152, 632, 586, 175, 58, 37, 40, 49]
4.96[152, 632, 586, 175, 58, 37, 40, 49]
4.96[152, 632, 586, 175, 58, 37, 40, 49]
4.96[152, 632, 586, 175, 58, 37, 40, 49]
4.96[152, 632, 586, 175, 58, 37, 40, 49]
4.96[133, 639, 627, 194, 58, 37, 39, 51]
4.97[133, 639, 627, 194, 58, 37, 39, 51]
4.97[133, 639, 627, 194, 58, 37, 39, 51]
4.97[133, 639, 627, 194, 58, 37, 39, 51]
4.97[133, 639, 627, 194, 58, 37, 39, 51]
4.97[133, 639, 627, 194, 58, 37, 39, 51]
4.97[133, 639, 627, 194, 58, 37, 39, 51]
4.97[133, 639, 627, 194, 58, 37, 39, 51]
4.97[130, 627, 688, 192, 60, 37, 38, 52]
4.99[130, 627, 688, 192, 60, 37, 38, 52]
4.99[130, 627, 688, 192, 60, 37, 38, 52]
4.99[130, 627, 688, 192, 60, 37, 38, 52]
4.99[130, 627, 688, 192, 60, 37, 38, 52]
4.99[130, 627, 688, 192, 60, 37, 38, 52]
4.99[130, 627, 688, 192, 60, 37, 38, 52]
4.99[130, 627, 688, 192, 60, 37, 38, 52]
4.99[121, 586, 721, 187, 52, 35, 37, 50]
5.02[121, 586, 721, 187, 52, 35, 37, 50]
5.02[121, 586, 721, 187, 52, 35, 37, 50]
5.02[121, 586, 721, 187, 52, 35, 37, 50]
5.02[121, 586, 721, 187, 52, 35, 37, 50]
5.02[121, 586, 721, 187, 52, 35, 37, 50]
5.02[121, 586, 721, 187, 52, 35, 37, 50]
5.02[121, 586, 721, 187, 52, 35, 37, 50]
5.02[121, 692, 640, 169, 53, 37, 36, 48]
5.03[121, 692, 640, 169, 53, 37, 36, 48]
5.03[121, 692, 640, 169, 53, 37, 36, 48]
5.03[121, 692, 640, 169, 53, 37, 36, 48]
5.03[121, 692, 640, 169, 53, 37, 36, 48]
5.03[121, 692, 640, 169, 53, 37, 36, 48]
5.03[121, 692, 640, 169, 53, 37, 36, 48]
5.03[121, 692, 640, 169, 53, 37, 36, 48]
5.03[131, 698, 637, 150, 46, 33, 35, 50]
5.05[131, 698, 637, 150, 46, 33, 35, 50]
5.05[131, 698, 637, 150, 46, 33, 35, 50]
5.05[131, 698, 637, 150, 46, 33, 35, 50]
5.05[131, 698, 637, 150, 46, 33, 35, 50]
5.05[131, 698, 637, 150, 46, 33, 35, 50]
5.05[131, 698, 637, 150, 46, 33, 35, 50]
5.05[131, 698, 637, 150, 46, 33, 35, 50]
5.05[137, 706, 631, 135, 45, 32, 36, 53]
5.08[137, 706, 631, 135, 45, 32, 36, 53]
5.08[137, 706, 631, 135, 45, 32, 36, 53]
5.08[137, 706, 631, 135, 45, 32, 36, 53]
5.08[137, 706, 631, 135, 45, 32, 36, 53]
5.08[137, 706, 631, 135, 45, 32, 36, 53]
5.08[137, 706, 631, 135, 45, 32, 36, 53]
5.08[137, 706, 631, 135, 45, 32, 36, 53]
5.08[130, 692, 595, 154, 46, 35, 34, 50]
5.09[130, 692, 595, 154, 46, 35, 34, 50]
5.09[130, 692, 595, 154, 46, 35, 34, 50]
5.09[130, 692, 595, 154, 46, 35, 34, 50]
5.09[130, 692, 595, 154, 46, 35, 34, 50]
5.09[130, 692, 595, 154, 46, 35, 34, 50]
5.09[130, 692, 595, 154, 46, 35, 34, 50]
5.09[130, 692, 595, 154, 46, 35, 34, 50]
5.09[148, 755, 553, 160, 54, 37, 35, 51]
5.11[148, 755, 553, 160, 54, 37, 35, 51]
5.11[148, 755, 553, 160, 54, 37, 35, 51]
5.11[148, 755, 553, 160, 54, 37, 35, 51]
5.11[148, 755, 553, 160, 54, 37, 35, 51]
5.11[148, 755, 553, 160, 54, 37, 35, 51]
5.11[148, 755, 553, 160, 54, 37, 35, 51]
5.11[148, 755, 553, 160, 54, 37, 35, 51]
5.11[175, 739, 582, 176, 61, 37, 35, 54]
5.14[175, 739, 582, 176, 61, 37, 35, 54]
5.14[175, 739, 582, 176, 61, 37, 35, 54]
5.14[175, 739, 582, 176, 61, 37, 35, 54]
5.14[175, 739, 582, 176, 61, 37, 35, 54]
5.14[175, 739, 582, 176, 61, 37, 35, 54]
5.14[175, 739, 582, 176, 61, 37, 35, 54]
5.14[175, 739, 582, 176, 61, 37, 35, 54]
5.14[166, 761, 642, 183, 61, 37, 36, 55]
5.15[166, 761, 642, 183, 61, 37, 36, 55]
5.15[166, 761, 642, 183, 61, 37, 36, 55]
5.15[166, 761, 642, 183, 61, 37, 36, 55]
5.15[166, 761, 642, 183, 61, 37, 36, 55]
5.15[166, 761, 642, 183, 61, 37, 36, 55]
5.15[166, 761, 642, 183, 61, 37, 36, 55]
5.15[166, 761, 642, 183, 61, 37, 36, 55]
5.15[171, 769, 621, 175, 66, 39, 35, 52]
5.17[171, 769, 621, 175, 66, 39, 35, 52]
5.17[171, 769, 621, 175, 66, 39, 35, 52]
5.17[171, 769, 621, 175, 66, 39, 35, 52]
5.17[171, 769, 621, 175, 66, 39, 35, 52]
5.17[171, 769, 621, 175, 66, 39, 35, 52]
5.17[171, 769, 621, 175, 66, 39, 35, 52]
5.17[171, 769, 621, 175, 66, 39, 35, 52]
5.17[183, 781, 625, 177, 64, 38, 37, 52]
5.2[183, 781, 625, 177, 64, 38, 37, 52]
5.2[183, 781, 625, 177, 64, 38, 37, 52]
5.2[183, 781, 625, 177, 64, 38, 37, 52]
5.2[183, 781, 625, 177, 64, 38, 37, 52]
5.2[183, 781, 625, 177, 64, 38, 37, 52]
5.2[183, 781, 625, 177, 64, 38, 37, 52]
5.2[183, 781, 625, 177, 64, 38, 37, 52]
5.2[193, 744, 746, 184, 58, 36, 35, 51]
5.22[193, 744, 746, 184, 58, 36, 35, 51]
5.22[193, 744, 746, 184, 58, 36, 35, 51]
5.22[193, 744, 746, 184, 58, 36, 35, 51]
5.22[193, 744, 746, 184, 58, 36, 35, 51]
5.22[193, 744, 746, 184, 58, 36, 35, 51]
5.22[193, 744, 746, 184, 58, 36, 35, 51]
5.22[193, 744, 746, 184, 58, 36, 35, 51]
5.22[170, 710, 738, 164, 54, 35, 40, 56]
5.23[170, 710, 738, 164, 54, 35, 40, 56]
5.23[170, 710, 738, 164, 54, 35, 40, 56]
5.23[170, 710, 738, 164, 54, 35, 40, 56]
5.23[170, 710, 738, 164, 54, 35, 40, 56]
5.23[170, 710, 738, 164, 54, 35, 40, 56]
5.23[170, 710, 738, 164, 54, 35, 40, 56]
5.23[170, 710, 738, 164, 54, 35, 40, 56]
5.23[178, 645, 696, 181, 51, 36, 39, 55]
5.26[178, 645, 696, 181, 51, 36, 39, 55]
5.26[178, 645, 696, 181, 51, 36, 39, 55]
5.26[178, 645, 696, 181, 51, 36, 39, 55]
5.26[178, 645, 696, 181, 51, 36, 39, 55]
5.26[178, 645, 696, 181, 51, 36, 39, 55]
5.26[178, 645, 696, 181, 51, 36, 39, 55]
5.26[178, 645, 696, 181, 51, 36, 39, 55]
5.26[174, 621, 757, 185, 48, 36, 41, 55]
5.28[174, 621, 757, 185, 48, 36, 41, 55]
5.28[174, 621, 757, 185, 48, 36, 41, 55]
5.28[174, 621, 757, 185, 48, 36, 41, 55]
5.28[174, 621, 757, 185, 48, 36, 41, 55]
5.28[174, 621, 757, 185, 48, 36, 41, 55]
5.28[174, 621, 757, 185, 48, 36, 41, 55]
5.28[174, 621, 757, 185, 48, 36, 41, 55]
5.28[164, 667, 734, 190, 54, 35, 38, 54]
5.29[164, 667, 734, 190, 54, 35, 38, 54]
5.29[164, 667, 734, 190, 54, 35, 38, 54]
5.29[164, 667, 734, 190, 54, 35, 38, 54]
5.29[164, 667, 734, 190, 54, 35, 38, 54]
5.29[164, 667, 734, 190, 54, 35, 38, 54]
5.29[164, 667, 734, 190, 54, 35, 38, 54]
5.29[164, 667, 734, 190, 54, 35, 38, 54]
5.29[140, 653, 722, 217, 61, 40, 39, 52]
5.32[140, 653, 722, 217, 61, 40, 39, 52]
5.32[140, 653, 722, 217, 61, 40, 39, 52]
5.32[140, 653, 722, 217, 61, 40, 39, 52]
5.32[140, 653, 722, 217, 61, 40, 39, 52]
5.32[140, 653, 722, 217, 61, 40, 39, 52]
5.32[140, 653, 722, 217, 61, 40, 39, 52]
5.32[140, 653, 722, 217, 61, 40, 39, 52]
5.32[141, 630, 714, 222, 60, 38, 33, 44]
5.34[141, 630, 714, 222, 60, 38, 33, 44]
5.34[141, 630, 714, 222, 60, 38, 33, 44]
5.34[141, 630, 714, 222, 60, 38, 33, 44]
5.34[141, 630, 714, 222, 60, 38, 33, 44]
5.34[141, 630, 714, 222, 60, 38, 33, 44]
5.34[141, 630, 714, 222, 60, 38, 33, 44]
5.34[141, 630, 714, 222, 60, 38, 33, 44]
5.34[132, 614, 729, 227, 66, 38, 33, 44]
5.35[132, 614, 729, 227, 66, 38, 33, 44]
5.35[132, 614, 729, 227, 66, 38, 33, 44]
5.35[132, 614, 729, 227, 66, 38, 33, 44]
5.35[132, 614, 729, 227, 66, 38, 33, 44]
5.35[132, 614, 729, 227, 66, 38, 33, 44]
5.35[132, 614, 729, 227, 66, 38, 33, 44]
5.35[132, 614, 729, 227, 66, 38, 33, 44]
5.35[136, 591, 700, 226, 67, 37, 33, 42]
5.38[136, 591, 700, 226, 67, 37, 33, 42]
5.38[136, 591, 700, 226, 67, 37, 33, 42]
5.38[136, 591, 700, 226, 67, 37, 33, 42]
5.38[136, 591, 700, 226, 67, 37, 33, 42]
5.38[136, 591, 700, 226, 67, 37, 33, 42]
5.38[136, 591, 700, 226, 67, 37, 33, 42]
5.38[136, 591, 700, 226, 67, 37, 33, 42]
5.38[135, 546, 717, 214, 65, 37, 35, 44]
5.4[135, 546, 717, 214, 65, 37, 35, 44]
5.4[135, 546, 717, 214, 65, 37, 35, 44]
5.4[135, 546, 717, 214, 65, 37, 35, 44]
5.4[135, 546, 717, 214, 65, 37, 35, 44]
5.4[135, 546, 717, 214, 65, 37, 35, 44]
5.4[135, 546, 717, 214, 65, 37, 35, 44]
5.4[135, 546, 717, 214, 65, 37, 35, 44]
5.4[141, 573, 646, 179, 59, 36, 35, 47]
5.41[141, 573, 646, 179, 59, 36, 35, 47]
5.41[141, 573, 646, 179, 59, 36, 35, 47]
5.41[141, 573, 646, 179, 59, 36, 35, 47]
5.41[141, 573, 646, 179, 59, 36, 35, 47]
5.41[141, 573, 646, 179, 59, 36, 35, 47]
5.41[141, 573, 646, 179, 59, 36, 35, 47]
5.41[141, 573, 646, 179, 59, 36, 35, 47]
5.41[134, 579, 640, 175, 58, 37, 35, 44]
5.44[134, 579, 640, 175, 58, 37, 35, 44]
5.44[134, 579, 640, 175, 58, 37, 35, 44]
5.44[134, 579, 640, 175, 58, 37, 35, 44]
5.44[134, 579, 640, 175, 58, 37, 35, 44]
5.44[134, 579, 640, 175, 58, 37, 35, 44]
5.44[134, 579, 640, 175, 58, 37, 35, 44]
5.44[134, 579, 640, 175, 58, 37, 35, 44]
5.44[156, 684, 637, 146, 52, 37, 37, 45]
5.46[156, 684, 637, 146, 52, 37, 37, 45]
5.46[156, 684, 637, 146, 52, 37, 37, 45]
5.46[156, 684, 637, 146, 52, 37, 37, 45]
5.46[156, 684, 637, 146, 52, 37, 37, 45]
5.46[156, 684, 637, 146, 52, 37, 37, 45]
5.46[156, 684, 637, 146, 52, 37, 37, 45]
5.46[156, 684, 637, 146, 52, 37, 37, 45]
5.46[150, 692, 666, 154, 48, 37, 39, 46]
5.47[150, 692, 666, 154, 48, 37, 39, 46]
5.47[150, 692, 666, 154, 48, 37, 39, 46]
5.47[150, 692, 666, 154, 48, 37, 39, 46]
5.47[150, 692, 666, 154, 48, 37, 39, 46]
5.47[150, 692, 666, 154, 48, 37, 39, 46]
5.47[150, 692, 666, 154, 48, 37, 39, 46]
5.47[150, 692, 666, 154, 48, 37, 39, 46]
5.47[145, 669, 638, 143, 49, 43, 44, 50]
5.5[145, 669, 638, 143, 49, 43, 44, 50]
5.5[145, 669, 638, 143, 49, 43, 44, 50]
5.5[145, 669, 638, 143, 49, 43, 44, 50]
5.5[145, 669, 638, 143, 49, 43, 44, 50]
5.5[145, 669, 638, 143, 49, 43, 44, 50]
5.5[145, 669, 638, 143, 49, 43, 44, 50]
5.5[145, 669, 638, 143, 49, 43, 44, 50]
5.5[151, 706, 586, 148, 48, 40, 42, 50]
5.52[151, 706, 586, 148, 48, 40, 42, 50]
5.52[151, 706, 586, 148, 48, 40, 42, 50]
5.52[151, 706, 586, 148, 48, 40, 42, 50]
5.52[151, 706, 586, 148, 48, 40, 42, 50]
5.52[151, 706, 586, 148, 48, 40, 42, 50]
5.52[151, 706, 586, 148, 48, 40, 42, 50]
5.52[151, 706, 586, 148, 48, 40, 42, 50]
5.52[168, 734, 625, 140, 47, 40, 41, 52]
5.53[168, 734, 625, 140, 47, 40, 41, 52]
5.53[168, 734, 625, 140, 47, 40, 41, 52]
5.53[168, 734, 625, 140, 47, 40, 41, 52]
5.53[168, 734, 625, 140, 47, 40, 41, 52]
5.53[168, 734, 625, 140, 47, 40, 41, 52]
5.53[168, 734, 625, 140, 47, 40, 41, 52]
5.53[168, 734, 625, 140, 47, 40, 41, 52]
5.53[144, 642, 593, 138, 49, 42, 40, 48]
5.56[144, 642, 593, 138, 49, 42, 40, 48]
5.56[144, 642, 593, 138, 49, 42, 40, 48]
5.56[144, 642, 593, 138, 49, 42, 40, 48]
5.56[144, 642, 593, 138, 49, 42, 40, 48]
5.56[144, 642, 593, 138, 49, 42, 40, 48]
5.56[144, 642, 593, 138, 49, 42, 40, 48]
5.56[144, 642, 593, 138, 49, 42, 40, 48]
5.56[149, 623, 489, 120, 52, 41, 38, 47]
5.58[149, 623, 489, 120, 52, 41, 38, 47]
5.58[149, 623, 489, 120, 52, 41, 38, 47]
5.58[149, 623, 489, 120, 52, 41, 38, 47]
5.58[149, 623, 489, 120, 52, 41, 38, 47]
5.58[149, 623, 489, 120, 52, 41, 38, 47]
5.58[149, 623, 489, 120, 52, 41, 38, 47]
5.58[149, 623, 489, 120, 52, 41, 38, 47]
5.58[162, 639, 602, 147, 50, 36, 32, 45]
5.59[162, 639, 602, 147, 50, 36, 32, 45]
5.59[162, 639, 602, 147, 50, 36, 32, 45]
5.59[162, 639, 602, 147, 50, 36, 32, 45]
5.59[162, 639, 602, 147, 50, 36, 32, 45]
5.59[162, 639, 602, 147, 50, 36, 32, 45]
5.59[162, 639, 602, 147, 50, 36, 32, 45]
5.59[162, 639, 602, 147, 50, 36, 32, 45]
5.59[154, 606, 635, 167, 60, 39, 39, 46]
5.62[154, 606, 635, 167, 60, 39, 39, 46]
5.62[154, 606, 635, 167, 60, 39, 39, 46]
5.62[154, 606, 635, 167, 60, 39, 39, 46]
5.62[154, 606, 635, 167, 60, 39, 39, 46]
5.62[154, 606, 635, 167, 60, 39, 39, 46]
5.62[154, 606, 635, 167, 60, 39, 39, 46]
5.62[154, 606, 635, 167, 60, 39, 39, 46]
5.62[134, 549, 627, 167, 61, 39, 40, 45]
5.64[134, 549, 627, 167, 61, 39, 40, 45]
5.64[134, 549, 627, 167, 61, 39, 40, 45]
5.64[134, 549, 627, 167, 61, 39, 40, 45]
5.64[134, 549, 627, 167, 61, 39, 40, 45]
5.64[134, 549, 627, 167, 61, 39, 40, 45]
5.64[134, 549, 627, 167, 61, 39, 40, 45]
5.64[134, 549, 627, 167, 61, 39, 40, 45]
5.64[136, 595, 634, 170, 68, 41, 43, 52]
5.65[136, 595, 634, 170, 68, 41, 43, 52]
5.65[136, 595, 634, 170, 68, 41, 43, 52]
5.65[136, 595, 634, 170, 68, 41, 43, 52]
5.65[136, 595, 634, 170, 68, 41, 43, 52]
5.65[136, 595, 634, 170, 68, 41, 43, 52]
5.65[136, 595, 634, 170, 68, 41, 43, 52]
5.65[136, 595, 634, 170, 68, 41, 43, 52]
5.65[126, 594, 640, 171, 65, 41, 41, 50]
5.68[126, 594, 640, 171, 65, 41, 41, 50]
5.68[126, 594, 640, 171, 65, 41, 41, 50]
5.68[126, 594, 640, 171, 65, 41, 41, 50]
5.68[126, 594, 640, 171, 65, 41, 41, 50]
5.68[126, 594, 640, 171, 65, 41, 41, 50]
5.68[126, 594, 640, 171, 65, 41, 41, 50]
5.68[126, 594, 640, 171, 65, 41, 41, 50]
5.68[133, 539, 572, 157, 66, 43, 43, 51]
5.7[133, 539, 572, 157, 66, 43, 43, 51]
5.7[133, 539, 572, 157, 66, 43, 43, 51]
5.7[133, 539, 572, 157, 66, 43, 43, 51]
5.7[133, 539, 572, 157, 66, 43, 43, 51]
5.7[133, 539, 572, 157, 66, 43, 43, 51]
5.7[133, 539, 572, 157, 66, 43, 43, 51]
5.7[133, 539, 572, 157, 66, 43, 43, 51]
5.7[137, 522, 615, 139, 58, 41, 37, 47]
5.71[137, 522, 615, 139, 58, 41, 37, 47]
5.71[137, 522, 615, 139, 58, 41, 37, 47]
5.71[137, 522, 615, 139, 58, 41, 37, 47]
5.71[137, 522, 615, 139, 58, 41, 37, 47]
5.71[137, 522, 615, 139, 58, 41, 37, 47]
5.71[137, 522, 615, 139, 58, 41, 37, 47]
5.71[137, 522, 615, 139, 58, 41, 37, 47]
5.71[138, 517, 625, 142, 61, 42, 38, 51]
5.74[138, 517, 625, 142, 61, 42, 38, 51]
5.74[138, 517, 625, 142, 61, 42, 38, 51]
5.74[138, 517, 625, 142, 61, 42, 38, 51]
5.74[138, 517, 625, 142, 61, 42, 38, 51]
5.74[138, 517, 625, 142, 61, 42, 38, 51]
5.74[138, 517, 625, 142, 61, 42, 38, 51]
5.74[138, 517, 625, 142, 61, 42, 38, 51]
5.74[132, 466, 595, 138, 55, 37, 35, 48]
5.76[132, 466, 595, 138, 55, 37, 35, 48]
5.76[132, 466, 595, 138, 55, 37, 35, 48]
5.76[132, 466, 595, 138, 55, 37, 35, 48]
5.76[132, 466, 595, 138, 55, 37, 35, 48]
5.76[132, 466, 595, 138, 55, 37, 35, 48]
5.76[132, 466, 595, 138, 55, 37, 35, 48]
5.76[132, 466, 595, 138, 55, 37, 35, 48]
5.76[130, 461, 591, 145, 56, 37, 34, 48]
5.77[130, 461, 591, 145, 56, 37, 34, 48]
5.77[130, 461, 591, 145, 56, 37, 34, 48]
5.77[130, 461, 591, 145, 56, 37, 34, 48]
5.77[130, 461, 591, 145, 56, 37, 34, 48]
5.77[130, 461, 591, 145, 56, 37, 34, 48]
5.77[130, 461, 591, 145, 56, 37, 34, 48]
5.77[130, 461, 591, 145, 56, 37, 34, 48]
5.77[117, 459, 621, 138, 53, 33, 32, 44]
5.8[117, 459, 621, 138, 53, 33, 32, 44]
5.8[117, 459, 621, 138, 53, 33, 32, 44]
5.8[117, 459, 621, 138, 53, 33, 32, 44]
5.8[117, 459, 621, 138, 53, 33, 32, 44]
5.8[117, 459, 621, 138, 53, 33, 32, 44]
5.8[117, 459, 621, 138, 53, 33, 32, 44]
5.8[117, 459, 621, 138, 53, 33, 32, 44]
5.8[105, 490, 603, 150, 56, 36, 34, 45]
5.82[105, 490, 603, 150, 56, 36, 34, 45]
5.82[105, 490, 603, 150, 56, 36, 34, 45]
5.82[105, 490, 603, 150, 56, 36, 34, 45]
5.82[105, 490, 603, 150, 56, 36, 34, 45]
5.82[105, 490, 603, 150, 56, 36, 34, 45]
5.82[105, 490, 603, 150, 56, 36, 34, 45]
5.82[105, 490, 603, 150, 56, 36, 34, 45]
5.82[101, 508, 541, 162, 48, 32, 31, 41]
5.83[101, 508, 541, 162, 48, 32, 31, 41]
5.83[101, 508, 541, 162, 48, 32, 31, 41]
5.83[101, 508, 541, 162, 48, 32, 31, 41]
5.83[101, 508, 541, 162, 48, 32, 31, 41]
5.83[101, 508, 541, 162, 48, 32, 31, 41]
5.83[101, 508, 541, 162, 48, 32, 31, 41]
5.83[101, 508, 541, 162, 48, 32, 31, 41]
5.83[100, 545, 578, 175, 48, 35, 30, 38]
5.86[100, 545, 578, 175, 48, 35, 30, 38]
5.86[100, 545, 578, 175, 48, 35, 30, 38]
5.86[100, 545, 578, 175, 48, 35, 30, 38]
5.86[100, 545, 578, 175, 48, 35, 30, 38]
5.86[100, 545, 578, 175, 48, 35, 30, 38]
5.86[100, 545, 578, 175, 48, 35, 30, 38]
5.86[100, 545, 578, 175, 48, 35, 30, 38]
5.86[109, 568, 576, 167, 48, 35, 33, 39]
5.88[109, 568, 576, 167, 48, 35, 33, 39]
5.88[109, 568, 576, 167, 48, 35, 33, 39]
5.88[109, 568, 576, 167, 48, 35, 33, 39]
5.88[109, 568, 576, 167, 48, 35, 33, 39]
5.88[109, 568, 576, 167, 48, 35, 33, 39]
5.88[109, 568, 576, 167, 48, 35, 33, 39]
5.88[109, 568, 576, 167, 48, 35, 33, 39]
5.88[110, 596, 566, 180, 48, 35, 31, 43]
5.89[110, 596, 566, 180, 48, 35, 31, 43]
5.89[110, 596, 566, 180, 48, 35, 31, 43]
5.89[110, 596, 566, 180, 48, 35, 31, 43]
5.89[110, 596, 566, 180, 48, 35, 31, 43]
5.89[110, 596, 566, 180, 48, 35, 31, 43]
5.89[110, 596, 566, 180, 48, 35, 31, 43]
5.89[110, 596, 566, 180, 48, 35, 31, 43]
5.89[112, 537, 533, 170, 46, 32, 30, 42]
5.92[112, 537, 533, 170, 46, 32, 30, 42]
5.92[112, 537, 533, 170, 46, 32, 30, 42]
5.92[112, 537, 533, 170, 46, 32, 30, 42]
5.92[112, 537, 533, 170, 46, 32, 30, 42]
5.92[112, 537, 533, 170, 46, 32, 30, 42]
5.92[112, 537, 533, 170, 46, 32, 30, 42]
5.92[112, 537, 533, 170, 46, 32, 30, 42]
5.92[123, 559, 488, 155, 47, 32, 30, 42]
5.94[123, 559, 488, 155, 47, 32, 30, 42]
5.94[123, 559, 488, 155, 47, 32, 30, 42]
5.94[123, 559, 488, 155, 47, 32, 30, 42]
5.94[123, 559, 488, 155, 47, 32, 30, 42]
5.94[123, 559, 488, 155, 47, 32, 30, 42]
5.94[123, 559, 488, 155, 47, 32, 30, 42]
5.94[123, 559, 488, 155, 47, 32, 30, 42]
5.94[124, 567, 456, 162, 45, 30, 30, 41]
5.95[124, 567, 456, 162, 45, 30, 30, 41]
5.95[124, 567, 456, 162, 45, 30, 30, 41]
5.95[124, 567, 456, 162, 45, 30, 30, 41]
5.95[124, 567, 456, 162, 45, 30, 30, 41]
5.95[124, 567, 456, 162, 45, 30, 30, 41]
5.95[124, 567, 456, 162, 45, 30, 30, 41]
5.95[124, 567, 456, 162, 45, 30, 30, 41]
5.95[123, 544, 460, 161, 43, 30, 29, 39]
5.98[123, 544, 460, 161, 43, 30, 29, 39]
5.98[123, 544, 460, 161, 43, 30, 29, 39]
5.98[123, 544, 460, 161, 43, 30, 29, 39]
5.98[123, 544, 460, 161, 43, 30, 29, 39]
5.98[123, 544, 460, 161, 43, 30, 29, 39]
5.98[123, 544, 460, 161, 43, 30, 29, 39]
5.98[123, 544, 460, 161, 43, 30, 29, 39]
5.98[128, 600, 442, 163, 51, 31, 32, 38]
6.0[128, 600, 442, 163, 51, 31, 32, 38]
6.0[128, 600, 442, 163, 51, 31, 32, 38]
6.0[128, 600, 442, 163, 51, 31, 32, 38]
6.0[128, 600, 442, 163, 51, 31, 32, 38]
6.0[128, 600, 442, 163, 51, 31, 32, 38]
6.0[128, 600, 442, 163, 51, 31, 32, 38]
6.0[128, 600, 442, 163, 51, 31, 32, 38]
6.0[130, 605, 491, 177, 58, 36, 35, 41]
6.01[130, 605, 491, 177, 58, 36, 35, 41]
6.01[130, 605, 491, 177, 58, 36, 35, 41]
6.01[130, 605, 491, 177, 58, 36, 35, 41]
6.01[130, 605, 491, 177, 58, 36, 35, 41]
6.01[130, 605, 491, 177, 58, 36, 35, 41]
6.01[130, 605, 491, 177, 58, 36, 35, 41]
6.01[130, 605, 491, 177, 58, 36, 35, 41]
6.01[121, 568, 530, 174, 57, 37, 34, 43]
6.04[121, 568, 530, 174, 57, 37, 34, 43]
6.04[121, 568, 530, 174, 57, 37, 34, 43]
6.04[121, 568, 530, 174, 57, 37, 34, 43]
6.04[121, 568, 530, 174, 57, 37, 34, 43]
6.04[121, 568, 530, 174, 57, 37, 34, 43]
6.04[121, 568, 530, 174, 57, 37, 34, 43]
6.04[121, 568, 530, 174, 57, 37, 34, 43]
6.04[116, 589, 499, 148, 55, 35, 33, 43]
6.06[116, 589, 499, 148, 55, 35, 33, 43]
6.06[116, 589, 499, 148, 55, 35, 33, 43]
6.06[116, 589, 499, 148, 55, 35, 33, 43]
6.06[116, 589, 499, 148, 55, 35, 33, 43]
6.06[116, 589, 499, 148, 55, 35, 33, 43]
6.06[116, 589, 499, 148, 55, 35, 33, 43]
6.06[116, 589, 499, 148, 55, 35, 33, 43]
6.06[113, 574, 588, 155, 59, 38, 35, 48]
6.07[113, 574, 588, 155, 59, 38, 35, 48]
6.07[113, 574, 588, 155, 59, 38, 35, 48]
6.07[113, 574, 588, 155, 59, 38, 35, 48]
6.07[113, 574, 588, 155, 59, 38, 35, 48]
6.07[113, 574, 588, 155, 59, 38, 35, 48]
6.07[113, 574, 588, 155, 59, 38, 35, 48]
6.07[113, 574, 588, 155, 59, 38, 35, 48]
6.07[97, 533, 645, 153, 53, 37, 32, 47]
6.1[97, 533, 645, 153, 53, 37, 32, 47]
6.1[97, 533, 645, 153, 53, 37, 32, 47]
6.1[97, 533, 645, 153, 53, 37, 32, 47]
6.1[97, 533, 645, 153, 53, 37, 32, 47]
6.1[97, 533, 645, 153, 53, 37, 32, 47]
6.1[97, 533, 645, 153, 53, 37, 32, 47]
6.1[97, 533, 645, 153, 53, 37, 32, 47]
6.1[98, 563, 623, 182, 48, 33, 29, 46]
6.12[98, 563, 623, 182, 48, 33, 29, 46]
6.12[98, 563, 623, 182, 48, 33, 29, 46]
6.12[98, 563, 623, 182, 48, 33, 29, 46]
6.12[98, 563, 623, 182, 48, 33, 29, 46]
6.12[98, 563, 623, 182, 48, 33, 29, 46]
6.12[98, 563, 623, 182, 48, 33, 29, 46]
6.12[98, 563, 623, 182, 48, 33, 29, 46]
6.12[90, 552, 592, 185, 52, 35, 33, 44]
6.13[90, 552, 592, 185, 52, 35, 33, 44]
6.13[90, 552, 592, 185, 52, 35, 33, 44]
6.13[90, 552, 592, 185, 52, 35, 33, 44]
6.13[90, 552, 592, 185, 52, 35, 33, 44]
6.13[90, 552, 592, 185, 52, 35, 33, 44]
6.13[90, 552, 592, 185, 52, 35, 33, 44]
6.13[90, 552, 592, 185, 52, 35, 33, 44]
6.13[92, 553, 621, 190, 51, 36, 34, 43]
6.16[92, 553, 621, 190, 51, 36, 34, 43]
6.16[92, 553, 621, 190, 51, 36, 34, 43]
6.16[92, 553, 621, 190, 51, 36, 34, 43]
6.16[92, 553, 621, 190, 51, 36, 34, 43]
6.16[92, 553, 621, 190, 51, 36, 34, 43]
6.16[92, 553, 621, 190, 51, 36, 34, 43]
6.16[92, 553, 621, 190, 51, 36, 34, 43]
6.16[88, 561, 547, 192, 53, 34, 32, 41]
6.18[88, 561, 547, 192, 53, 34, 32, 41]
6.18[88, 561, 547, 192, 53, 34, 32, 41]
6.18[88, 561, 547, 192, 53, 34, 32, 41]
6.18[88, 561, 547, 192, 53, 34, 32, 41]
6.18[88, 561, 547, 192, 53, 34, 32, 41]
6.18[88, 561, 547, 192, 53, 34, 32, 41]
6.18[88, 561, 547, 192, 53, 34, 32, 41]
6.18[103, 530, 440, 177, 58, 37, 34, 45]
6.2[103, 530, 440, 177, 58, 37, 34, 45]
6.2[103, 530, 440, 177, 58, 37, 34, 45]
6.2[103, 530, 440, 177, 58, 37, 34, 45]
6.2[103, 530, 440, 177, 58, 37, 34, 45]
6.2[103, 530, 440, 177, 58, 37, 34, 45]
6.2[103, 530, 440, 177, 58, 37, 34, 45]
6.2[103, 530, 440, 177, 58, 37, 34, 45]
6.2[95, 489, 373, 118, 57, 35, 34, 42]
6.22[95, 489, 373, 118, 57, 35, 34, 42]
6.22[95, 489, 373, 118, 57, 35, 34, 42]
6.22[95, 489, 373, 118, 57, 35, 34, 42]
6.22[95, 489, 373, 118, 57, 35, 34, 42]
6.22[95, 489, 373, 118, 57, 35, 34, 42]
6.22[95, 489, 373, 118, 57, 35, 34, 42]
6.22[95, 489, 373, 118, 57, 35, 34, 42]
6.22[97, 573, 395, 114, 55, 34, 32, 42]
6.24[97, 573, 395, 114, 55, 34, 32, 42]
6.24[97, 573, 395, 114, 55, 34, 32, 42]
6.24[97, 573, 395, 114, 55, 34, 32, 42]
6.24[97, 573, 395, 114, 55, 34, 32, 42]
6.24[97, 573, 395, 114, 55, 34, 32, 42]
6.24[97, 573, 395, 114, 55, 34, 32, 42]
6.24[97, 573, 395, 114, 55, 34, 32, 42]
6.24[99, 531, 492, 141, 55, 34, 31, 43]
6.26[99, 531, 492, 141, 55, 34, 31, 43]
6.26[99, 531, 492, 141, 55, 34, 31, 43]
6.26[99, 531, 492, 141, 55, 34, 31, 43]
6.26[99, 531, 492, 141, 55, 34, 31, 43]
6.26[99, 531, 492, 141, 55, 34, 31, 43]
6.26[99, 531, 492, 141, 55, 34, 31, 43]
6.26[99, 531, 492, 141, 55, 34, 31, 43]
6.26[102, 539, 529, 161, 55, 34, 31, 39]
6.28[102, 539, 529, 161, 55, 34, 31, 39]
6.28[102, 539, 529, 161, 55, 34, 31, 39]
6.28[102, 539, 529, 161, 55, 34, 31, 39]
6.28[102, 539, 529, 161, 55, 34, 31, 39]
6.28[102, 539, 529, 161, 55, 34, 31, 39]
6.28[102, 539, 529, 161, 55, 34, 31, 39]
6.28[102, 539, 529, 161, 55, 34, 31, 39]
6.28[88, 557, 526, 165, 51, 29, 28, 32]
6.3[88, 557, 526, 165, 51, 29, 28, 32]
6.3[88, 557, 526, 165, 51, 29, 28, 32]
6.3[88, 557, 526, 165, 51, 29, 28, 32]
6.3[88, 557, 526, 165, 51, 29, 28, 32]
6.3[88, 557, 526, 165, 51, 29, 28, 32]
6.3[88, 557, 526, 165, 51, 29, 28, 32]
6.3[88, 557, 526, 165, 51, 29, 28, 32]
6.3[89, 553, 559, 168, 46, 28, 25, 29]
6.32[89, 553, 559, 168, 46, 28, 25, 29]
6.32[89, 553, 559, 168, 46, 28, 25, 29]
6.32[89, 553, 559, 168, 46, 28, 25, 29]
6.32[89, 553, 559, 168, 46, 28, 25, 29]
6.32[89, 553, 559, 168, 46, 28, 25, 29]
6.32[89, 553, 559, 168, 46, 28, 25, 29]
6.32[89, 553, 559, 168, 46, 28, 25, 29]
6.32[96, 552, 565, 168, 45, 28, 22, 30]
6.34[96, 552, 565, 168, 45, 28, 22, 30]
6.34[96, 552, 565, 168, 45, 28, 22, 30]
6.34[96, 552, 565, 168, 45, 28, 22, 30]
6.34[96, 552, 565, 168, 45, 28, 22, 30]
6.34[96, 552, 565, 168, 45, 28, 22, 30]
6.34[96, 552, 565, 168, 45, 28, 22, 30]
6.34[96, 552, 565, 168, 45, 28, 22, 30]
6.34[91, 517, 492, 142, 43, 28, 23, 28]
6.36[91, 517, 492, 142, 43, 28, 23, 28]
6.36[91, 517, 492, 142, 43, 28, 23, 28]
6.36[91, 517, 492, 142, 43, 28, 23, 28]
6.36[91, 517, 492, 142, 43, 28, 23, 28]
6.36[91, 517, 492, 142, 43, 28, 23, 28]
6.36[91, 517, 492, 142, 43, 28, 23, 28]
6.36[91, 517, 492, 142, 43, 28, 23, 28]
6.36[89, 507, 507, 112, 36, 26, 24, 33]
6.38[89, 507, 507, 112, 36, 26, 24, 33]
6.38[89, 507, 507, 112, 36, 26, 24, 33]
6.38[89, 507, 507, 112, 36, 26, 24, 33]
6.38[89, 507, 507, 112, 36, 26, 24, 33]
6.38[89, 507, 507, 112, 36, 26, 24, 33]
6.38[89, 507, 507, 112, 36, 26, 24, 33]
6.38[89, 507, 507, 112, 36, 26, 24, 33]
6.38[100, 506, 612, 115, 40, 29, 25, 36]
6.4[100, 506, 612, 115, 40, 29, 25, 36]
6.4[100, 506, 612, 115, 40, 29, 25, 36]
6.4[100, 506, 612, 115, 40, 29, 25, 36]
6.4[100, 506, 612, 115, 40, 29, 25, 36]
6.4[100, 506, 612, 115, 40, 29, 25, 36]
6.4[100, 506, 612, 115, 40, 29, 25, 36]
6.4[100, 506, 612, 115, 40, 29, 25, 36]
6.4[98, 506, 611, 107, 39, 31, 25, 39]
6.42[98, 506, 611, 107, 39, 31, 25, 39]
6.42[98, 506, 611, 107, 39, 31, 25, 39]
6.42[98, 506, 611, 107, 39, 31, 25, 39]
6.42[98, 506, 611, 107, 39, 31, 25, 39]
6.42[98, 506, 611, 107, 39, 31, 25, 39]
6.42[98, 506, 611, 107, 39, 31, 25, 39]
6.42[98, 506, 611, 107, 39, 31, 25, 39]
6.42[93, 419, 606, 121, 46, 30, 28, 40]
6.44[93, 419, 606, 121, 46, 30, 28, 40]
6.44[93, 419, 606, 121, 46, 30, 28, 40]
6.44[93, 419, 606, 121, 46, 30, 28, 40]
6.44[93, 419, 606, 121, 46, 30, 28, 40]
6.44[93, 419, 606, 121, 46, 30, 28, 40]
6.44[93, 419, 606, 121, 46, 30, 28, 40]
6.44[93, 419, 606, 121, 46, 30, 28, 40]
6.44[100, 491, 593, 130, 50, 33, 30, 43]
6.46[100, 491, 593, 130, 50, 33, 30, 43]
6.46[100, 491, 593, 130, 50, 33, 30, 43]
6.46[100, 491, 593, 130, 50, 33, 30, 43]
6.46[100, 491, 593, 130, 50, 33, 30, 43]
6.46[100, 491, 593, 130, 50, 33, 30, 43]
6.46[100, 491, 593, 130, 50, 33, 30, 43]
6.46[100, 491, 593, 130, 50, 33, 30, 43]
6.46[96, 488, 553, 138, 51, 34, 40, 42]
6.48[96, 488, 553, 138, 51, 34, 40, 42]
6.48[96, 488, 553, 138, 51, 34, 40, 42]
6.48[96, 488, 553, 138, 51, 34, 40, 42]
6.48[96, 488, 553, 138, 51, 34, 40, 42]
6.48[96, 488, 553, 138, 51, 34, 40, 42]
6.48[96, 488, 553, 138, 51, 34, 40, 42]
6.48[96, 488, 553, 138, 51, 34, 40, 42]
6.48[92, 449, 515, 157, 57, 36, 46, 43]
6.5[92, 449, 515, 157, 57, 36, 46, 43]
6.5[92, 449, 515, 157, 57, 36, 46, 43]
6.5[92, 449, 515, 157, 57, 36, 46, 43]
6.5[92, 449, 515, 157, 57, 36, 46, 43]
6.5[92, 449, 515, 157, 57, 36, 46, 43]
6.5[92, 449, 515, 157, 57, 36, 46, 43]
6.5[92, 449, 515, 157, 57, 36, 46, 43]
6.5[93, 471, 521, 154, 57, 36, 45, 41]
6.52[93, 471, 521, 154, 57, 36, 45, 41]
6.52[93, 471, 521, 154, 57, 36, 45, 41]
6.52[93, 471, 521, 154, 57, 36, 45, 41]
6.52[93, 471, 521, 154, 57, 36, 45, 41]
6.52[93, 471, 521, 154, 57, 36, 45, 41]
6.52[93, 471, 521, 154, 57, 36, 45, 41]
6.52[93, 471, 521, 154, 57, 36, 45, 41]
6.52[97, 516, 504, 143, 51, 36, 46, 42]
6.54[97, 516, 504, 143, 51, 36, 46, 42]
6.54[97, 516, 504, 143, 51, 36, 46, 42]
6.54[97, 516, 504, 143, 51, 36, 46, 42]
6.54[97, 516, 504, 143, 51, 36, 46, 42]
6.54[97, 516, 504, 143, 51, 36, 46, 42]
6.54[97, 516, 504, 143, 51, 36, 46, 42]
6.54[97, 516, 504, 143, 51, 36, 46, 42]
6.54[92, 470, 508, 153, 51, 39, 47, 40]
6.56[92, 470, 508, 153, 51, 39, 47, 40]
6.56[92, 470, 508, 153, 51, 39, 47, 40]
6.56[92, 470, 508, 153, 51, 39, 47, 40]
6.56[92, 470, 508, 153, 51, 39, 47, 40]
6.56[92, 470, 508, 153, 51, 39, 47, 40]
6.56[92, 470, 508, 153, 51, 39, 47, 40]
6.56[92, 470, 508, 153, 51, 39, 47, 40]
6.56[100, 500, 521, 157, 52, 37, 39, 39]
6.58[100, 500, 521, 157, 52, 37, 39, 39]
6.58[100, 500, 521, 157, 52, 37, 39, 39]
6.58[100, 500, 521, 157, 52, 37, 39, 39]
6.58[100, 500, 521, 157, 52, 37, 39, 39]
6.58[100, 500, 521, 157, 52, 37, 39, 39]
6.58[100, 500, 521, 157, 52, 37, 39, 39]
6.58[100, 500, 521, 157, 52, 37, 39, 39]
6.58[104, 548, 428, 131, 39, 35, 34, 36]
6.6[104, 548, 428, 131, 39, 35, 34, 36]
6.6[104, 548, 428, 131, 39, 35, 34, 36]
6.6[104, 548, 428, 131, 39, 35, 34, 36]
6.6[104, 548, 428, 131, 39, 35, 34, 36]
6.6[104, 548, 428, 131, 39, 35, 34, 36]
6.6[104, 548, 428, 131, 39, 35, 34, 36]
6.6[104, 548, 428, 131, 39, 35, 34, 36]
6.6[108, 567, 434, 138, 42, 37, 35, 37]
6.62[108, 567, 434, 138, 42, 37, 35, 37]
6.62[108, 567, 434, 138, 42, 37, 35, 37]
6.62[108, 567, 434, 138, 42, 37, 35, 37]
6.62[108, 567, 434, 138, 42, 37, 35, 37]
6.62[108, 567, 434, 138, 42, 37, 35, 37]
6.62[108, 567, 434, 138, 42, 37, 35, 37]
6.62[108, 567, 434, 138, 42, 37, 35, 37]
6.62[110, 528, 439, 137, 43, 36, 33, 37]
6.64[110, 528, 439, 137, 43, 36, 33, 37]
6.64[110, 528, 439, 137, 43, 36, 33, 37]
6.64[110, 528, 439, 137, 43, 36, 33, 37]
6.64[110, 528, 439, 137, 43, 36, 33, 37]
6.64[110, 528, 439, 137, 43, 36, 33, 37]
6.64[110, 528, 439, 137, 43, 36, 33, 37]
6.64[110, 528, 439, 137, 43, 36, 33, 37]
6.64[109, 488, 467, 128, 41, 31, 28, 34]
6.66[109, 488, 467, 128, 41, 31, 28, 34]
6.66[109, 488, 467, 128, 41, 31, 28, 34]
6.66[109, 488, 467, 128, 41, 31, 28, 34]
6.66[109, 488, 467, 128, 41, 31, 28, 34]
6.66[109, 488, 467, 128, 41, 31, 28, 34]
6.66[109, 488, 467, 128, 41, 31, 28, 34]
6.66[109, 488, 467, 128, 41, 31, 28, 34]
6.66[100, 432, 465, 143, 55, 33, 28, 34]
6.68[100, 432, 465, 143, 55, 33, 28, 34]
6.68[100, 432, 465, 143, 55, 33, 28, 34]
6.68[100, 432, 465, 143, 55, 33, 28, 34]
6.68[100, 432, 465, 143, 55, 33, 28, 34]
6.68[100, 432, 465, 143, 55, 33, 28, 34]
6.68[100, 432, 465, 143, 55, 33, 28, 34]
6.68[100, 432, 465, 143, 55, 33, 28, 34]
6.68[82, 343, 466, 157, 81, 36, 26, 33]
6.7[82, 343, 466, 157, 81, 36, 26, 33]
6.7[82, 343, 466, 157, 81, 36, 26, 33]
6.7[82, 343, 466, 157, 81, 36, 26, 33]
6.7[82, 343, 466, 157, 81, 36, 26, 33]
6.7[82, 343, 466, 157, 81, 36, 26, 33]
6.7[82, 343, 466, 157, 81, 36, 26, 33]
6.7[82, 343, 466, 157, 81, 36, 26, 33]
6.7[69, 230, 409, 160, 85, 33, 28, 30]
6.72[69, 230, 409, 160, 85, 33, 28, 30]
6.72[69, 230, 409, 160, 85, 33, 28, 30]
6.72[69, 230, 409, 160, 85, 33, 28, 30]
6.72[69, 230, 409, 160, 85, 33, 28, 30]
6.72[69, 230, 409, 160, 85, 33, 28, 30]
6.72[69, 230, 409, 160, 85, 33, 28, 30]
6.72[69, 230, 409, 160, 85, 33, 28, 30]
6.72[51, 139, 409, 168, 89, 37, 27, 28]
6.74[51, 139, 409, 168, 89, 37, 27, 28]
6.74[51, 139, 409, 168, 89, 37, 27, 28]
6.74[51, 139, 409, 168, 89, 37, 27, 28]
6.74[51, 139, 409, 168, 89, 37, 27, 28]
6.74[51, 139, 409, 168, 89, 37, 27, 28]
6.74[51, 139, 409, 168, 89, 37, 27, 28]
6.74[51, 139, 409, 168, 89, 37, 27, 28]
6.74[46, 140, 413, 232, 94, 37, 26, 28]
6.76[46, 140, 413, 232, 94, 37, 26, 28]
6.76[46, 140, 413, 232, 94, 37, 26, 28]
6.76[46, 140, 413, 232, 94, 37, 26, 28]
6.76[46, 140, 413, 232, 94, 37, 26, 28]
6.76[46, 140, 413, 232, 94, 37, 26, 28]
6.76[46, 140, 413, 232, 94, 37, 26, 28]
6.76[46, 140, 413, 232, 94, 37, 26, 28]
6.76[58, 241, 386, 217, 92, 38, 27, 29]
6.78[58, 241, 386, 217, 92, 38, 27, 29]
6.78[58, 241, 386, 217, 92, 38, 27, 29]
6.78[58, 241, 386, 217, 92, 38, 27, 29]
6.78[58, 241, 386, 217, 92, 38, 27, 29]
6.78[58, 241, 386, 217, 92, 38, 27, 29]
6.78[58, 241, 386, 217, 92, 38, 27, 29]
6.78[58, 241, 386, 217, 92, 38, 27, 29]
6.78[59, 246, 373, 221, 77, 34, 27, 26]
6.8[59, 246, 373, 221, 77, 34, 27, 26]
6.8[59, 246, 373, 221, 77, 34, 27, 26]
6.8[59, 246, 373, 221, 77, 34, 27, 26]
6.8[59, 246, 373, 221, 77, 34, 27, 26]
6.8[59, 246, 373, 221, 77, 34, 27, 26]
6.8[59, 246, 373, 221, 77, 34, 27, 26]
6.8[59, 246, 373, 221, 77, 34, 27, 26]
6.8[60, 252, 377, 229, 77, 33, 23, 28]
6.82[60, 252, 377, 229, 77, 33, 23, 28]
6.82[60, 252, 377, 229, 77, 33, 23, 28]
6.82[60, 252, 377, 229, 77, 33, 23, 28]
6.82[60, 252, 377, 229, 77, 33, 23, 28]
6.82[60, 252, 377, 229, 77, 33, 23, 28]
6.82[60, 252, 377, 229, 77, 33, 23, 28]
6.82[60, 252, 377, 229, 77, 33, 23, 28]
6.82[58, 253, 363, 237, 81, 31, 28, 27]
6.84[58, 253, 363, 237, 81, 31, 28, 27]
6.84[58, 253, 363, 237, 81, 31, 28, 27]
6.84[58, 253, 363, 237, 81, 31, 28, 27]
6.84[58, 253, 363, 237, 81, 31, 28, 27]
6.84[58, 253, 363, 237, 81, 31, 28, 27]
6.84[58, 253, 363, 237, 81, 31, 28, 27]
6.84[58, 253, 363, 237, 81, 31, 28, 27]
6.84[56, 244, 283, 207, 86, 32, 29, 30]
6.86[56, 244, 283, 207, 86, 32, 29, 30]
6.86[56, 244, 283, 207, 86, 32, 29, 30]
6.86[56, 244, 283, 207, 86, 32, 29, 30]
6.86[56, 244, 283, 207, 86, 32, 29, 30]
6.86[56, 244, 283, 207, 86, 32, 29, 30]
6.86[56, 244, 283, 207, 86, 32, 29, 30]
6.86[56, 244, 283, 207, 86, 32, 29, 30]
6.86[36, 136, 332, 245, 94, 31, 28, 26]
6.88[36, 136, 332, 245, 94, 31, 28, 26]
6.88[36, 136, 332, 245, 94, 31, 28, 26]
6.88[36, 136, 332, 245, 94, 31, 28, 26]
6.88[36, 136, 332, 245, 94, 31, 28, 26]
6.88[36, 136, 332, 245, 94, 31, 28, 26]
6.88[36, 136, 332, 245, 94, 31, 28, 26]
6.88[36, 136, 332, 245, 94, 31, 28, 26]
6.88[41, 213, 376, 240, 94, 31, 29, 29]
6.9[41, 213, 376, 240, 94, 31, 29, 29]
6.9[41, 213, 376, 240, 94, 31, 29, 29]
6.9[41, 213, 376, 240, 94, 31, 29, 29]
6.9[41, 213, 376, 240, 94, 31, 29, 29]
6.9[41, 213, 376, 240, 94, 31, 29, 29]
6.9[41, 213, 376, 240, 94, 31, 29, 29]
6.9[41, 213, 376, 240, 94, 31, 29, 29]
6.9[39, 209, 377, 236, 93, 30, 29, 27]
6.92[39, 209, 377, 236, 93, 30, 29, 27]
6.92[39, 209, 377, 236, 93, 30, 29, 27]
6.92[39, 209, 377, 236, 93, 30, 29, 27]
6.92[39, 209, 377, 236, 93, 30, 29, 27]
6.92[39, 209, 377, 236, 93, 30, 29, 27]
6.92[39, 209, 377, 236, 93, 30, 29, 27]
6.92[39, 209, 377, 236, 93, 30, 29, 27]
6.92[40, 214, 366, 229, 93, 31, 24, 28]
6.94[40, 214, 366, 229, 93, 31, 24, 28]
6.94[40, 214, 366, 229, 93, 31, 24, 28]
6.94[40, 214, 366, 229, 93, 31, 24, 28]
6.94[40, 214, 366, 229, 93, 31, 24, 28]
6.94[40, 214, 366, 229, 93, 31, 24, 28]
6.94[40, 214, 366, 229, 93, 31, 24, 28]
6.94[40, 214, 366, 229, 93, 31, 24, 28]
6.94[38, 215, 361, 212, 90, 30, 24, 26]
6.96[38, 215, 361, 212, 90, 30, 24, 26]
6.96[38, 215, 361, 212, 90, 30, 24, 26]
6.96[38, 215, 361, 212, 90, 30, 24, 26]
6.96[38, 215, 361, 212, 90, 30, 24, 26]
6.96[38, 215, 361, 212, 90, 30, 24, 26]
6.96[38, 215, 361, 212, 90, 30, 24, 26]
6.96[38, 215, 361, 212, 90, 30, 24, 26]
6.96[38, 207, 283, 181, 76, 28, 24, 26]
6.98[38, 207, 283, 181, 76, 28, 24, 26]
6.98[38, 207, 283, 181, 76, 28, 24, 26]
6.98[38, 207, 283, 181, 76, 28, 24, 26]
6.98[38, 207, 283, 181, 76, 28, 24, 26]
6.98[38, 207, 283, 181, 76, 28, 24, 26]
6.98[38, 207, 283, 181, 76, 28, 24, 26]
6.98[38, 207, 283, 181, 76, 28, 24, 26]
6.98[37, 124, 233, 214, 83, 32, 23, 26]
7.0[37, 124, 233, 214, 83, 32, 23, 26]
7.0[37, 124, 233, 214, 83, 32, 23, 26]
7.0[37, 124, 233, 214, 83, 32, 23, 26]
7.0[37, 124, 233, 214, 83, 32, 23, 26]
7.0[37, 124, 233, 214, 83, 32, 23, 26]
7.0[37, 124, 233, 214, 83, 32, 23, 26]
7.0[37, 124, 233, 214, 83, 32, 23, 26]
7.0[40, 119, 244, 228, 77, 31, 22, 26]
7.02[40, 119, 244, 228, 77, 31, 22, 26]
7.02[40, 119, 244, 228, 77, 31, 22, 26]
7.02[40, 119, 244, 228, 77, 31, 22, 26]
7.02[40, 119, 244, 228, 77, 31, 22, 26]
7.02[40, 119, 244, 228, 77, 31, 22, 26]
7.02[40, 119, 244, 228, 77, 31, 22, 26]
7.02[40, 119, 244, 228, 77, 31, 22, 26]
7.02[38, 100, 235, 228, 74, 31, 23, 25]
7.04[38, 100, 235, 228, 74, 31, 23, 25]
7.04[38, 100, 235, 228, 74, 31, 23, 25]
7.04[38, 100, 235, 228, 74, 31, 23, 25]
7.04[38, 100, 235, 228, 74, 31, 23, 25]
7.04[38, 100, 235, 228, 74, 31, 23, 25]
7.04[38, 100, 235, 228, 74, 31, 23, 25]
7.04[38, 100, 235, 228, 74, 31, 23, 25]
7.04[40, 104, 213, 239, 74, 31, 27, 24]
7.06[40, 104, 213, 239, 74, 31, 27, 24]
7.06[40, 104, 213, 239, 74, 31, 27, 24]
7.06[40, 104, 213, 239, 74, 31, 27, 24]
7.06[40, 104, 213, 239, 74, 31, 27, 24]
7.06[40, 104, 213, 239, 74, 31, 27, 24]
7.06[40, 104, 213, 239, 74, 31, 27, 24]
7.06[40, 104, 213, 239, 74, 31, 27, 24]
7.06[39, 100, 274, 242, 76, 32, 26, 26]
7.08[39, 100, 274, 242, 76, 32, 26, 26]
7.08[39, 100, 274, 242, 76, 32, 26, 26]
7.08[39, 100, 274, 242, 76, 32, 26, 26]
7.08[39, 100, 274, 242, 76, 32, 26, 26]
7.08[39, 100, 274, 242, 76, 32, 26, 26]
7.08[39, 100, 274, 242, 76, 32, 26, 26]
7.08[39, 100, 274, 242, 76, 32, 26, 26]
7.08[35, 121, 295, 228, 67, 29, 26, 23]
7.1[35, 121, 295, 228, 67, 29, 26, 23]
7.1[35, 121, 295, 228, 67, 29, 26, 23]
7.1[35, 121, 295, 228, 67, 29, 26, 23]
7.1[35, 121, 295, 228, 67, 29, 26, 23]
7.1[35, 121, 295, 228, 67, 29, 26, 23]
7.1[35, 121, 295, 228, 67, 29, 26, 23]
7.1[35, 121, 295, 228, 67, 29, 26, 23]
7.1[32, 128, 425, 234, 81, 33, 29, 22]
7.12[32, 128, 425, 234, 81, 33, 29, 22]
7.12[32, 128, 425, 234, 81, 33, 29, 22]
7.12[32, 128, 425, 234, 81, 33, 29, 22]
7.12[32, 128, 425, 234, 81, 33, 29, 22]
7.12[32, 128, 425, 234, 81, 33, 29, 22]
7.12[32, 128, 425, 234, 81, 33, 29, 22]
7.12[32, 128, 425, 234, 81, 33, 29, 22]
7.12[34, 129, 458, 225, 76, 31, 30, 21]
7.14[34, 129, 458, 225, 76, 31, 30, 21]
7.14[34, 129, 458, 225, 76, 31, 30, 21]
7.14[34, 129, 458, 225, 76, 31, 30, 21]
7.14[34, 129, 458, 225, 76, 31, 30, 21]
7.14[34, 129, 458, 225, 76, 31, 30, 21]
7.14[34, 129, 458, 225, 76, 31, 30, 21]
7.14[34, 129, 458, 225, 76, 31, 30, 21]
7.14[32, 126, 464, 203, 72, 33, 24, 20]
7.16[32, 126, 464, 203, 72, 33, 24, 20]
7.16[32, 126, 464, 203, 72, 33, 24, 20]
7.16[32, 126, 464, 203, 72, 33, 24, 20]
7.16[32, 126, 464, 203, 72, 33, 24, 20]
7.16[32, 126, 464, 203, 72, 33, 24, 20]
7.16[32, 126, 464, 203, 72, 33, 24, 20]
7.16[32, 126, 464, 203, 72, 33, 24, 20]
7.16[34, 129, 436, 203, 67, 33, 23, 18]
7.18[34, 129, 436, 203, 67, 33, 23, 18]
7.18[34, 129, 436, 203, 67, 33, 23, 18]
7.18[34, 129, 436, 203, 67, 33, 23, 18]
7.18[34, 129, 436, 203, 67, 33, 23, 18]
7.18[34, 129, 436, 203, 67, 33, 23, 18]
7.18[34, 129, 436, 203, 67, 33, 23, 18]
7.18[34, 129, 436, 203, 67, 33, 23, 18]
7.18[33, 109, 472, 228, 71, 32, 25, 19]
7.2[33, 109, 472, 228, 71, 32, 25, 19]
7.2[33, 109, 472, 228, 71, 32, 25, 19]
7.2[33, 109, 472, 228, 71, 32, 25, 19]
7.2[33, 109, 472, 228, 71, 32, 25, 19]
7.2[33, 109, 472, 228, 71, 32, 25, 19]
7.2[33, 109, 472, 228, 71, 32, 25, 19]
7.2[33, 109, 472, 228, 71, 32, 25, 19]
7.2[40, 176, 381, 257, 77, 32, 23, 21]
7.22[40, 176, 381, 257, 77, 32, 23, 21]
7.22[40, 176, 381, 257, 77, 32, 23, 21]
7.22[40, 176, 381, 257, 77, 32, 23, 21]
7.22[40, 176, 381, 257, 77, 32, 23, 21]
7.22[40, 176, 381, 257, 77, 32, 23, 21]
7.22[40, 176, 381, 257, 77, 32, 23, 21]
7.22[40, 176, 381, 257, 77, 32, 23, 21]
7.22[48, 255, 356, 260, 75, 32, 21, 23]
7.24[48, 255, 356, 260, 75, 32, 21, 23]
7.24[48, 255, 356, 260, 75, 32, 21, 23]
7.24[48, 255, 356, 260, 75, 32, 21, 23]
7.24[48, 255, 356, 260, 75, 32, 21, 23]
7.24[48, 255, 356, 260, 75, 32, 21, 23]
7.24[48, 255, 356, 260, 75, 32, 21, 23]
7.24[48, 255, 356, 260, 75, 32, 21, 23]
7.24[48, 266, 352, 254, 72, 27, 23, 25]
7.26[48, 266, 352, 254, 72, 27, 23, 25]
7.26[48, 266, 352, 254, 72, 27, 23, 25]
7.26[48, 266, 352, 254, 72, 27, 23, 25]
7.26[48, 266, 352, 254, 72, 27, 23, 25]
7.26[48, 266, 352, 254, 72, 27, 23, 25]
7.26[48, 266, 352, 254, 72, 27, 23, 25]
7.26[48, 266, 352, 254, 72, 27, 23, 25]
7.26[48, 267, 363, 253, 72, 28, 23, 25]
7.28[48, 267, 363, 253, 72, 28, 23, 25]
7.28[48, 267, 363, 253, 72, 28, 23, 25]
7.28[48, 267, 363, 253, 72, 28, 23, 25]
7.28[48, 267, 363, 253, 72, 28, 23, 25]
7.28[48, 267, 363, 253, 72, 28, 23, 25]
7.28[48, 267, 363, 253, 72, 28, 23, 25]
7.28[48, 267, 363, 253, 72, 28, 23, 25]
7.28[47, 288, 339, 266, 71, 31, 23, 27]
7.3[47, 288, 339, 266, 71, 31, 23, 27]
7.3[47, 288, 339, 266, 71, 31, 23, 27]
7.3[47, 288, 339, 266, 71, 31, 23, 27]
7.3[47, 288, 339, 266, 71, 31, 23, 27]
7.3[47, 288, 339, 266, 71, 31, 23, 27]
7.3[47, 288, 339, 266, 71, 31, 23, 27]
7.3[47, 288, 339, 266, 71, 31, 23, 27]
7.3[47, 258, 295, 221, 51, 31, 22, 26]
7.32[47, 258, 295, 221, 51, 31, 22, 26]
7.32[47, 258, 295, 221, 51, 31, 22, 26]
7.32[47, 258, 295, 221, 51, 31, 22, 26]
7.32[47, 258, 295, 221, 51, 31, 22, 26]
7.32[47, 258, 295, 221, 51, 31, 22, 26]
7.32[47, 258, 295, 221, 51, 31, 22, 26]
7.32[47, 258, 295, 221, 51, 31, 22, 26]
7.32[38, 189, 303, 239, 54, 32, 21, 24]
7.34[38, 189, 303, 239, 54, 32, 21, 24]
7.34[38, 189, 303, 239, 54, 32, 21, 24]
7.34[38, 189, 303, 239, 54, 32, 21, 24]
7.34[38, 189, 303, 239, 54, 32, 21, 24]
7.34[38, 189, 303, 239, 54, 32, 21, 24]
7.34[38, 189, 303, 239, 54, 32, 21, 24]
7.34[38, 189, 303, 239, 54, 32, 21, 24]
7.34[38, 169, 408, 246, 56, 33, 19, 23]
7.36[38, 169, 408, 246, 56, 33, 19, 23]
7.36[38, 169, 408, 246, 56, 33, 19, 23]
7.36[38, 169, 408, 246, 56, 33, 19, 23]
7.36[38, 169, 408, 246, 56, 33, 19, 23]
7.36[38, 169, 408, 246, 56, 33, 19, 23]
7.36[38, 169, 408, 246, 56, 33, 19, 23]
7.36[38, 169, 408, 246, 56, 33, 19, 23]
7.36[37, 168, 435, 248, 59, 34, 22, 24]
7.38[37, 168, 435, 248, 59, 34, 22, 24]
7.38[37, 168, 435, 248, 59, 34, 22, 24]
7.38[37, 168, 435, 248, 59, 34, 22, 24]
7.38[37, 168, 435, 248, 59, 34, 22, 24]
7.38[37, 168, 435, 248, 59, 34, 22, 24]
7.38[37, 168, 435, 248, 59, 34, 22, 24]
7.38[37, 168, 435, 248, 59, 34, 22, 24]
7.38[39, 123, 412, 219, 58, 32, 22, 22]
7.4[39, 123, 412, 219, 58, 32, 22, 22]
7.4[39, 123, 412, 219, 58, 32, 22, 22]
7.4[39, 123, 412, 219, 58, 32, 22, 22]
7.4[39, 123, 412, 219, 58, 32, 22, 22]
7.4[39, 123, 412, 219, 58, 32, 22, 22]
7.4[39, 123, 412, 219, 58, 32, 22, 22]
7.4[39, 123, 412, 219, 58, 32, 22, 22]
7.4[33, 99, 425, 214, 55, 29, 20, 21]
7.42[33, 99, 425, 214, 55, 29, 20, 21]
7.42[33, 99, 425, 214, 55, 29, 20, 21]
7.42[33, 99, 425, 214, 55, 29, 20, 21]
7.42[33, 99, 425, 214, 55, 29, 20, 21]
7.42[33, 99, 425, 214, 55, 29, 20, 21]
7.42[33, 99, 425, 214, 55, 29, 20, 21]
7.42[33, 99, 425, 214, 55, 29, 20, 21]
7.42[35, 85, 426, 191, 52, 27, 24, 25]
7.44[35, 85, 426, 191, 52, 27, 24, 25]
7.44[35, 85, 426, 191, 52, 27, 24, 25]
7.44[35, 85, 426, 191, 52, 27, 24, 25]
7.44[35, 85, 426, 191, 52, 27, 24, 25]
7.44[35, 85, 426, 191, 52, 27, 24, 25]
7.44[35, 85, 426, 191, 52, 27, 24, 25]
7.44[35, 85, 426, 191, 52, 27, 24, 25]
7.44[34, 92, 388, 183, 55, 30, 24, 25]
7.46[34, 92, 388, 183, 55, 30, 24, 25]
7.46[34, 92, 388, 183, 55, 30, 24, 25]
7.46[34, 92, 388, 183, 55, 30, 24, 25]
7.46[34, 92, 388, 183, 55, 30, 24, 25]
7.46[34, 92, 388, 183, 55, 30, 24, 25]
7.46[34, 92, 388, 183, 55, 30, 24, 25]
7.46[34, 92, 388, 183, 55, 30, 24, 25]
7.46[34, 82, 360, 188, 59, 30, 22, 24]
7.48[34, 82, 360, 188, 59, 30, 22, 24]
7.48[34, 82, 360, 188, 59, 30, 22, 24]
7.48[34, 82, 360, 188, 59, 30, 22, 24]
7.48[34, 82, 360, 188, 59, 30, 22, 24]
7.48[34, 82, 360, 188, 59, 30, 22, 24]
7.48[34, 82, 360, 188, 59, 30, 22, 24]
7.48[34, 82, 360, 188, 59, 30, 22, 24]
7.48[34, 98, 425, 160, 57, 28, 22, 23]
7.5[34, 98, 425, 160, 57, 28, 22, 23]
7.5[34, 98, 425, 160, 57, 28, 22, 23]
7.5[34, 98, 425, 160, 57, 28, 22, 23]
7.5[34, 98, 425, 160, 57, 28, 22, 23]
7.5[34, 98, 425, 160, 57, 28, 22, 23]
7.5[34, 98, 425, 160, 57, 28, 22, 23]
7.5[34, 98, 425, 160, 57, 28, 22, 23]
7.5[34, 109, 437, 163, 60, 30, 23, 24]
7.52[34, 109, 437, 163, 60, 30, 23, 24]
7.52[34, 109, 437, 163, 60, 30, 23, 24]
7.52[34, 109, 437, 163, 60, 30, 23, 24]
7.52[34, 109, 437, 163, 60, 30, 23, 24]
7.52[34, 109, 437, 163, 60, 30, 23, 24]
7.52[34, 109, 437, 163, 60, 30, 23, 24]
7.52[34, 109, 437, 163, 60, 30, 23, 24]
7.52[34, 118, 425, 173, 59, 30, 23, 22]
7.54[34, 118, 425, 173, 59, 30, 23, 22]
7.54[34, 118, 425, 173, 59, 30, 23, 22]
7.54[34, 118, 425, 173, 59, 30, 23, 22]
7.54[34, 118, 425, 173, 59, 30, 23, 22]
7.54[34, 118, 425, 173, 59, 30, 23, 22]
7.54[34, 118, 425, 173, 59, 30, 23, 22]
7.54[34, 118, 425, 173, 59, 30, 23, 22]
7.54[34, 116, 420, 185, 62, 27, 23, 21]
7.56[34, 116, 420, 185, 62, 27, 23, 21]
7.56[34, 116, 420, 185, 62, 27, 23, 21]
7.56[34, 116, 420, 185, 62, 27, 23, 21]
7.56[34, 116, 420, 185, 62, 27, 23, 21]
7.56[34, 116, 420, 185, 62, 27, 23, 21]
7.56[34, 116, 420, 185, 62, 27, 23, 21]
7.56[34, 116, 420, 185, 62, 27, 23, 21]
7.56[35, 120, 436, 176, 65, 25, 22, 22]
7.58[35, 120, 436, 176, 65, 25, 22, 22]
7.58[35, 120, 436, 176, 65, 25, 22, 22]
7.58[35, 120, 436, 176, 65, 25, 22, 22]
7.58[35, 120, 436, 176, 65, 25, 22, 22]
7.58[35, 120, 436, 176, 65, 25, 22, 22]
7.58[35, 120, 436, 176, 65, 25, 22, 22]
7.58[35, 120, 436, 176, 65, 25, 22, 22]
7.58[33, 125, 385, 194, 76, 27, 23, 22]
7.6[33, 125, 385, 194, 76, 27, 23, 22]
7.6[33, 125, 385, 194, 76, 27, 23, 22]
7.6[33, 125, 385, 194, 76, 27, 23, 22]
7.6[33, 125, 385, 194, 76, 27, 23, 22]
7.6[33, 125, 385, 194, 76, 27, 23, 22]
7.6[33, 125, 385, 194, 76, 27, 23, 22]
7.6[33, 125, 385, 194, 76, 27, 23, 22]
7.6[33, 155, 407, 190, 76, 26, 23, 22]
7.62[33, 155, 407, 190, 76, 26, 23, 22]
7.62[33, 155, 407, 190, 76, 26, 23, 22]
7.62[33, 155, 407, 190, 76, 26, 23, 22]
7.62[33, 155, 407, 190, 76, 26, 23, 22]
7.62[33, 155, 407, 190, 76, 26, 23, 22]
7.62[33, 155, 407, 190, 76, 26, 23, 22]
7.62[33, 155, 407, 190, 76, 26, 23, 22]
7.62[33, 156, 408, 197, 80, 29, 20, 22]
7.64[33, 156, 408, 197, 80, 29, 20, 22]
7.64[33, 156, 408, 197, 80, 29, 20, 22]
7.64[33, 156, 408, 197, 80, 29, 20, 22]
7.64[33, 156, 408, 197, 80, 29, 20, 22]
7.64[33, 156, 408, 197, 80, 29, 20, 22]
7.64[33, 156, 408, 197, 80, 29, 20, 22]
7.64[33, 156, 408, 197, 80, 29, 20, 22]
7.64[33, 164, 360, 201, 74, 28, 20, 22]
7.66[33, 164, 360, 201, 74, 28, 20, 22]
7.66[33, 164, 360, 201, 74, 28, 20, 22]
7.66[33, 164, 360, 201, 74, 28, 20, 22]
7.66[33, 164, 360, 201, 74, 28, 20, 22]
7.66[33, 164, 360, 201, 74, 28, 20, 22]
7.66[33, 164, 360, 201, 74, 28, 20, 22]
7.66[33, 164, 360, 201, 74, 28, 20, 22]
7.66[34, 164, 376, 198, 74, 31, 22, 22]
7.68[34, 164, 376, 198, 74, 31, 22, 22]
7.68[34, 164, 376, 198, 74, 31, 22, 22]
7.68[34, 164, 376, 198, 74, 31, 22, 22]
7.68[34, 164, 376, 198, 74, 31, 22, 22]
7.68[34, 164, 376, 198, 74, 31, 22, 22]
7.68[34, 164, 376, 198, 74, 31, 22, 22]
7.68[34, 164, 376, 198, 74, 31, 22, 22]
7.68[35, 158, 391, 181, 60, 32, 21, 24]
7.7[35, 158, 391, 181, 60, 32, 21, 24]
7.7[35, 158, 391, 181, 60, 32, 21, 24]
7.7[35, 158, 391, 181, 60, 32, 21, 24]
7.7[35, 158, 391, 181, 60, 32, 21, 24]
7.7[35, 158, 391, 181, 60, 32, 21, 24]
7.7[35, 158, 391, 181, 60, 32, 21, 24]
7.7[35, 158, 391, 181, 60, 32, 21, 24]
7.7[32, 129, 353, 211, 66, 33, 20, 23]
7.72[32, 129, 353, 211, 66, 33, 20, 23]
7.72[32, 129, 353, 211, 66, 33, 20, 23]
7.72[32, 129, 353, 211, 66, 33, 20, 23]
7.72[32, 129, 353, 211, 66, 33, 20, 23]
7.72[32, 129, 353, 211, 66, 33, 20, 23]
7.72[32, 129, 353, 211, 66, 33, 20, 23]
7.72[32, 129, 353, 211, 66, 33, 20, 23]
7.72[34, 150, 383, 250, 70, 31, 22, 23]
7.74[34, 150, 383, 250, 70, 31, 22, 23]
7.74[34, 150, 383, 250, 70, 31, 22, 23]
7.74[34, 150, 383, 250, 70, 31, 22, 23]
7.74[34, 150, 383, 250, 70, 31, 22, 23]
7.74[34, 150, 383, 250, 70, 31, 22, 23]
7.74[34, 150, 383, 250, 70, 31, 22, 23]
7.74[34, 150, 383, 250, 70, 31, 22, 23]
7.74[33, 145, 411, 248, 72, 33, 22, 23]
7.76[33, 145, 411, 248, 72, 33, 22, 23]
7.76[33, 145, 411, 248, 72, 33, 22, 23]
7.76[33, 145, 411, 248, 72, 33, 22, 23]
7.76[33, 145, 411, 248, 72, 33, 22, 23]
7.76[33, 145, 411, 248, 72, 33, 22, 23]
7.76[33, 145, 411, 248, 72, 33, 22, 23]
7.76[33, 145, 411, 248, 72, 33, 22, 23]
7.76[33, 147, 426, 252, 65, 32, 22, 23]
7.78[33, 147, 426, 252, 65, 32, 22, 23]
7.78[33, 147, 426, 252, 65, 32, 22, 23]
7.78[33, 147, 426, 252, 65, 32, 22, 23]
7.78[33, 147, 426, 252, 65, 32, 22, 23]
7.78[33, 147, 426, 252, 65, 32, 22, 23]
7.78[33, 147, 426, 252, 65, 32, 22, 23]
7.78[33, 147, 426, 252, 65, 32, 22, 23]
7.78[32, 132, 415, 251, 68, 33, 24, 21]
7.8[32, 132, 415, 251, 68, 33, 24, 21]
7.8[32, 132, 415, 251, 68, 33, 24, 21]
7.8[32, 132, 415, 251, 68, 33, 24, 21]
7.8[32, 132, 415, 251, 68, 33, 24, 21]
7.8[32, 132, 415, 251, 68, 33, 24, 21]
7.8[32, 132, 415, 251, 68, 33, 24, 21]
7.8[32, 132, 415, 251, 68, 33, 24, 21]
7.8[33, 127, 400, 223, 60, 31, 25, 23]
7.82[33, 127, 400, 223, 60, 31, 25, 23]
7.82[33, 127, 400, 223, 60, 31, 25, 23]
7.82[33, 127, 400, 223, 60, 31, 25, 23]
7.82[33, 127, 400, 223, 60, 31, 25, 23]
7.82[33, 127, 400, 223, 60, 31, 25, 23]
7.82[33, 127, 400, 223, 60, 31, 25, 23]
7.82[33, 127, 400, 223, 60, 31, 25, 23]
7.82[30, 87, 439, 181, 55, 33, 24, 23]
7.84[30, 87, 439, 181, 55, 33, 24, 23]
7.84[30, 87, 439, 181, 55, 33, 24, 23]
7.84[30, 87, 439, 181, 55, 33, 24, 23]
7.84[30, 87, 439, 181, 55, 33, 24, 23]
7.84[30, 87, 439, 181, 55, 33, 24, 23]
7.84[30, 87, 439, 181, 55, 33, 24, 23]
7.84[30, 87, 439, 181, 55, 33, 24, 23]
7.84[36, 109, 419, 183, 57, 29, 24, 25]
7.86[36, 109, 419, 183, 57, 29, 24, 25]
7.86[36, 109, 419, 183, 57, 29, 24, 25]
7.86[36, 109, 419, 183, 57, 29, 24, 25]
7.86[36, 109, 419, 183, 57, 29, 24, 25]
7.86[36, 109, 419, 183, 57, 29, 24, 25]
7.86[36, 109, 419, 183, 57, 29, 24, 25]
7.86[36, 109, 419, 183, 57, 29, 24, 25]
7.86[35, 120, 353, 193, 64, 26, 23, 24]
7.88[35, 120, 353, 193, 64, 26, 23, 24]
7.88[35, 120, 353, 193, 64, 26, 23, 24]
7.88[35, 120, 353, 193, 64, 26, 23, 24]
7.88[35, 120, 353, 193, 64, 26, 23, 24]
7.88[35, 120, 353, 193, 64, 26, 23, 24]
7.88[35, 120, 353, 193, 64, 26, 23, 24]
7.88[35, 120, 353, 193, 64, 26, 23, 24]
7.88[34, 132, 444, 246, 75, 27, 25, 25]
7.9[34, 132, 444, 246, 75, 27, 25, 25]
7.9[34, 132, 444, 246, 75, 27, 25, 25]
7.9[34, 132, 444, 246, 75, 27, 25, 25]
7.9[34, 132, 444, 246, 75, 27, 25, 25]
