[41, 59, 300, 115, 40, 24, 26, 50]
1.48[41, 59, 300, 115, 40, 24, 26, 50]
1.48[41, 59, 300, 115, 40, 24, 26, 50]
1.48[41, 59, 300, 115, 40, 24, 26, 50]
1.48[41, 59, 300, 115, 40, 24, 26, 50]
1.48[41, 59, 300, 115, 40, 24, 26, 50]
1.48[41, 59, 300, 115, 40, 24, 26, 50]
1.48[41, 59, 300, 115, 40, 24, 26, 50]
1.48[53, 77, 305, 135, 51, 26, 27, 28]
1.5[53, 77, 305, 135, 51, 26, 27, 28]
1.5[53, 77, 305, 135, 51, 26, 27, 28]
1.5[53, 77, 305, 135, 51, 26, 27, 28]
1.5[53, 77, 305, 135, 51, 26, 27, 28]
1.5[53, 77, 305, 135, 51, 26, 27, 28]
1.5[53, 77, 305, 135, 51, 26, 27, 28]
1.5[53, 77, 305, 135, 51, 26, 27, 28]
1.5[57, 86, 323, 138, 50, 27, 26, 27]
1.53[57, 86, 323, 138, 50, 27, 26, 27]
1.53[57, 86, 323, 138, 50, 27, 26, 27]
1.53[57, 86, 323, 138, 50, 27, 26, 27]
1.53[57, 86, 323, 138, 50, 27, 26, 27]
1.53[57, 86, 323, 138, 50, 27, 26, 27]
1.53[57, 86, 323, 138, 50, 27, 26, 27]
1.53[57, 86, 323, 138, 50, 27, 26, 27]
1.53[55, 81, 298, 140, 51, 26, 28, 25]
1.55[55, 81, 298, 140, 51, 26, 28, 25]
1.55[55, 81, 298, 140, 51, 26, 28, 25]
1.55[55, 81, 298, 140, 51, 26, 28, 25]
1.55[55, 81, 298, 140, 51, 26, 28, 25]
1.55[55, 81, 298, 140, 51, 26, 28, 25]
1.55[55, 81, 298, 140, 51, 26, 28, 25]
1.55[55, 81, 298, 140, 51, 26, 28, 25]
1.55[60, 96, 360, 134, 53, 29, 32, 30]
1.56[60, 96, 360, 134, 53, 29, 32, 30]
1.56[60, 96, 360, 134, 53, 29, 32, 30]
1.56[60, 96, 360, 134, 53, 29, 32, 30]
1.56[60, 96, 360, 134, 53, 29, 32, 30]
1.56[60, 96, 360, 134, 53, 29, 32, 30]
1.56[60, 96, 360, 134, 53, 29, 32, 30]
1.56[60, 96, 360, 134, 53, 29, 32, 30]
1.56[59, 99, 314, 133, 55, 28, 28, 30]
1.59[59, 99, 314, 133, 55, 28, 28, 30]
1.59[59, 99, 314, 133, 55, 28, 28, 30]
1.59[59, 99, 314, 133, 55, 28, 28, 30]
1.59[59, 99, 314, 133, 55, 28, 28, 30]
1.59[59, 99, 314, 133, 55, 28, 28, 30]
1.59[59, 99, 314, 133, 55, 28, 28, 30]
1.59[59, 99, 314, 133, 55, 28, 28, 30]
1.59[50, 95, 314, 131, 48, 29, 28, 30]
1.6[50, 95, 314, 131, 48, 29, 28, 30]
1.6[50, 95, 314, 131, 48, 29, 28, 30]
1.6[50, 95, 314, 131, 48, 29, 28, 30]
1.6[50, 95, 314, 131, 48, 29, 28, 30]
1.6[50, 95, 314, 131, 48, 29, 28, 30]
1.6[50, 95, 314, 131, 48, 29, 28, 30]
1.6[50, 95, 314, 131, 48, 29, 28, 30]
1.6[49, 89, 288, 129, 49, 29, 29, 31]
1.62[49, 89, 288, 129, 49, 29, 29, 31]
1.62[49, 89, 288, 129, 49, 29, 29, 31]
1.62[49, 89, 288, 129, 49, 29, 29, 31]
1.62[49, 89, 288, 129, 49, 29, 29, 31]
1.62[49, 89, 288, 129, 49, 29, 29, 31]
1.62[49, 89, 288, 129, 49, 29, 29, 31]
1.62[49, 89, 288, 129, 49, 29, 29, 31]
1.62[48, 89, 308, 131, 47, 29, 28, 30]
1.65[48, 89, 308, 131, 47, 29, 28, 30]
1.65[48, 89, 308, 131, 47, 29, 28, 30]
1.65[48, 89, 308, 131, 47, 29, 28, 30]
1.65[48, 89, 308, 131, 47, 29, 28, 30]
1.65[48, 89, 308, 131, 47, 29, 28, 30]
1.65[48, 89, 308, 131, 47, 29, 28, 30]
1.65[48, 89, 308, 131, 47, 29, 28, 30]
1.65[43, 74, 222, 129, 42, 27, 24, 26]
1.66[43, 74, 222, 129, 42, 27, 24, 26]
1.66[43, 74, 222, 129, 42, 27, 24, 26]
1.66[43, 74, 222, 129, 42, 27, 24, 26]
1.66[43, 74, 222, 129, 42, 27, 24, 26]
1.66[43, 74, 222, 129, 42, 27, 24, 26]
1.66[43, 74, 222, 129, 42, 27, 24, 26]
1.66[43, 74, 222, 129, 42, 27, 24, 26]
1.66[42, 84, 283, 124, 37, 30, 27, 27]
1.68[42, 84, 283, 124, 37, 30, 27, 27]
1.68[42, 84, 283, 124, 37, 30, 27, 27]
1.68[42, 84, 283, 124, 37, 30, 27, 27]
1.68[42, 84, 283, 124, 37, 30, 27, 27]
1.68[42, 84, 283, 124, 37, 30, 27, 27]
1.68[42, 84, 283, 124, 37, 30, 27, 27]
1.68[42, 84, 283, 124, 37, 30, 27, 27]
1.68[41, 75, 279, 120, 42, 29, 26, 26]
1.71[41, 75, 279, 120, 42, 29, 26, 26]
1.71[41, 75, 279, 120, 42, 29, 26, 26]
1.71[41, 75, 279, 120, 42, 29, 26, 26]
1.71[41, 75, 279, 120, 42, 29, 26, 26]
1.71[41, 75, 279, 120, 42, 29, 26, 26]
1.71[41, 75, 279, 120, 42, 29, 26, 26]
1.71[41, 75, 279, 120, 42, 29, 26, 26]
1.71[34, 76, 280, 126, 44, 30, 25, 25]
1.72[34, 76, 280, 126, 44, 30, 25, 25]
1.72[34, 76, 280, 126, 44, 30, 25, 25]
1.72[34, 76, 280, 126, 44, 30, 25, 25]
1.72[34, 76, 280, 126, 44, 30, 25, 25]
1.72[34, 76, 280, 126, 44, 30, 25, 25]
1.72[34, 76, 280, 126, 44, 30, 25, 25]
1.72[34, 76, 280, 126, 44, 30, 25, 25]
1.72[39, 78, 244, 124, 43, 30, 23, 25]
1.74[39, 78, 244, 124, 43, 30, 23, 25]
1.74[39, 78, 244, 124, 43, 30, 23, 25]
1.74[39, 78, 244, 124, 43, 30, 23, 25]
1.74[39, 78, 244, 124, 43, 30, 23, 25]
1.74[39, 78, 244, 124, 43, 30, 23, 25]
1.74[39, 78, 244, 124, 43, 30, 23, 25]
1.74[39, 78, 244, 124, 43, 30, 23, 25]
1.74[38, 80, 264, 126, 47, 31, 24, 24]
1.77[38, 80, 264, 126, 47, 31, 24, 24]
1.77[38, 80, 264, 126, 47, 31, 24, 24]
1.77[38, 80, 264, 126, 47, 31, 24, 24]
1.77[38, 80, 264, 126, 47, 31, 24, 24]
1.77[38, 80, 264, 126, 47, 31, 24, 24]
1.77[38, 80, 264, 126, 47, 31, 24, 24]
1.77[38, 80, 264, 126, 47, 31, 24, 24]
1.77[38, 67, 227, 117, 45, 28, 20, 21]
1.78[38, 67, 227, 117, 45, 28, 20, 21]
1.78[38, 67, 227, 117, 45, 28, 20, 21]
1.78[38, 67, 227, 117, 45, 28, 20, 21]
1.78[38, 67, 227, 117, 45, 28, 20, 21]
1.78[38, 67, 227, 117, 45, 28, 20, 21]
1.78[38, 67, 227, 117, 45, 28, 20, 21]
1.78[38, 67, 227, 117, 45, 28, 20, 21]
1.78[40, 74, 258, 105, 42, 27, 18, 22]
1.8[40, 74, 258, 105, 42, 27, 18, 22]
1.8[40, 74, 258, 105, 42, 27, 18, 22]
1.8[40, 74, 258, 105, 42, 27, 18, 22]
1.8[40, 74, 258, 105, 42, 27, 18, 22]
1.8[40, 74, 258, 105, 42, 27, 18, 22]
1.8[40, 74, 258, 105, 42, 27, 18, 22]
1.8[40, 74, 258, 105, 42, 27, 18, 22]
1.8[41, 76, 257, 102, 43, 28, 18, 21]
1.83[41, 76, 257, 102, 43, 28, 18, 21]
1.83[41, 76, 257, 102, 43, 28, 18, 21]
1.83[41, 76, 257, 102, 43, 28, 18, 21]
1.83[41, 76, 257, 102, 43, 28, 18, 21]
1.83[41, 76, 257, 102, 43, 28, 18, 21]
1.83[41, 76, 257, 102, 43, 28, 18, 21]
1.83[41, 76, 257, 102, 43, 28, 18, 21]
1.83[38, 71, 282, 98, 41, 29, 19, 23]
1.84[38, 71, 282, 98, 41, 29, 19, 23]
1.84[38, 71, 282, 98, 41, 29, 19, 23]
1.84[38, 71, 282, 98, 41, 29, 19, 23]
1.84[38, 71, 282, 98, 41, 29, 19, 23]
1.84[38, 71, 282, 98, 41, 29, 19, 23]
1.84[38, 71, 282, 98, 41, 29, 19, 23]
1.84[38, 71, 282, 98, 41, 29, 19, 23]
1.84[42, 76, 260, 114, 42, 28, 21, 23]
1.86[42, 76, 260, 114, 42, 28, 21, 23]
1.86[42, 76, 260, 114, 42, 28, 21, 23]
1.86[42, 76, 260, 114, 42, 28, 21, 23]
1.86[42, 76, 260, 114, 42, 28, 21, 23]
1.86[42, 76, 260, 114, 42, 28, 21, 23]
1.86[42, 76, 260, 114, 42, 28, 21, 23]
1.86[42, 76, 260, 114, 42, 28, 21, 23]
1.86[41, 75, 264, 128, 44, 30, 23, 26]
1.89[41, 75, 264, 128, 44, 30, 23, 26]
1.89[41, 75, 264, 128, 44, 30, 23, 26]
1.89[41, 75, 264, 128, 44, 30, 23, 26]
1.89[41, 75, 264, 128, 44, 30, 23, 26]
1.89[41, 75, 264, 128, 44, 30, 23, 26]
1.89[41, 75, 264, 128, 44, 30, 23, 26]
1.89[41, 75, 264, 128, 44, 30, 23, 26]
1.89[41, 66, 231, 134, 42, 31, 23, 27]
1.9[41, 66, 231, 134, 42, 31, 23, 27]
1.9[41, 66, 231, 134, 42, 31, 23, 27]
1.9[41, 66, 231, 134, 42, 31, 23, 27]
1.9[41, 66, 231, 134, 42, 31, 23, 27]
1.9[41, 66, 231, 134, 42, 31, 23, 27]
1.9[41, 66, 231, 134, 42, 31, 23, 27]
1.9[41, 66, 231, 134, 42, 31, 23, 27]
1.9[39, 61, 257, 138, 36, 28, 25, 27]
1.92[39, 61, 257, 138, 36, 28, 25, 27]
1.92[39, 61, 257, 138, 36, 28, 25, 27]
1.92[39, 61, 257, 138, 36, 28, 25, 27]
1.92[39, 61, 257, 138, 36, 28, 25, 27]
1.92[39, 61, 257, 138, 36, 28, 25, 27]
1.92[39, 61, 257, 138, 36, 28, 25, 27]
1.92[39, 61, 257, 138, 36, 28, 25, 27]
1.92[38, 59, 223, 140, 36, 29, 25, 26]
1.95[38, 59, 223, 140, 36, 29, 25, 26]
1.95[38, 59, 223, 140, 36, 29, 25, 26]
1.95[38, 59, 223, 140, 36, 29, 25, 26]
1.95[38, 59, 223, 140, 36, 29, 25, 26]
1.95[38, 59, 223, 140, 36, 29, 25, 26]
1.95[38, 59, 223, 140, 36, 29, 25, 26]
1.95[38, 59, 223, 140, 36, 29, 25, 26]
1.95[33, 58, 225, 124, 32, 30, 23, 25]
1.97[33, 58, 225, 124, 32, 30, 23, 25]
1.97[33, 58, 225, 124, 32, 30, 23, 25]
1.97[33, 58, 225, 124, 32, 30, 23, 25]
1.97[33, 58, 225, 124, 32, 30, 23, 25]
1.97[33, 58, 225, 124, 32, 30, 23, 25]
1.97[33, 58, 225, 124, 32, 30, 23, 25]
1.97[33, 58, 225, 124, 32, 30, 23, 25]
1.97[37, 74, 235, 121, 31, 27, 22, 22]
1.98[37, 74, 235, 121, 31, 27, 22, 22]
1.98[37, 74, 235, 121, 31, 27, 22, 22]
1.98[37, 74, 235, 121, 31, 27, 22, 22]
1.98[37, 74, 235, 121, 31, 27, 22, 22]
1.98[37, 74, 235, 121, 31, 27, 22, 22]
1.98[37, 74, 235, 121, 31, 27, 22, 22]
1.98[37, 74, 235, 121, 31, 27, 22, 22]
1.98[36, 75, 253, 120, 35, 27, 21, 23]
2.01[36, 75, 253, 120, 35, 27, 21, 23]
2.01[36, 75, 253, 120, 35, 27, 21, 23]
2.01[36, 75, 253, 120, 35, 27, 21, 23]
2.01[36, 75, 253, 120, 35, 27, 21, 23]
2.01[36, 75, 253, 120, 35, 27, 21, 23]
2.01[36, 75, 253, 120, 35, 27, 21, 23]
2.01[36, 75, 253, 120, 35, 27, 21, 23]
2.01[36, 78, 241, 109, 39, 30, 22, 25]
2.03[36, 78, 241, 109, 39, 30, 22, 25]
2.03[36, 78, 241, 109, 39, 30, 22, 25]
2.03[36, 78, 241, 109, 39, 30, 22, 25]
2.03[36, 78, 241, 109, 39, 30, 22, 25]
2.03[36, 78, 241, 109, 39, 30, 22, 25]
2.03[36, 78, 241, 109, 39, 30, 22, 25]
2.03[36, 78, 241, 109, 39, 30, 22, 25]
2.03[36, 84, 251, 107, 38, 27, 23, 24]
2.04[36, 84, 251, 107, 38, 27, 23, 24]
2.04[36, 84, 251, 107, 38, 27, 23, 24]
2.04[36, 84, 251, 107, 38, 27, 23, 24]
2.04[36, 84, 251, 107, 38, 27, 23, 24]
2.04[36, 84, 251, 107, 38, 27, 23, 24]
2.04[36, 84, 251, 107, 38, 27, 23, 24]
2.04[36, 84, 251, 107, 38, 27, 23, 24]
2.04[36, 82, 251, 101, 37, 25, 22, 24]
2.07[36, 82, 251, 101, 37, 25, 22, 24]
2.07[36, 82, 251, 101, 37, 25, 22, 24]
2.07[36, 82, 251, 101, 37, 25, 22, 24]
2.07[36, 82, 251, 101, 37, 25, 22, 24]
2.07[36, 82, 251, 101, 37, 25, 22, 24]
2.07[36, 82, 251, 101, 37, 25, 22, 24]
2.07[36, 82, 251, 101, 37, 25, 22, 24]
2.07[39, 71, 223, 88, 42, 29, 24, 23]
2.09[39, 71, 223, 88, 42, 29, 24, 23]
2.09[39, 71, 223, 88, 42, 29, 24, 23]
2.09[39, 71, 223, 88, 42, 29, 24, 23]
2.09[39, 71, 223, 88, 42, 29, 24, 23]
2.09[39, 71, 223, 88, 42, 29, 24, 23]
2.09[39, 71, 223, 88, 42, 29, 24, 23]
2.09[39, 71, 223, 88, 42, 29, 24, 23]
2.09[37, 70, 240, 112, 40, 29, 25, 22]
2.1[37, 70, 240, 112, 40, 29, 25, 22]
2.1[37, 70, 240, 112, 40, 29, 25, 22]
2.1[37, 70, 240, 112, 40, 29, 25, 22]
2.1[37, 70, 240, 112, 40, 29, 25, 22]
2.1[37, 70, 240, 112, 40, 29, 25, 22]
2.1[37, 70, 240, 112, 40, 29, 25, 22]
2.1[37, 70, 240, 112, 40, 29, 25, 22]
2.1[41, 69, 223, 111, 41, 26, 24, 19]
2.13[41, 69, 223, 111, 41, 26, 24, 19]
2.13[41, 69, 223, 111, 41, 26, 24, 19]
2.13[41, 69, 223, 111, 41, 26, 24, 19]
2.13[41, 69, 223, 111, 41, 26, 24, 19]
2.13[41, 69, 223, 111, 41, 26, 24, 19]
2.13[41, 69, 223, 111, 41, 26, 24, 19]
2.13[41, 69, 223, 111, 41, 26, 24, 19]
2.13[44, 73, 218, 125, 49, 29, 23, 21]
2.15[44, 73, 218, 125, 49, 29, 23, 21]
2.15[44, 73, 218, 125, 49, 29, 23, 21]
2.15[44, 73, 218, 125, 49, 29, 23, 21]
2.15[44, 73, 218, 125, 49, 29, 23, 21]
2.15[44, 73, 218, 125, 49, 29, 23, 21]
2.15[44, 73, 218, 125, 49, 29, 23, 21]
2.15[44, 73, 218, 125, 49, 29, 23, 21]
2.15[44, 69, 209, 123, 50, 36, 23, 21]
2.16[44, 69, 209, 123, 50, 36, 23, 21]
2.16[44, 69, 209, 123, 50, 36, 23, 21]
2.16[44, 69, 209, 123, 50, 36, 23, 21]
2.16[44, 69, 209, 123, 50, 36, 23, 21]
2.16[44, 69, 209, 123, 50, 36, 23, 21]
2.16[44, 69, 209, 123, 50, 36, 23, 21]
2.16[44, 69, 209, 123, 50, 36, 23, 21]
2.16[42, 66, 329, 154, 49, 32, 24, 26]
2.19[42, 66, 329, 154, 49, 32, 24, 26]
2.19[42, 66, 329, 154, 49, 32, 24, 26]
2.19[42, 66, 329, 154, 49, 32, 24, 26]
2.19[42, 66, 329, 154, 49, 32, 24, 26]
2.19[42, 66, 329, 154, 49, 32, 24, 26]
2.19[42, 66, 329, 154, 49, 32, 24, 26]
2.19[42, 66, 329, 154, 49, 32, 24, 26]
2.19[44, 65, 316, 140, 47, 31, 23, 26]
2.21[44, 65, 316, 140, 47, 31, 23, 26]
2.21[44, 65, 316, 140, 47, 31, 23, 26]
2.21[44, 65, 316, 140, 47, 31, 23, 26]
2.21[44, 65, 316, 140, 47, 31, 23, 26]
2.21[44, 65, 316, 140, 47, 31, 23, 26]
2.21[44, 65, 316, 140, 47, 31, 23, 26]
2.21[44, 65, 316, 140, 47, 31, 23, 26]
2.21[43, 64, 323, 144, 46, 31, 23, 26]
2.22[43, 64, 323, 144, 46, 31, 23, 26]
2.22[43, 64, 323, 144, 46, 31, 23, 26]
2.22[43, 64, 323, 144, 46, 31, 23, 26]
2.22[43, 64, 323, 144, 46, 31, 23, 26]
2.22[43, 64, 323, 144, 46, 31, 23, 26]
2.22[43, 64, 323, 144, 46, 31, 23, 26]
2.22[43, 64, 323, 144, 46, 31, 23, 26]
2.22[40, 62, 324, 132, 40, 29, 22, 25]
2.25[40, 62, 324, 132, 40, 29, 22, 25]
2.25[40, 62, 324, 132, 40, 29, 22, 25]
2.25[40, 62, 324, 132, 40, 29, 22, 25]
2.25[40, 62, 324, 132, 40, 29, 22, 25]
2.25[40, 62, 324, 132, 40, 29, 22, 25]
2.25[40, 62, 324, 132, 40, 29, 22, 25]
2.25[40, 62, 324, 132, 40, 29, 22, 25]
2.25[39, 62, 326, 149, 45, 21, 24, 25]
2.27[39, 62, 326, 149, 45, 21, 24, 25]
2.27[39, 62, 326, 149, 45, 21, 24, 25]
2.27[39, 62, 326, 149, 45, 21, 24, 25]
2.27[39, 62, 326, 149, 45, 21, 24, 25]
2.27[39, 62, 326, 149, 45, 21, 24, 25]
2.27[39, 62, 326, 149, 45, 21, 24, 25]
2.27[39, 62, 326, 149, 45, 21, 24, 25]
2.27[36, 60, 225, 141, 44, 23, 23, 20]
2.28[36, 60, 225, 141, 44, 23, 23, 20]
2.28[36, 60, 225, 141, 44, 23, 23, 20]
2.28[36, 60, 225, 141, 44, 23, 23, 20]
2.28[36, 60, 225, 141, 44, 23, 23, 20]
2.28[36, 60, 225, 141, 44, 23, 23, 20]
2.28[36, 60, 225, 141, 44, 23, 23, 20]
2.28[36, 60, 225, 141, 44, 23, 23, 20]
2.28[33, 54, 199, 136, 47, 24, 21, 20]
2.31[33, 54, 199, 136, 47, 24, 21, 20]
2.31[33, 54, 199, 136, 47, 24, 21, 20]
2.31[33, 54, 199, 136, 47, 24, 21, 20]
2.31[33, 54, 199, 136, 47, 24, 21, 20]
2.31[33, 54, 199, 136, 47, 24, 21, 20]
2.31[33, 54, 199, 136, 47, 24, 21, 20]
2.31[33, 54, 199, 136, 47, 24, 21, 20]
2.31[33, 57, 184, 133, 47, 27, 22, 20]
2.33[33, 57, 184, 133, 47, 27, 22, 20]
2.33[33, 57, 184, 133, 47, 27, 22, 20]
2.33[33, 57, 184, 133, 47, 27, 22, 20]
2.33[33, 57, 184, 133, 47, 27, 22, 20]
2.33[33, 57, 184, 133, 47, 27, 22, 20]
2.33[33, 57, 184, 133, 47, 27, 22, 20]
2.33[33, 57, 184, 133, 47, 27, 22, 20]
2.33[33, 59, 192, 131, 47, 28, 22, 21]
2.34[33, 59, 192, 131, 47, 28, 22, 21]
2.34[33, 59, 192, 131, 47, 28, 22, 21]
2.34[33, 59, 192, 131, 47, 28, 22, 21]
2.34[33, 59, 192, 131, 47, 28, 22, 21]
2.34[33, 59, 192, 131, 47, 28, 22, 21]
2.34[33, 59, 192, 131, 47, 28, 22, 21]
2.34[33, 59, 192, 131, 47, 28, 22, 21]
2.34[34, 60, 226, 133, 49, 29, 21, 23]
2.37[34, 60, 226, 133, 49, 29, 21, 23]
2.37[34, 60, 226, 133, 49, 29, 21, 23]
2.37[34, 60, 226, 133, 49, 29, 21, 23]
2.37[34, 60, 226, 133, 49, 29, 21, 23]
2.37[34, 60, 226, 133, 49, 29, 21, 23]
2.37[34, 60, 226, 133, 49, 29, 21, 23]
2.37[34, 60, 226, 133, 49, 29, 21, 23]
2.37[37, 69, 256, 140, 48, 30, 20, 23]
2.39[37, 69, 256, 140, 48, 30, 20, 23]
2.39[37, 69, 256, 140, 48, 30, 20, 23]
2.39[37, 69, 256, 140, 48, 30, 20, 23]
2.39[37, 69, 256, 140, 48, 30, 20, 23]
2.39[37, 69, 256, 140, 48, 30, 20, 23]
2.39[37, 69, 256, 140, 48, 30, 20, 23]
2.39[37, 69, 256, 140, 48, 30, 20, 23]
2.39[40, 80, 268, 140, 47, 30, 22, 26]
2.41[40, 80, 268, 140, 47, 30, 22, 26]
2.41[40, 80, 268, 140, 47, 30, 22, 26]
2.41[40, 80, 268, 140, 47, 30, 22, 26]
2.41[40, 80, 268, 140, 47, 30, 22, 26]
2.41[40, 80, 268, 140, 47, 30, 22, 26]
2.41[40, 80, 268, 140, 47, 30, 22, 26]
2.41[40, 80, 268, 140, 47, 30, 22, 26]
2.41[42, 81, 269, 148, 46, 28, 21, 26]
2.43[42, 81, 269, 148, 46, 28, 21, 26]
2.43[42, 81, 269, 148, 46, 28, 21, 26]
2.43[42, 81, 269, 148, 46, 28, 21, 26]
2.43[42, 81, 269, 148, 46, 28, 21, 26]
2.43[42, 81, 269, 148, 46, 28, 21, 26]
2.43[42, 81, 269, 148, 46, 28, 21, 26]
2.43[42, 81, 269, 148, 46, 28, 21, 26]
2.43[42, 74, 278, 162, 49, 28, 22, 25]
2.45[42, 74, 278, 162, 49, 28, 22, 25]
2.45[42, 74, 278, 162, 49, 28, 22, 25]
2.45[42, 74, 278, 162, 49, 28, 22, 25]
2.45[42, 74, 278, 162, 49, 28, 22, 25]
2.45[42, 74, 278, 162, 49, 28, 22, 25]
2.45[42, 74, 278, 162, 49, 28, 22, 25]
2.45[42, 74, 278, 162, 49, 28, 22, 25]
2.45[46, 78, 252, 171, 47, 26, 23, 24]
2.47[46, 78, 252, 171, 47, 26, 23, 24]
2.47[46, 78, 252, 171, 47, 26, 23, 24]
2.47[46, 78, 252, 171, 47, 26, 23, 24]
2.47[46, 78, 252, 171, 47, 26, 23, 24]
2.47[46, 78, 252, 171, 47, 26, 23, 24]
2.47[46, 78, 252, 171, 47, 26, 23, 24]
2.47[46, 78, 252, 171, 47, 26, 23, 24]
2.47[44, 73, 180, 145, 45, 23, 22, 24]
2.49[44, 73, 180, 145, 45, 23, 22, 24]
2.49[44, 73, 180, 145, 45, 23, 22, 24]
2.49[44, 73, 180, 145, 45, 23, 22, 24]
2.49[44, 73, 180, 145, 45, 23, 22, 24]
2.49[44, 73, 180, 145, 45, 23, 22, 24]
2.49[44, 73, 180, 145, 45, 23, 22, 24]
2.49[44, 73, 180, 145, 45, 23, 22, 24]
2.49[43, 69, 175, 141, 44, 23, 21, 21]
2.51[43, 69, 175, 141, 44, 23, 21, 21]
2.51[43, 69, 175, 141, 44, 23, 21, 21]
2.51[43, 69, 175, 141, 44, 23, 21, 21]
2.51[43, 69, 175, 141, 44, 23, 21, 21]
2.51[43, 69, 175, 141, 44, 23, 21, 21]
2.51[43, 69, 175, 141, 44, 23, 21, 21]
2.51[43, 69, 175, 141, 44, 23, 21, 21]
2.51[42, 70, 225, 137, 45, 24, 21, 22]
2.53[42, 70, 225, 137, 45, 24, 21, 22]
2.53[42, 70, 225, 137, 45, 24, 21, 22]
2.53[42, 70, 225, 137, 45, 24, 21, 22]
2.53[42, 70, 225, 137, 45, 24, 21, 22]
2.53[42, 70, 225, 137, 45, 24, 21, 22]
2.53[42, 70, 225, 137, 45, 24, 21, 22]
2.53[42, 70, 225, 137, 45, 24, 21, 22]
2.53[42, 77, 234, 138, 44, 23, 21, 24]
2.55[42, 77, 234, 138, 44, 23, 21, 24]
2.55[42, 77, 234, 138, 44, 23, 21, 24]
2.55[42, 77, 234, 138, 44, 23, 21, 24]
2.55[42, 77, 234, 138, 44, 23, 21, 24]
2.55[42, 77, 234, 138, 44, 23, 21, 24]
2.55[42, 77, 234, 138, 44, 23, 21, 24]
2.55[42, 77, 234, 138, 44, 23, 21, 24]
2.55[36, 70, 239, 107, 41, 25, 19, 25]
2.57[36, 70, 239, 107, 41, 25, 19, 25]
2.57[36, 70, 239, 107, 41, 25, 19, 25]
2.57[36, 70, 239, 107, 41, 25, 19, 25]
2.57[36, 70, 239, 107, 41, 25, 19, 25]
2.57[36, 70, 239, 107, 41, 25, 19, 25]
2.57[36, 70, 239, 107, 41, 25, 19, 25]
2.57[36, 70, 239, 107, 41, 25, 19, 25]
2.57[36, 68, 251, 113, 40, 25, 20, 26]
2.59[36, 68, 251, 113, 40, 25, 20, 26]
2.59[36, 68, 251, 113, 40, 25, 20, 26]
2.59[36, 68, 251, 113, 40, 25, 20, 26]
2.59[36, 68, 251, 113, 40, 25, 20, 26]
2.59[36, 68, 251, 113, 40, 25, 20, 26]
2.59[36, 68, 251, 113, 40, 25, 20, 26]
2.59[36, 68, 251, 113, 40, 25, 20, 26]
2.59[35, 65, 267, 124, 41, 27, 21, 26]
2.62[35, 65, 267, 124, 41, 27, 21, 26]
2.62[35, 65, 267, 124, 41, 27, 21, 26]
2.62[35, 65, 267, 124, 41, 27, 21, 26]
2.62[35, 65, 267, 124, 41, 27, 21, 26]
2.62[35, 65, 267, 124, 41, 27, 21, 26]
2.62[35, 65, 267, 124, 41, 27, 21, 26]
2.62[35, 65, 267, 124, 41, 27, 21, 26]
2.62[40, 72, 223, 135, 44, 25, 21, 24]
2.63[40, 72, 223, 135, 44, 25, 21, 24]
2.63[40, 72, 223, 135, 44, 25, 21, 24]
2.63[40, 72, 223, 135, 44, 25, 21, 24]
2.63[40, 72, 223, 135, 44, 25, 21, 24]
2.63[40, 72, 223, 135, 44, 25, 21, 24]
2.63[40, 72, 223, 135, 44, 25, 21, 24]
2.63[40, 72, 223, 135, 44, 25, 21, 24]
2.63[38, 65, 183, 124, 42, 26, 20, 22]
2.65[38, 65, 183, 124, 42, 26, 20, 22]
2.65[38, 65, 183, 124, 42, 26, 20, 22]
2.65[38, 65, 183, 124, 42, 26, 20, 22]
2.65[38, 65, 183, 124, 42, 26, 20, 22]
2.65[38, 65, 183, 124, 42, 26, 20, 22]
2.65[38, 65, 183, 124, 42, 26, 20, 22]
2.65[38, 65, 183, 124, 42, 26, 20, 22]
2.65[41, 77, 202, 124, 41, 24, 22, 22]
2.67[41, 77, 202, 124, 41, 24, 22, 22]
2.67[41, 77, 202, 124, 41, 24, 22, 22]
2.67[41, 77, 202, 124, 41, 24, 22, 22]
2.67[41, 77, 202, 124, 41, 24, 22, 22]
2.67[41, 77, 202, 124, 41, 24, 22, 22]
2.67[41, 77, 202, 124, 41, 24, 22, 22]
2.67[41, 77, 202, 124, 41, 24, 22, 22]
2.67[42, 79, 191, 128, 44, 25, 21, 21]
2.69[42, 79, 191, 128, 44, 25, 21, 21]
2.69[42, 79, 191, 128, 44, 25, 21, 21]
2.69[42, 79, 191, 128, 44, 25, 21, 21]
2.69[42, 79, 191, 128, 44, 25, 21, 21]
2.69[42, 79, 191, 128, 44, 25, 21, 21]
2.69[42, 79, 191, 128, 44, 25, 21, 21]
2.69[42, 79, 191, 128, 44, 25, 21, 21]
2.69[43, 80, 157, 129, 43, 23, 19, 21]
2.71[43, 80, 157, 129, 43, 23, 19, 21]
2.71[43, 80, 157, 129, 43, 23, 19, 21]
2.71[43, 80, 157, 129, 43, 23, 19, 21]
2.71[43, 80, 157, 129, 43, 23, 19, 21]
2.71[43, 80, 157, 129, 43, 23, 19, 21]
2.71[43, 80, 157, 129, 43, 23, 19, 21]
2.71[43, 80, 157, 129, 43, 23, 19, 21]
2.71[44, 78, 184, 113, 41, 24, 20, 24]
2.73[44, 78, 184, 113, 41, 24, 20, 24]
2.73[44, 78, 184, 113, 41, 24, 20, 24]
2.73[44, 78, 184, 113, 41, 24, 20, 24]
2.73[44, 78, 184, 113, 41, 24, 20, 24]
2.73[44, 78, 184, 113, 41, 24, 20, 24]
2.73[44, 78, 184, 113, 41, 24, 20, 24]
2.73[44, 78, 184, 113, 41, 24, 20, 24]
2.73[43, 80, 200, 106, 38, 23, 21, 23]
2.75[43, 80, 200, 106, 38, 23, 21, 23]
2.75[43, 80, 200, 106, 38, 23, 21, 23]
2.75[43, 80, 200, 106, 38, 23, 21, 23]
2.75[43, 80, 200, 106, 38, 23, 21, 23]
2.75[43, 80, 200, 106, 38, 23, 21, 23]
2.75[43, 80, 200, 106, 38, 23, 21, 23]
2.75[43, 80, 200, 106, 38, 23, 21, 23]
2.75[40, 70, 168, 103, 37, 23, 19, 20]
2.77[40, 70, 168, 103, 37, 23, 19, 20]
2.77[40, 70, 168, 103, 37, 23, 19, 20]
2.77[40, 70, 168, 103, 37, 23, 19, 20]
2.77[40, 70, 168, 103, 37, 23, 19, 20]
2.77[40, 70, 168, 103, 37, 23, 19, 20]
2.77[40, 70, 168, 103, 37, 23, 19, 20]
2.77[40, 70, 168, 103, 37, 23, 19, 20]
2.77[43, 71, 197, 114, 38, 24, 20, 21]
2.79[43, 71, 197, 114, 38, 24, 20, 21]
2.79[43, 71, 197, 114, 38, 24, 20, 21]
2.79[43, 71, 197, 114, 38, 24, 20, 21]
2.79[43, 71, 197, 114, 38, 24, 20, 21]
2.79[43, 71, 197, 114, 38, 24, 20, 21]
2.79[43, 71, 197, 114, 38, 24, 20, 21]
2.79[43, 71, 197, 114, 38, 24, 20, 21]
2.79[48, 71, 208, 109, 44, 27, 22, 22]
2.81[48, 71, 208, 109, 44, 27, 22, 22]
2.81[48, 71, 208, 109, 44, 27, 22, 22]
2.81[48, 71, 208, 109, 44, 27, 22, 22]
2.81[48, 71, 208, 109, 44, 27, 22, 22]
2.81[48, 71, 208, 109, 44, 27, 22, 22]
2.81[48, 71, 208, 109, 44, 27, 22, 22]
2.81[48, 71, 208, 109, 44, 27, 22, 22]
2.81[41, 66, 187, 108, 42, 27, 22, 22]
2.83[41, 66, 187, 108, 42, 27, 22, 22]
2.83[41, 66, 187, 108, 42, 27, 22, 22]
2.83[41, 66, 187, 108, 42, 27, 22, 22]
2.83[41, 66, 187, 108, 42, 27, 22, 22]
2.83[41, 66, 187, 108, 42, 27, 22, 22]
2.83[41, 66, 187, 108, 42, 27, 22, 22]
2.83[41, 66, 187, 108, 42, 27, 22, 22]
2.83[44, 69, 176, 111, 42, 28, 22, 24]
2.85[44, 69, 176, 111, 42, 28, 22, 24]
2.85[44, 69, 176, 111, 42, 28, 22, 24]
2.85[44, 69, 176, 111, 42, 28, 22, 24]
2.85[44, 69, 176, 111, 42, 28, 22, 24]
2.85[44, 69, 176, 111, 42, 28, 22, 24]
2.85[44, 69, 176, 111, 42, 28, 22, 24]
2.85[44, 69, 176, 111, 42, 28, 22, 24]
2.85[47, 78, 181, 119, 44, 30, 24, 26]
2.87[47, 78, 181, 119, 44, 30, 24, 26]
2.87[47, 78, 181, 119, 44, 30, 24, 26]
2.87[47, 78, 181, 119, 44, 30, 24, 26]
2.87[47, 78, 181, 119, 44, 30, 24, 26]
2.87[47, 78, 181, 119, 44, 30, 24, 26]
2.87[47, 78, 181, 119, 44, 30, 24, 26]
2.87[47, 78, 181, 119, 44, 30, 24, 26]
2.87[44, 80, 198, 108, 40, 29, 25, 25]
2.9[44, 80, 198, 108, 40, 29, 25, 25]
2.9[44, 80, 198, 108, 40, 29, 25, 25]
2.9[44, 80, 198, 108, 40, 29, 25, 25]
2.9[44, 80, 198, 108, 40, 29, 25, 25]
2.9[44, 80, 198, 108, 40, 29, 25, 25]
2.9[44, 80, 198, 108, 40, 29, 25, 25]
2.9[44, 80, 198, 108, 40, 29, 25, 25]
2.9[40, 79, 230, 99, 36, 27, 25, 24]
2.91[40, 79, 230, 99, 36, 27, 25, 24]
2.91[40, 79, 230, 99, 36, 27, 25, 24]
2.91[40, 79, 230, 99, 36, 27, 25, 24]
2.91[40, 79, 230, 99, 36, 27, 25, 24]
2.91[40, 79, 230, 99, 36, 27, 25, 24]
2.91[40, 79, 230, 99, 36, 27, 25, 24]
2.91[40, 79, 230, 99, 36, 27, 25, 24]
2.91[42, 74, 250, 129, 43, 27, 25, 26]
2.93[42, 74, 250, 129, 43, 27, 25, 26]
2.93[42, 74, 250, 129, 43, 27, 25, 26]
2.93[42, 74, 250, 129, 43, 27, 25, 26]
2.93[42, 74, 250, 129, 43, 27, 25, 26]
2.93[42, 74, 250, 129, 43, 27, 25, 26]
2.93[42, 74, 250, 129, 43, 27, 25, 26]
2.93[42, 74, 250, 129, 43, 27, 25, 26]
2.93[40, 69, 258, 137, 50, 27, 25, 26]
2.95[40, 69, 258, 137, 50, 27, 25, 26]
2.95[40, 69, 258, 137, 50, 27, 25, 26]
2.95[40, 69, 258, 137, 50, 27, 25, 26]
2.95[40, 69, 258, 137, 50, 27, 25, 26]
2.95[40, 69, 258, 137, 50, 27, 25, 26]
2.95[40, 69, 258, 137, 50, 27, 25, 26]
2.95[40, 69, 258, 137, 50, 27, 25, 26]
2.95[39, 62, 261, 131, 48, 23, 23, 25]
2.97[39, 62, 261, 131, 48, 23, 23, 25]
2.97[39, 62, 261, 131, 48, 23, 23, 25]
2.97[39, 62, 261, 131, 48, 23, 23, 25]
2.97[39, 62, 261, 131, 48, 23, 23, 25]
2.97[39, 62, 261, 131, 48, 23, 23, 25]
2.97[39, 62, 261, 131, 48, 23, 23, 25]
2.97[39, 62, 261, 131, 48, 23, 23, 25]
2.97[44, 61, 257, 127, 49, 25, 24, 29]
2.99[44, 61, 257, 127, 49, 25, 24, 29]
2.99[44, 61, 257, 127, 49, 25, 24, 29]
2.99[44, 61, 257, 127, 49, 25, 24, 29]
2.99[44, 61, 257, 127, 49, 25, 24, 29]
2.99[44, 61, 257, 127, 49, 25, 24, 29]
2.99[44, 61, 257, 127, 49, 25, 24, 29]
2.99[44, 61, 257, 127, 49, 25, 24, 29]
2.99[41, 69, 255, 124, 47, 25, 24, 29]
3.01[41, 69, 255, 124, 47, 25, 24, 29]
3.01[41, 69, 255, 124, 47, 25, 24, 29]
3.01[41, 69, 255, 124, 47, 25, 24, 29]
3.01[41, 69, 255, 124, 47, 25, 24, 29]
3.01[41, 69, 255, 124, 47, 25, 24, 29]
3.01[41, 69, 255, 124, 47, 25, 24, 29]
3.01[41, 69, 255, 124, 47, 25, 24, 29]
3.01[40, 72, 251, 99, 44, 25, 24, 29]
3.03[40, 72, 251, 99, 44, 25, 24, 29]
3.03[40, 72, 251, 99, 44, 25, 24, 29]
3.03[40, 72, 251, 99, 44, 25, 24, 29]
3.03[40, 72, 251, 99, 44, 25, 24, 29]
3.03[40, 72, 251, 99, 44, 25, 24, 29]
3.03[40, 72, 251, 99, 44, 25, 24, 29]
3.03[40, 72, 251, 99, 44, 25, 24, 29]
3.03[41, 72, 260, 101, 43, 25, 25, 27]
3.05[41, 72, 260, 101, 43, 25, 25, 27]
3.05[41, 72, 260, 101, 43, 25, 25, 27]
3.05[41, 72, 260, 101, 43, 25, 25, 27]
3.05[41, 72, 260, 101, 43, 25, 25, 27]
3.05[41, 72, 260, 101, 43, 25, 25, 27]
3.05[41, 72, 260, 101, 43, 25, 25, 27]
3.05[41, 72, 260, 101, 43, 25, 25, 27]
3.05[39, 69, 300, 106, 45, 24, 25, 29]
3.07[39, 69, 300, 106, 45, 24, 25, 29]
3.07[39, 69, 300, 106, 45, 24, 25, 29]
3.07[39, 69, 300, 106, 45, 24, 25, 29]
3.07[39, 69, 300, 106, 45, 24, 25, 29]
3.07[39, 69, 300, 106, 45, 24, 25, 29]
3.07[39, 69, 300, 106, 45, 24, 25, 29]
3.07[39, 69, 300, 106, 45, 24, 25, 29]
3.07[37, 75, 286, 112, 47, 24, 23, 25]
3.09[37, 75, 286, 112, 47, 24, 23, 25]
3.09[37, 75, 286, 112, 47, 24, 23, 25]
3.09[37, 75, 286, 112, 47, 24, 23, 25]
3.09[37, 75, 286, 112, 47, 24, 23, 25]
3.09[37, 75, 286, 112, 47, 24, 23, 25]
3.09[37, 75, 286, 112, 47, 24, 23, 25]
3.09[37, 75, 286, 112, 47, 24, 23, 25]
3.09[45, 76, 262, 124, 52, 24, 22, 26]
3.11[45, 76, 262, 124, 52, 24, 22, 26]
3.11[45, 76, 262, 124, 52, 24, 22, 26]
3.11[45, 76, 262, 124, 52, 24, 22, 26]
3.11[45, 76, 262, 124, 52, 24, 22, 26]
3.11[45, 76, 262, 124, 52, 24, 22, 26]
3.11[45, 76, 262, 124, 52, 24, 22, 26]
3.11[45, 76, 262, 124, 52, 24, 22, 26]
3.11[43, 72, 265, 126, 49, 24, 21, 24]
3.13[43, 72, 265, 126, 49, 24, 21, 24]
3.13[43, 72, 265, 126, 49, 24, 21, 24]
3.13[43, 72, 265, 126, 49, 24, 21, 24]
3.13[43, 72, 265, 126, 49, 24, 21, 24]
3.13[43, 72, 265, 126, 49, 24, 21, 24]
3.13[43, 72, 265, 126, 49, 24, 21, 24]
3.13[43, 72, 265, 126, 49, 24, 21, 24]
3.13[44, 81, 261, 132, 46, 23, 20, 26]
3.15[44, 81, 261, 132, 46, 23, 20, 26]
3.15[44, 81, 261, 132, 46, 23, 20, 26]
3.15[44, 81, 261, 132, 46, 23, 20, 26]
3.15[44, 81, 261, 132, 46, 23, 20, 26]
3.15[44, 81, 261, 132, 46, 23, 20, 26]
3.15[44, 81, 261, 132, 46, 23, 20, 26]
3.15[44, 81, 261, 132, 46, 23, 20, 26]
3.15[47, 85, 215, 141, 45, 23, 21, 25]
3.17[47, 85, 215, 141, 45, 23, 21, 25]
3.17[47, 85, 215, 141, 45, 23, 21, 25]
3.17[47, 85, 215, 141, 45, 23, 21, 25]
3.17[47, 85, 215, 141, 45, 23, 21, 25]
3.17[47, 85, 215, 141, 45, 23, 21, 25]
3.17[47, 85, 215, 141, 45, 23, 21, 25]
3.17[47, 85, 215, 141, 45, 23, 21, 25]
3.17[45, 77, 198, 138, 42, 22, 21, 24]
3.19[45, 77, 198, 138, 42, 22, 21, 24]
3.19[45, 77, 198, 138, 42, 22, 21, 24]
3.19[45, 77, 198, 138, 42, 22, 21, 24]
3.19[45, 77, 198, 138, 42, 22, 21, 24]
3.19[45, 77, 198, 138, 42, 22, 21, 24]
3.19[45, 77, 198, 138, 42, 22, 21, 24]
3.19[45, 77, 198, 138, 42, 22, 21, 24]
3.19[37, 73, 192, 129, 39, 22, 22, 23]
3.21[37, 73, 192, 129, 39, 22, 22, 23]
3.21[37, 73, 192, 129, 39, 22, 22, 23]
3.21[37, 73, 192, 129, 39, 22, 22, 23]
3.21[37, 73, 192, 129, 39, 22, 22, 23]
3.21[37, 73, 192, 129, 39, 22, 22, 23]
3.21[37, 73, 192, 129, 39, 22, 22, 23]
3.21[37, 73, 192, 129, 39, 22, 22, 23]
3.21[39, 75, 170, 122, 37, 22, 22, 24]
3.23[39, 75, 170, 122, 37, 22, 22, 24]
3.23[39, 75, 170, 122, 37, 22, 22, 24]
3.23[39, 75, 170, 122, 37, 22, 22, 24]
3.23[39, 75, 170, 122, 37, 22, 22, 24]
3.23[39, 75, 170, 122, 37, 22, 22, 24]
3.23[39, 75, 170, 122, 37, 22, 22, 24]
3.23[39, 75, 170, 122, 37, 22, 22, 24]
3.23[46, 76, 189, 119, 35, 22, 23, 27]
3.25[46, 76, 189, 119, 35, 22, 23, 27]
3.25[46, 76, 189, 119, 35, 22, 23, 27]
3.25[46, 76, 189, 119, 35, 22, 23, 27]
3.25[46, 76, 189, 119, 35, 22, 23, 27]
3.25[46, 76, 189, 119, 35, 22, 23, 27]
3.25[46, 76, 189, 119, 35, 22, 23, 27]
3.25[46, 76, 189, 119, 35, 22, 23, 27]
3.25[47, 80, 224, 123, 41, 22, 23, 25]
3.27[47, 80, 224, 123, 41, 22, 23, 25]
3.27[47, 80, 224, 123, 41, 22, 23, 25]
3.27[47, 80, 224, 123, 41, 22, 23, 25]
3.27[47, 80, 224, 123, 41, 22, 23, 25]
3.27[47, 80, 224, 123, 41, 22, 23, 25]
3.27[47, 80, 224, 123, 41, 22, 23, 25]
3.27[47, 80, 224, 123, 41, 22, 23, 25]
3.27[46, 80, 222, 128, 41, 22, 24, 25]
3.29[46, 80, 222, 128, 41, 22, 24, 25]
3.29[46, 80, 222, 128, 41, 22, 24, 25]
3.29[46, 80, 222, 128, 41, 22, 24, 25]
3.29[46, 80, 222, 128, 41, 22, 24, 25]
3.29[46, 80, 222, 128, 41, 22, 24, 25]
3.29[46, 80, 222, 128, 41, 22, 24, 25]
3.29[46, 80, 222, 128, 41, 22, 24, 25]
3.29[47, 76, 232, 123, 39, 23, 25, 25]
3.31[47, 76, 232, 123, 39, 23, 25, 25]
3.31[47, 76, 232, 123, 39, 23, 25, 25]
3.31[47, 76, 232, 123, 39, 23, 25, 25]
3.31[47, 76, 232, 123, 39, 23, 25, 25]
3.31[47, 76, 232, 123, 39, 23, 25, 25]
3.31[47, 76, 232, 123, 39, 23, 25, 25]
3.31[47, 76, 232, 123, 39, 23, 25, 25]
3.31[48, 77, 233, 119, 40, 22, 26, 26]
3.33[48, 77, 233, 119, 40, 22, 26, 26]
3.33[48, 77, 233, 119, 40, 22, 26, 26]
3.33[48, 77, 233, 119, 40, 22, 26, 26]
3.33[48, 77, 233, 119, 40, 22, 26, 26]
3.33[48, 77, 233, 119, 40, 22, 26, 26]
3.33[48, 77, 233, 119, 40, 22, 26, 26]
3.33[48, 77, 233, 119, 40, 22, 26, 26]
3.33[39, 70, 274, 136, 43, 25, 25, 22]
3.35[39, 70, 274, 136, 43, 25, 25, 22]
3.35[39, 70, 274, 136, 43, 25, 25, 22]
3.35[39, 70, 274, 136, 43, 25, 25, 22]
3.35[39, 70, 274, 136, 43, 25, 25, 22]
3.35[39, 70, 274, 136, 43, 25, 25, 22]
3.35[39, 70, 274, 136, 43, 25, 25, 22]
3.35[39, 70, 274, 136, 43, 25, 25, 22]
3.35[36, 62, 253, 132, 41, 26, 26, 22]
3.37[36, 62, 253, 132, 41, 26, 26, 22]
3.37[36, 62, 253, 132, 41, 26, 26, 22]
3.37[36, 62, 253, 132, 41, 26, 26, 22]
3.37[36, 62, 253, 132, 41, 26, 26, 22]
3.37[36, 62, 253, 132, 41, 26, 26, 22]
3.37[36, 62, 253, 132, 41, 26, 26, 22]
3.37[36, 62, 253, 132, 41, 26, 26, 22]
3.37[39, 71, 270, 131, 43, 26, 23, 23]
3.39[39, 71, 270, 131, 43, 26, 23, 23]
3.39[39, 71, 270, 131, 43, 26, 23, 23]
3.39[39, 71, 270, 131, 43, 26, 23, 23]
3.39[39, 71, 270, 131, 43, 26, 23, 23]
3.39[39, 71, 270, 131, 43, 26, 23, 23]
3.39[39, 71, 270, 131, 43, 26, 23, 23]
3.39[39, 71, 270, 131, 43, 26, 23, 23]
3.39[44, 78, 275, 138, 42, 25, 22, 22]
3.42[44, 78, 275, 138, 42, 25, 22, 22]
3.42[44, 78, 275, 138, 42, 25, 22, 22]
3.42[44, 78, 275, 138, 42, 25, 22, 22]
3.42[44, 78, 275, 138, 42, 25, 22, 22]
3.42[44, 78, 275, 138, 42, 25, 22, 22]
3.42[44, 78, 275, 138, 42, 25, 22, 22]
3.42[44, 78, 275, 138, 42, 25, 22, 22]
3.42[46, 77, 311, 159, 46, 28, 23, 23]
3.43[46, 77, 311, 159, 46, 28, 23, 23]
3.43[46, 77, 311, 159, 46, 28, 23, 23]
3.43[46, 77, 311, 159, 46, 28, 23, 23]
3.43[46, 77, 311, 159, 46, 28, 23, 23]
3.43[46, 77, 311, 159, 46, 28, 23, 23]
3.43[46, 77, 311, 159, 46, 28, 23, 23]
3.43[46, 77, 311, 159, 46, 28, 23, 23]
3.43[47, 74, 283, 149, 46, 25, 22, 22]
3.45[47, 74, 283, 149, 46, 25, 22, 22]
3.45[47, 74, 283, 149, 46, 25, 22, 22]
3.45[47, 74, 283, 149, 46, 25, 22, 22]
3.45[47, 74, 283, 149, 46, 25, 22, 22]
3.45[47, 74, 283, 149, 46, 25, 22, 22]
3.45[47, 74, 283, 149, 46, 25, 22, 22]
3.45[47, 74, 283, 149, 46, 25, 22, 22]
3.45[47, 76, 270, 145, 44, 23, 23, 23]
3.48[47, 76, 270, 145, 44, 23, 23, 23]
3.48[47, 76, 270, 145, 44, 23, 23, 23]
3.48[47, 76, 270, 145, 44, 23, 23, 23]
3.48[47, 76, 270, 145, 44, 23, 23, 23]
3.48[47, 76, 270, 145, 44, 23, 23, 23]
3.48[47, 76, 270, 145, 44, 23, 23, 23]
3.48[47, 76, 270, 145, 44, 23, 23, 23]
3.48[46, 71, 271, 136, 44, 22, 24, 24]
3.49[46, 71, 271, 136, 44, 22, 24, 24]
3.49[46, 71, 271, 136, 44, 22, 24, 24]
3.49[46, 71, 271, 136, 44, 22, 24, 24]
3.49[46, 71, 271, 136, 44, 22, 24, 24]
3.49[46, 71, 271, 136, 44, 22, 24, 24]
3.49[46, 71, 271, 136, 44, 22, 24, 24]
3.49[46, 71, 271, 136, 44, 22, 24, 24]
3.49[44, 71, 258, 135, 49, 25, 25, 24]
3.51[44, 71, 258, 135, 49, 25, 25, 24]
3.51[44, 71, 258, 135, 49, 25, 25, 24]
3.51[44, 71, 258, 135, 49, 25, 25, 24]
3.51[44, 71, 258, 135, 49, 25, 25, 24]
3.51[44, 71, 258, 135, 49, 25, 25, 24]
3.51[44, 71, 258, 135, 49, 25, 25, 24]
3.51[44, 71, 258, 135, 49, 25, 25, 24]
3.51[47, 75, 211, 123, 46, 22, 26, 24]
3.54[47, 75, 211, 123, 46, 22, 26, 24]
3.54[47, 75, 211, 123, 46, 22, 26, 24]
3.54[47, 75, 211, 123, 46, 22, 26, 24]
3.54[47, 75, 211, 123, 46, 22, 26, 24]
3.54[47, 75, 211, 123, 46, 22, 26, 24]
3.54[47, 75, 211, 123, 46, 22, 26, 24]
3.54[47, 75, 211, 123, 46, 22, 26, 24]
3.54[46, 83, 243, 131, 40, 23, 26, 26]
3.55[46, 83, 243, 131, 40, 23, 26, 26]
3.55[46, 83, 243, 131, 40, 23, 26, 26]
3.55[46, 83, 243, 131, 40, 23, 26, 26]
3.55[46, 83, 243, 131, 40, 23, 26, 26]
3.55[46, 83, 243, 131, 40, 23, 26, 26]
3.55[46, 83, 243, 131, 40, 23, 26, 26]
3.55[46, 83, 243, 131, 40, 23, 26, 26]
3.55[47, 82, 283, 124, 41, 27, 24, 26]
3.57[47, 82, 283, 124, 41, 27, 24, 26]
3.57[47, 82, 283, 124, 41, 27, 24, 26]
3.57[47, 82, 283, 124, 41, 27, 24, 26]
3.57[47, 82, 283, 124, 41, 27, 24, 26]
3.57[47, 82, 283, 124, 41, 27, 24, 26]
3.57[47, 82, 283, 124, 41, 27, 24, 26]
3.57[47, 82, 283, 124, 41, 27, 24, 26]
3.57[46, 86, 272, 126, 39, 27, 23, 24]
3.6[46, 86, 272, 126, 39, 27, 23, 24]
3.6[46, 86, 272, 126, 39, 27, 23, 24]
3.6[46, 86, 272, 126, 39, 27, 23, 24]
3.6[46, 86, 272, 126, 39, 27, 23, 24]
3.6[46, 86, 272, 126, 39, 27, 23, 24]
3.6[46, 86, 272, 126, 39, 27, 23, 24]
3.6[46, 86, 272, 126, 39, 27, 23, 24]
3.6[46, 85, 268, 129, 36, 25, 24, 24]
3.61[46, 85, 268, 129, 36, 25, 24, 24]
3.61[46, 85, 268, 129, 36, 25, 24, 24]
3.61[46, 85, 268, 129, 36, 25, 24, 24]
3.61[46, 85, 268, 129, 36, 25, 24, 24]
3.61[46, 85, 268, 129, 36, 25, 24, 24]
3.61[46, 85, 268, 129, 36, 25, 24, 24]
3.61[46, 85, 268, 129, 36, 25, 24, 24]
3.61[45, 98, 284, 127, 37, 27, 21, 24]
3.63[45, 98, 284, 127, 37, 27, 21, 24]
3.63[45, 98, 284, 127, 37, 27, 21, 24]
3.63[45, 98, 284, 127, 37, 27, 21, 24]
3.63[45, 98, 284, 127, 37, 27, 21, 24]
3.63[45, 98, 284, 127, 37, 27, 21, 24]
3.63[45, 98, 284, 127, 37, 27, 21, 24]
3.63[45, 98, 284, 127, 37, 27, 21, 24]
3.63[45, 93, 253, 104, 38, 28, 24, 23]
3.66[45, 93, 253, 104, 38, 28, 24, 23]
3.66[45, 93, 253, 104, 38, 28, 24, 23]
3.66[45, 93, 253, 104, 38, 28, 24, 23]
3.66[45, 93, 253, 104, 38, 28, 24, 23]
3.66[45, 93, 253, 104, 38, 28, 24, 23]
3.66[45, 93, 253, 104, 38, 28, 24, 23]
3.66[45, 93, 253, 104, 38, 28, 24, 23]
3.66[51, 109, 247, 103, 37, 25, 25, 22]
3.67[51, 109, 247, 103, 37, 25, 25, 22]
3.67[51, 109, 247, 103, 37, 25, 25, 22]
3.67[51, 109, 247, 103, 37, 25, 25, 22]
3.67[51, 109, 247, 103, 37, 25, 25, 22]
3.67[51, 109, 247, 103, 37, 25, 25, 22]
3.67[51, 109, 247, 103, 37, 25, 25, 22]
3.67[51, 109, 247, 103, 37, 25, 25, 22]
3.67[55, 110, 261, 102, 38, 27, 26, 25]
3.69[55, 110, 261, 102, 38, 27, 26, 25]
3.69[55, 110, 261, 102, 38, 27, 26, 25]
3.69[55, 110, 261, 102, 38, 27, 26, 25]
3.69[55, 110, 261, 102, 38, 27, 26, 25]
3.69[55, 110, 261, 102, 38, 27, 26, 25]
3.69[55, 110, 261, 102, 38, 27, 26, 25]
3.69[55, 110, 261, 102, 38, 27, 26, 25]
3.69[51, 106, 259, 96, 35, 25, 24, 26]
3.72[51, 106, 259, 96, 35, 25, 24, 26]
3.72[51, 106, 259, 96, 35, 25, 24, 26]
3.72[51, 106, 259, 96, 35, 25, 24, 26]
3.72[51, 106, 259, 96, 35, 25, 24, 26]
3.72[51, 106, 259, 96, 35, 25, 24, 26]
3.72[51, 106, 259, 96, 35, 25, 24, 26]
3.72[51, 106, 259, 96, 35, 25, 24, 26]
3.72[51, 95, 260, 101, 35, 23, 25, 25]
3.73[51, 95, 260, 101, 35, 23, 25, 25]
3.73[51, 95, 260, 101, 35, 23, 25, 25]
3.73[51, 95, 260, 101, 35, 23, 25, 25]
3.73[51, 95, 260, 101, 35, 23, 25, 25]
3.73[51, 95, 260, 101, 35, 23, 25, 25]
3.73[51, 95, 260, 101, 35, 23, 25, 25]
3.73[51, 95, 260, 101, 35, 23, 25, 25]
3.73[51, 96, 248, 104, 34, 22, 22, 26]
3.75[51, 96, 248, 104, 34, 22, 22, 26]
3.75[51, 96, 248, 104, 34, 22, 22, 26]
3.75[51, 96, 248, 104, 34, 22, 22, 26]
3.75[51, 96, 248, 104, 34, 22, 22, 26]
3.75[51, 96, 248, 104, 34, 22, 22, 26]
3.75[51, 96, 248, 104, 34, 22, 22, 26]
3.75[51, 96, 248, 104, 34, 22, 22, 26]
3.75[45, 78, 212, 102, 37, 24, 22, 26]
3.77[45, 78, 212, 102, 37, 24, 22, 26]
3.77[45, 78, 212, 102, 37, 24, 22, 26]
3.77[45, 78, 212, 102, 37, 24, 22, 26]
3.77[45, 78, 212, 102, 37, 24, 22, 26]
3.77[45, 78, 212, 102, 37, 24, 22, 26]
3.77[45, 78, 212, 102, 37, 24, 22, 26]
3.77[45, 78, 212, 102, 37, 24, 22, 26]
3.77[41, 71, 209, 114, 38, 22, 23, 25]
3.79[41, 71, 209, 114, 38, 22, 23, 25]
3.79[41, 71, 209, 114, 38, 22, 23, 25]
3.79[41, 71, 209, 114, 38, 22, 23, 25]
3.79[41, 71, 209, 114, 38, 22, 23, 25]
3.79[41, 71, 209, 114, 38, 22, 23, 25]
3.79[41, 71, 209, 114, 38, 22, 23, 25]
3.79[41, 71, 209, 114, 38, 22, 23, 25]
3.79[42, 73, 236, 111, 39, 22, 24, 22]
3.81[42, 73, 236, 111, 39, 22, 24, 22]
3.81[42, 73, 236, 111, 39, 22, 24, 22]
3.81[42, 73, 236, 111, 39, 22, 24, 22]
3.81[42, 73, 236, 111, 39, 22, 24, 22]
3.81[42, 73, 236, 111, 39, 22, 24, 22]
3.81[42, 73, 236, 111, 39, 22, 24, 22]
3.81[42, 73, 236, 111, 39, 22, 24, 22]
3.81[36, 71, 239, 102, 42, 22, 23, 23]
3.84[36, 71, 239, 102, 42, 22, 23, 23]
3.84[36, 71, 239, 102, 42, 22, 23, 23]
3.84[36, 71, 239, 102, 42, 22, 23, 23]
3.84[36, 71, 239, 102, 42, 22, 23, 23]
3.84[36, 71, 239, 102, 42, 22, 23, 23]
3.84[36, 71, 239, 102, 42, 22, 23, 23]
3.84[36, 71, 239, 102, 42, 22, 23, 23]
3.84[35, 67, 230, 88, 48, 24, 25, 22]
3.85[35, 67, 230, 88, 48, 24, 25, 22]
3.85[35, 67, 230, 88, 48, 24, 25, 22]
3.85[35, 67, 230, 88, 48, 24, 25, 22]
3.85[35, 67, 230, 88, 48, 24, 25, 22]
3.85[35, 67, 230, 88, 48, 24, 25, 22]
3.85[35, 67, 230, 88, 48, 24, 25, 22]
3.85[35, 67, 230, 88, 48, 24, 25, 22]
3.85[36, 76, 261, 90, 46, 25, 25, 23]
3.87[36, 76, 261, 90, 46, 25, 25, 23]
3.87[36, 76, 261, 90, 46, 25, 25, 23]
3.87[36, 76, 261, 90, 46, 25, 25, 23]
3.87[36, 76, 261, 90, 46, 25, 25, 23]
3.87[36, 76, 261, 90, 46, 25, 25, 23]
3.87[36, 76, 261, 90, 46, 25, 25, 23]
3.87[36, 76, 261, 90, 46, 25, 25, 23]
3.87[37, 76, 247, 100, 48, 24, 22, 23]
3.9[37, 76, 247, 100, 48, 24, 22, 23]
3.9[37, 76, 247, 100, 48, 24, 22, 23]
3.9[37, 76, 247, 100, 48, 24, 22, 23]
3.9[37, 76, 247, 100, 48, 24, 22, 23]
3.9[37, 76, 247, 100, 48, 24, 22, 23]
3.9[37, 76, 247, 100, 48, 24, 22, 23]
3.9[37, 76, 247, 100, 48, 24, 22, 23]
3.9[34, 74, 227, 118, 49, 25, 21, 24]
3.91[34, 74, 227, 118, 49, 25, 21, 24]
3.91[34, 74, 227, 118, 49, 25, 21, 24]
3.91[34, 74, 227, 118, 49, 25, 21, 24]
3.91[34, 74, 227, 118, 49, 25, 21, 24]
3.91[34, 74, 227, 118, 49, 25, 21, 24]
3.91[34, 74, 227, 118, 49, 25, 21, 24]
3.91[34, 74, 227, 118, 49, 25, 21, 24]
3.91[35, 77, 201, 123, 50, 26, 23, 25]
3.93[35, 77, 201, 123, 50, 26, 23, 25]
3.93[35, 77, 201, 123, 50, 26, 23, 25]
3.93[35, 77, 201, 123, 50, 26, 23, 25]
3.93[35, 77, 201, 123, 50, 26, 23, 25]
3.93[35, 77, 201, 123, 50, 26, 23, 25]
3.93[35, 77, 201, 123, 50, 26, 23, 25]
3.93[35, 77, 201, 123, 50, 26, 23, 25]
3.93[36, 81, 204, 133, 45, 25, 22, 26]
3.96[36, 81, 204, 133, 45, 25, 22, 26]
3.96[36, 81, 204, 133, 45, 25, 22, 26]
3.96[36, 81, 204, 133, 45, 25, 22, 26]
3.96[36, 81, 204, 133, 45, 25, 22, 26]
3.96[36, 81, 204, 133, 45, 25, 22, 26]
3.96[36, 81, 204, 133, 45, 25, 22, 26]
3.96[36, 81, 204, 133, 45, 25, 22, 26]
3.96[33, 69, 176, 136, 45, 23, 20, 26]
3.97[33, 69, 176, 136, 45, 23, 20, 26]
3.97[33, 69, 176, 136, 45, 23, 20, 26]
3.97[33, 69, 176, 136, 45, 23, 20, 26]
3.97[33, 69, 176, 136, 45, 23, 20, 26]
3.97[33, 69, 176, 136, 45, 23, 20, 26]
3.97[33, 69, 176, 136, 45, 23, 20, 26]
3.97[33, 69, 176, 136, 45, 23, 20, 26]
3.97[36, 73, 175, 120, 41, 22, 21, 28]
3.99[36, 73, 175, 120, 41, 22, 21, 28]
3.99[36, 73, 175, 120, 41, 22, 21, 28]
3.99[36, 73, 175, 120, 41, 22, 21, 28]
3.99[36, 73, 175, 120, 41, 22, 21, 28]
3.99[36, 73, 175, 120, 41, 22, 21, 28]
3.99[36, 73, 175, 120, 41, 22, 21, 28]
3.99[36, 73, 175, 120, 41, 22, 21, 28]
3.99[43, 81, 183, 103, 43, 24, 23, 29]
4.02[43, 81, 183, 103, 43, 24, 23, 29]
4.02[43, 81, 183, 103, 43, 24, 23, 29]
4.02[43, 81, 183, 103, 43, 24, 23, 29]
4.02[43, 81, 183, 103, 43, 24, 23, 29]
4.02[43, 81, 183, 103, 43, 24, 23, 29]
4.02[43, 81, 183, 103, 43, 24, 23, 29]
4.02[43, 81, 183, 103, 43, 24, 23, 29]
4.02[47, 85, 203, 98, 38, 25, 23, 29]
4.03[47, 85, 203, 98, 38, 25, 23, 29]
4.03[47, 85, 203, 98, 38, 25, 23, 29]
4.03[47, 85, 203, 98, 38, 25, 23, 29]
4.03[47, 85, 203, 98, 38, 25, 23, 29]
4.03[47, 85, 203, 98, 38, 25, 23, 29]
4.03[47, 85, 203, 98, 38, 25, 23, 29]
4.03[47, 85, 203, 98, 38, 25, 23, 29]
4.03[47, 82, 240, 96, 43, 27, 23, 28]
4.05[47, 82, 240, 96, 43, 27, 23, 28]
4.05[47, 82, 240, 96, 43, 27, 23, 28]
4.05[47, 82, 240, 96, 43, 27, 23, 28]
4.05[47, 82, 240, 96, 43, 27, 23, 28]
4.05[47, 82, 240, 96, 43, 27, 23, 28]
4.05[47, 82, 240, 96, 43, 27, 23, 28]
4.05[47, 82, 240, 96, 43, 27, 23, 28]
4.05[47, 84, 236, 101, 43, 28, 24, 28]
4.08[47, 84, 236, 101, 43, 28, 24, 28]
4.08[47, 84, 236, 101, 43, 28, 24, 28]
4.08[47, 84, 236, 101, 43, 28, 24, 28]
4.08[47, 84, 236, 101, 43, 28, 24, 28]
4.08[47, 84, 236, 101, 43, 28, 24, 28]
4.08[47, 84, 236, 101, 43, 28, 24, 28]
4.08[47, 84, 236, 101, 43, 28, 24, 28]
4.08[45, 80, 244, 98, 45, 29, 23, 25]
4.09[45, 80, 244, 98, 45, 29, 23, 25]
4.09[45, 80, 244, 98, 45, 29, 23, 25]
4.09[45, 80, 244, 98, 45, 29, 23, 25]
4.09[45, 80, 244, 98, 45, 29, 23, 25]
4.09[45, 80, 244, 98, 45, 29, 23, 25]
4.09[45, 80, 244, 98, 45, 29, 23, 25]
4.09[45, 80, 244, 98, 45, 29, 23, 25]
4.09[41, 75, 235, 107, 39, 28, 21, 24]
4.11[41, 75, 235, 107, 39, 28, 21, 24]
4.11[41, 75, 235, 107, 39, 28, 21, 24]
4.11[41, 75, 235, 107, 39, 28, 21, 24]
4.11[41, 75, 235, 107, 39, 28, 21, 24]
4.11[41, 75, 235, 107, 39, 28, 21, 24]
4.11[41, 75, 235, 107, 39, 28, 21, 24]
4.11[41, 75, 235, 107, 39, 28, 21, 24]
4.11[38, 72, 248, 102, 38, 25, 21, 24]
4.14[38, 72, 248, 102, 38, 25, 21, 24]
4.14[38, 72, 248, 102, 38, 25, 21, 24]
4.14[38, 72, 248, 102, 38, 25, 21, 24]
4.14[38, 72, 248, 102, 38, 25, 21, 24]
4.14[38, 72, 248, 102, 38, 25, 21, 24]
4.14[38, 72, 248, 102, 38, 25, 21, 24]
4.14[38, 72, 248, 102, 38, 25, 21, 24]
4.14[37, 72, 212, 101, 35, 24, 19, 22]
4.15[37, 72, 212, 101, 35, 24, 19, 22]
4.15[37, 72, 212, 101, 35, 24, 19, 22]
4.15[37, 72, 212, 101, 35, 24, 19, 22]
4.15[37, 72, 212, 101, 35, 24, 19, 22]
4.15[37, 72, 212, 101, 35, 24, 19, 22]
4.15[37, 72, 212, 101, 35, 24, 19, 22]
4.15[37, 72, 212, 101, 35, 24, 19, 22]
4.15[36, 72, 219, 103, 39, 22, 21, 21]
4.17[36, 72, 219, 103, 39, 22, 21, 21]
4.17[36, 72, 219, 103, 39, 22, 21, 21]
4.17[36, 72, 219, 103, 39, 22, 21, 21]
4.17[36, 72, 219, 103, 39, 22, 21, 21]
4.17[36, 72, 219, 103, 39, 22, 21, 21]
4.17[36, 72, 219, 103, 39, 22, 21, 21]
4.17[36, 72, 219, 103, 39, 22, 21, 21]
4.17[36, 74, 213, 107, 39, 22, 24, 22]
4.19[36, 74, 213, 107, 39, 22, 24, 22]
4.19[36, 74, 213, 107, 39, 22, 24, 22]
4.19[36, 74, 213, 107, 39, 22, 24, 22]
4.19[36, 74, 213, 107, 39, 22, 24, 22]
4.19[36, 74, 213, 107, 39, 22, 24, 22]
4.19[36, 74, 213, 107, 39, 22, 24, 22]
4.19[36, 74, 213, 107, 39, 22, 24, 22]
4.19[34, 68, 223, 96, 39, 21, 24, 22]
4.21[34, 68, 223, 96, 39, 21, 24, 22]
4.21[34, 68, 223, 96, 39, 21, 24, 22]
4.21[34, 68, 223, 96, 39, 21, 24, 22]
4.21[34, 68, 223, 96, 39, 21, 24, 22]
4.21[34, 68, 223, 96, 39, 21, 24, 22]
4.21[34, 68, 223, 96, 39, 21, 24, 22]
4.21[34, 68, 223, 96, 39, 21, 24, 22]
4.21[31, 58, 183, 104, 38, 22, 23, 20]
4.23[31, 58, 183, 104, 38, 22, 23, 20]
4.23[31, 58, 183, 104, 38, 22, 23, 20]
4.23[31, 58, 183, 104, 38, 22, 23, 20]
4.23[31, 58, 183, 104, 38, 22, 23, 20]
4.23[31, 58, 183, 104, 38, 22, 23, 20]
4.23[31, 58, 183, 104, 38, 22, 23, 20]
4.23[31, 58, 183, 104, 38, 22, 23, 20]
4.23[33, 62, 181, 102, 43, 21, 25, 21]
4.26[33, 62, 181, 102, 43, 21, 25, 21]
4.26[33, 62, 181, 102, 43, 21, 25, 21]
4.26[33, 62, 181, 102, 43, 21, 25, 21]
4.26[33, 62, 181, 102, 43, 21, 25, 21]
4.26[33, 62, 181, 102, 43, 21, 25, 21]
4.26[33, 62, 181, 102, 43, 21, 25, 21]
4.26[33, 62, 181, 102, 43, 21, 25, 21]
4.26[31, 55, 175, 94, 39, 21, 22, 23]
4.27[31, 55, 175, 94, 39, 21, 22, 23]
4.27[31, 55, 175, 94, 39, 21, 22, 23]
4.27[31, 55, 175, 94, 39, 21, 22, 23]
4.27[31, 55, 175, 94, 39, 21, 22, 23]
4.27[31, 55, 175, 94, 39, 21, 22, 23]
4.27[31, 55, 175, 94, 39, 21, 22, 23]
4.27[31, 55, 175, 94, 39, 21, 22, 23]
4.27[30, 55, 190, 95, 38, 22, 19, 22]
4.29[30, 55, 190, 95, 38, 22, 19, 22]
4.29[30, 55, 190, 95, 38, 22, 19, 22]
4.29[30, 55, 190, 95, 38, 22, 19, 22]
4.29[30, 55, 190, 95, 38, 22, 19, 22]
4.29[30, 55, 190, 95, 38, 22, 19, 22]
4.29[30, 55, 190, 95, 38, 22, 19, 22]
4.29[30, 55, 190, 95, 38, 22, 19, 22]
4.29[30, 59, 220, 103, 39, 21, 19, 22]
4.32[30, 59, 220, 103, 39, 21, 19, 22]
4.32[30, 59, 220, 103, 39, 21, 19, 22]
4.32[30, 59, 220, 103, 39, 21, 19, 22]
4.32[30, 59, 220, 103, 39, 21, 19, 22]
4.32[30, 59, 220, 103, 39, 21, 19, 22]
4.32[30, 59, 220, 103, 39, 21, 19, 22]
4.32[30, 59, 220, 103, 39, 21, 19, 22]
4.32[34, 75, 244, 135, 52, 25, 20, 24]
4.34[34, 75, 244, 135, 52, 25, 20, 24]
4.34[34, 75, 244, 135, 52, 25, 20, 24]
4.34[34, 75, 244, 135, 52, 25, 20, 24]
4.34[34, 75, 244, 135, 52, 25, 20, 24]
4.34[34, 75, 244, 135, 52, 25, 20, 24]
4.34[34, 75, 244, 135, 52, 25, 20, 24]
4.34[34, 75, 244, 135, 52, 25, 20, 24]
4.34[30, 69, 242, 132, 49, 26, 18, 24]
4.35[30, 69, 242, 132, 49, 26, 18, 24]
4.35[30, 69, 242, 132, 49, 26, 18, 24]
4.35[30, 69, 242, 132, 49, 26, 18, 24]
4.35[30, 69, 242, 132, 49, 26, 18, 24]
4.35[30, 69, 242, 132, 49, 26, 18, 24]
4.35[30, 69, 242, 132, 49, 26, 18, 24]
4.35[30, 69, 242, 132, 49, 26, 18, 24]
4.35[31, 70, 232, 128, 49, 28, 18, 21]
4.38[31, 70, 232, 128, 49, 28, 18, 21]
4.38[31, 70, 232, 128, 49, 28, 18, 21]
4.38[31, 70, 232, 128, 49, 28, 18, 21]
4.38[31, 70, 232, 128, 49, 28, 18, 21]
4.38[31, 70, 232, 128, 49, 28, 18, 21]
4.38[31, 70, 232, 128, 49, 28, 18, 21]
4.38[31, 70, 232, 128, 49, 28, 18, 21]
4.38[40, 81, 234, 132, 51, 29, 21, 25]
4.4[40, 81, 234, 132, 51, 29, 21, 25]
4.4[40, 81, 234, 132, 51, 29, 21, 25]
4.4[40, 81, 234, 132, 51, 29, 21, 25]
4.4[40, 81, 234, 132, 51, 29, 21, 25]
4.4[40, 81, 234, 132, 51, 29, 21, 25]
4.4[40, 81, 234, 132, 51, 29, 21, 25]
4.4[40, 81, 234, 132, 51, 29, 21, 25]
4.4[40, 82, 199, 136, 57, 33, 21, 24]
4.41[40, 82, 199, 136, 57, 33, 21, 24]
4.41[40, 82, 199, 136, 57, 33, 21, 24]
4.41[40, 82, 199, 136, 57, 33, 21, 24]
4.41[40, 82, 199, 136, 57, 33, 21, 24]
4.41[40, 82, 199, 136, 57, 33, 21, 24]
4.41[40, 82, 199, 136, 57, 33, 21, 24]
4.41[40, 82, 199, 136, 57, 33, 21, 24]
4.41[37, 69, 177, 102, 50, 33, 21, 23]
4.44[37, 69, 177, 102, 50, 33, 21, 23]
4.44[37, 69, 177, 102, 50, 33, 21, 23]
4.44[37, 69, 177, 102, 50, 33, 21, 23]
4.44[37, 69, 177, 102, 50, 33, 21, 23]
4.44[37, 69, 177, 102, 50, 33, 21, 23]
4.44[37, 69, 177, 102, 50, 33, 21, 23]
4.44[37, 69, 177, 102, 50, 33, 21, 23]
4.44[42, 82, 206, 105, 49, 31, 23, 23]
4.47[42, 82, 206, 105, 49, 31, 23, 23]
4.47[42, 82, 206, 105, 49, 31, 23, 23]
4.47[42, 82, 206, 105, 49, 31, 23, 23]
4.47[42, 82, 206, 105, 49, 31, 23, 23]
4.47[42, 82, 206, 105, 49, 31, 23, 23]
4.47[42, 82, 206, 105, 49, 31, 23, 23]
4.47[42, 82, 206, 105, 49, 31, 23, 23]
4.47[41, 82, 210, 105, 48, 29, 23, 24]
4.47[41, 82, 210, 105, 48, 29, 23, 24]
4.47[41, 82, 210, 105, 48, 29, 23, 24]
4.47[41, 82, 210, 105, 48, 29, 23, 24]
4.47[41, 82, 210, 105, 48, 29, 23, 24]
4.47[41, 82, 210, 105, 48, 29, 23, 24]
4.47[41, 82, 210, 105, 48, 29, 23, 24]
4.47[41, 82, 210, 105, 48, 29, 23, 24]
4.47[37, 72, 189, 99, 47, 27, 19, 22]
4.5[37, 72, 189, 99, 47, 27, 19, 22]
4.5[37, 72, 189, 99, 47, 27, 19, 22]
4.5[37, 72, 189, 99, 47, 27, 19, 22]
4.5[37, 72, 189, 99, 47, 27, 19, 22]
4.5[37, 72, 189, 99, 47, 27, 19, 22]
4.5[37, 72, 189, 99, 47, 27, 19, 22]
4.5[37, 72, 189, 99, 47, 27, 19, 22]
4.5[39, 72, 189, 104, 41, 23, 22, 22]
4.52[39, 72, 189, 104, 41, 23, 22, 22]
4.52[39, 72, 189, 104, 41, 23, 22, 22]
4.52[39, 72, 189, 104, 41, 23, 22, 22]
4.52[39, 72, 189, 104, 41, 23, 22, 22]
4.52[39, 72, 189, 104, 41, 23, 22, 22]
4.52[39, 72, 189, 104, 41, 23, 22, 22]
4.52[39, 72, 189, 104, 41, 23, 22, 22]
4.52[40, 75, 180, 107, 47, 25, 22, 23]
4.53[40, 75, 180, 107, 47, 25, 22, 23]
4.53[40, 75, 180, 107, 47, 25, 22, 23]
4.53[40, 75, 180, 107, 47, 25, 22, 23]
4.53[40, 75, 180, 107, 47, 25, 22, 23]
4.53[40, 75, 180, 107, 47, 25, 22, 23]
4.53[40, 75, 180, 107, 47, 25, 22, 23]
4.53[40, 75, 180, 107, 47, 25, 22, 23]
4.53[36, 65, 132, 101, 44, 25, 20, 24]
4.56[36, 65, 132, 101, 44, 25, 20, 24]
4.56[36, 65, 132, 101, 44, 25, 20, 24]
4.56[36, 65, 132, 101, 44, 25, 20, 24]
4.56[36, 65, 132, 101, 44, 25, 20, 24]
4.56[36, 65, 132, 101, 44, 25, 20, 24]
4.56[36, 65, 132, 101, 44, 25, 20, 24]
4.56[36, 65, 132, 101, 44, 25, 20, 24]
4.56[40, 78, 192, 126, 46, 28, 23, 24]
4.58[40, 78, 192, 126, 46, 28, 23, 24]
4.58[40, 78, 192, 126, 46, 28, 23, 24]
4.58[40, 78, 192, 126, 46, 28, 23, 24]
4.58[40, 78, 192, 126, 46, 28, 23, 24]
4.58[40, 78, 192, 126, 46, 28, 23, 24]
4.58[40, 78, 192, 126, 46, 28, 23, 24]
4.58[40, 78, 192, 126, 46, 28, 23, 24]
4.58[41, 84, 240, 135, 53, 29, 24, 25]
4.59[41, 84, 240, 135, 53, 29, 24, 25]
4.59[41, 84, 240, 135, 53, 29, 24, 25]
4.59[41, 84, 240, 135, 53, 29, 24, 25]
4.59[41, 84, 240, 135, 53, 29, 24, 25]
4.59[41, 84, 240, 135, 53, 29, 24, 25]
4.59[41, 84, 240, 135, 53, 29, 24, 25]
4.59[41, 84, 240, 135, 53, 29, 24, 25]
4.59[38, 82, 243, 128, 54, 30, 22, 26]
4.62[38, 82, 243, 128, 54, 30, 22, 26]
4.62[38, 82, 243, 128, 54, 30, 22, 26]
4.62[38, 82, 243, 128, 54, 30, 22, 26]
4.62[38, 82, 243, 128, 54, 30, 22, 26]
4.62[38, 82, 243, 128, 54, 30, 22, 26]
4.62[38, 82, 243, 128, 54, 30, 22, 26]
4.62[38, 82, 243, 128, 54, 30, 22, 26]
4.62[35, 81, 259, 126, 45, 28, 21, 24]
4.64[35, 81, 259, 126, 45, 28, 21, 24]
4.64[35, 81, 259, 126, 45, 28, 21, 24]
4.64[35, 81, 259, 126, 45, 28, 21, 24]
4.64[35, 81, 259, 126, 45, 28, 21, 24]
4.64[35, 81, 259, 126, 45, 28, 21, 24]
4.64[35, 81, 259, 126, 45, 28, 21, 24]
4.64[35, 81, 259, 126, 45, 28, 21, 24]
4.64[37, 81, 269, 125, 47, 29, 24, 24]
4.65[37, 81, 269, 125, 47, 29, 24, 24]
4.65[37, 81, 269, 125, 47, 29, 24, 24]
4.65[37, 81, 269, 125, 47, 29, 24, 24]
4.65[37, 81, 269, 125, 47, 29, 24, 24]
4.65[37, 81, 269, 125, 47, 29, 24, 24]
4.65[37, 81, 269, 125, 47, 29, 24, 24]
4.65[37, 81, 269, 125, 47, 29, 24, 24]
4.65[36, 69, 242, 115, 51, 27, 23, 24]
4.68[36, 69, 242, 115, 51, 27, 23, 24]
4.68[36, 69, 242, 115, 51, 27, 23, 24]
4.68[36, 69, 242, 115, 51, 27, 23, 24]
4.68[36, 69, 242, 115, 51, 27, 23, 24]
4.68[36, 69, 242, 115, 51, 27, 23, 24]
4.68[36, 69, 242, 115, 51, 27, 23, 24]
4.68[36, 69, 242, 115, 51, 27, 23, 24]
4.68[30, 59, 197, 104, 44, 25, 24, 20]
4.7[30, 59, 197, 104, 44, 25, 24, 20]
4.7[30, 59, 197, 104, 44, 25, 24, 20]
4.7[30, 59, 197, 104, 44, 25, 24, 20]
4.7[30, 59, 197, 104, 44, 25, 24, 20]
4.7[30, 59, 197, 104, 44, 25, 24, 20]
4.7[30, 59, 197, 104, 44, 25, 24, 20]
4.7[30, 59, 197, 104, 44, 25, 24, 20]
4.7[35, 58, 200, 111, 42, 28, 25, 24]
4.71[35, 58, 200, 111, 42, 28, 25, 24]
4.71[35, 58, 200, 111, 42, 28, 25, 24]
4.71[35, 58, 200, 111, 42, 28, 25, 24]
4.71[35, 58, 200, 111, 42, 28, 25, 24]
4.71[35, 58, 200, 111, 42, 28, 25, 24]
4.71[35, 58, 200, 111, 42, 28, 25, 24]
4.71[35, 58, 200, 111, 42, 28, 25, 24]
4.71[36, 56, 180, 105, 42, 28, 25, 25]
4.74[36, 56, 180, 105, 42, 28, 25, 25]
4.74[36, 56, 180, 105, 42, 28, 25, 25]
4.74[36, 56, 180, 105, 42, 28, 25, 25]
4.74[36, 56, 180, 105, 42, 28, 25, 25]
4.74[36, 56, 180, 105, 42, 28, 25, 25]
4.74[36, 56, 180, 105, 42, 28, 25, 25]
4.74[36, 56, 180, 105, 42, 28, 25, 25]
4.74[36, 65, 222, 113, 50, 26, 24, 25]
4.76[36, 65, 222, 113, 50, 26, 24, 25]
4.76[36, 65, 222, 113, 50, 26, 24, 25]
4.76[36, 65, 222, 113, 50, 26, 24, 25]
4.76[36, 65, 222, 113, 50, 26, 24, 25]
4.76[36, 65, 222, 113, 50, 26, 24, 25]
4.76[36, 65, 222, 113, 50, 26, 24, 25]
4.76[36, 65, 222, 113, 50, 26, 24, 25]
4.76[35, 69, 215, 103, 49, 27, 24, 25]
4.77[35, 69, 215, 103, 49, 27, 24, 25]
4.77[35, 69, 215, 103, 49, 27, 24, 25]
4.77[35, 69, 215, 103, 49, 27, 24, 25]
4.77[35, 69, 215, 103, 49, 27, 24, 25]
4.77[35, 69, 215, 103, 49, 27, 24, 25]
4.77[35, 69, 215, 103, 49, 27, 24, 25]
4.77[35, 69, 215, 103, 49, 27, 24, 25]
4.77[38, 73, 237, 116, 50, 31, 25, 26]
4.8[38, 73, 237, 116, 50, 31, 25, 26]
4.8[38, 73, 237, 116, 50, 31, 25, 26]
4.8[38, 73, 237, 116, 50, 31, 25, 26]
4.8[38, 73, 237, 116, 50, 31, 25, 26]
4.8[38, 73, 237, 116, 50, 31, 25, 26]
4.8[38, 73, 237, 116, 50, 31, 25, 26]
4.8[38, 73, 237, 116, 50, 31, 25, 26]
4.8[38, 77, 295, 120, 52, 28, 23, 24]
4.82[38, 77, 295, 120, 52, 28, 23, 24]
4.82[38, 77, 295, 120, 52, 28, 23, 24]
4.82[38, 77, 295, 120, 52, 28, 23, 24]
4.82[38, 77, 295, 120, 52, 28, 23, 24]
4.82[38, 77, 295, 120, 52, 28, 23, 24]
4.82[38, 77, 295, 120, 52, 28, 23, 24]
4.82[38, 77, 295, 120, 52, 28, 23, 24]
4.82[38, 76, 300, 130, 54, 28, 23, 23]
4.83[38, 76, 300, 130, 54, 28, 23, 23]
4.83[38, 76, 300, 130, 54, 28, 23, 23]
4.83[38, 76, 300, 130, 54, 28, 23, 23]
4.83[38, 76, 300, 130, 54, 28, 23, 23]
4.83[38, 76, 300, 130, 54, 28, 23, 23]
4.83[38, 76, 300, 130, 54, 28, 23, 23]
4.83[38, 76, 300, 130, 54, 28, 23, 23]
4.83[39, 70, 261, 126, 45, 28, 21, 23]
4.85[39, 70, 261, 126, 45, 28, 21, 23]
4.86[39, 70, 261, 126, 45, 28, 21, 23]
4.86[39, 70, 261, 126, 45, 28, 21, 23]
4.86[39, 70, 261, 126, 45, 28, 21, 23]
4.86[39, 70, 261, 126, 45, 28, 21, 23]
4.86[39, 70, 261, 126, 45, 28, 21, 23]
4.86[39, 70, 261, 126, 45, 28, 21, 23]
4.86[38, 70, 254, 131, 42, 29, 21, 24]
4.88[38, 70, 254, 131, 42, 29, 21, 24]
4.88[38, 70, 254, 131, 42, 29, 21, 24]
4.88[38, 70, 254, 131, 42, 29, 21, 24]
4.88[38, 70, 254, 131, 42, 29, 21, 24]
4.88[38, 70, 254, 131, 42, 29, 21, 24]
4.88[38, 70, 254, 131, 42, 29, 21, 24]
4.88[38, 70, 254, 131, 42, 29, 21, 24]
4.88[37, 68, 293, 135, 41, 25, 20, 24]
4.89[37, 68, 293, 135, 41, 25, 20, 24]
4.89[37, 68, 293, 135, 41, 25, 20, 24]
4.89[37, 68, 293, 135, 41, 25, 20, 24]
4.89[37, 68, 293, 135, 41, 25, 20, 24]
4.89[37, 68, 293, 135, 41, 25, 20, 24]
4.89[37, 68, 293, 135, 41, 25, 20, 24]
4.89[37, 68, 293, 135, 41, 25, 20, 24]
4.89[37, 62, 271, 124, 39, 25, 23, 26]
4.92[37, 62, 271, 124, 39, 25, 23, 26]
4.92[37, 62, 271, 124, 39, 25, 23, 26]
4.92[37, 62, 271, 124, 39, 25, 23, 26]
4.92[37, 62, 271, 124, 39, 25, 23, 26]
4.92[37, 62, 271, 124, 39, 25, 23, 26]
4.92[37, 62, 271, 124, 39, 25, 23, 26]
4.92[37, 62, 271, 124, 39, 25, 23, 26]
4.92[37, 68, 302, 135, 40, 27, 24, 27]
4.94[37, 68, 302, 135, 40, 27, 24, 27]
4.94[37, 68, 302, 135, 40, 27, 24, 27]
4.94[37, 68, 302, 135, 40, 27, 24, 27]
4.94[37, 68, 302, 135, 40, 27, 24, 27]
4.94[37, 68, 302, 135, 40, 27, 24, 27]
4.94[37, 68, 302, 135, 40, 27, 24, 27]
4.94[37, 68, 302, 135, 40, 27, 24, 27]
4.94[33, 61, 306, 141, 46, 31, 24, 27]
4.95[33, 61, 306, 141, 46, 31, 24, 27]
4.95[33, 61, 306, 141, 46, 31, 24, 27]
4.95[33, 61, 306, 141, 46, 31, 24, 27]
4.95[33, 61, 306, 141, 46, 31, 24, 27]
4.95[33, 61, 306, 141, 46, 31, 24, 27]
4.95[33, 61, 306, 141, 46, 31, 24, 27]
4.95[33, 61, 306, 141, 46, 31, 24, 27]
4.95[35, 62, 304, 141, 46, 32, 24, 26]
4.97[35, 62, 304, 141, 46, 32, 24, 26]
4.97[35, 62, 304, 141, 46, 32, 24, 26]
4.97[35, 62, 304, 141, 46, 32, 24, 26]
4.97[35, 62, 304, 141, 46, 32, 24, 26]
4.97[35, 62, 304, 141, 46, 32, 24, 26]
4.97[35, 62, 304, 141, 46, 32, 24, 26]
4.97[35, 62, 304, 141, 46, 32, 24, 26]
4.97[37, 61, 282, 132, 48, 31, 23, 26]
5.0[37, 61, 282, 132, 48, 31, 23, 26]
5.0[37, 61, 282, 132, 48, 31, 23, 26]
5.0[37, 61, 282, 132, 48, 31, 23, 26]
5.0[37, 61, 282, 132, 48, 31, 23, 26]
5.0[37, 61, 282, 132, 48, 31, 23, 26]
5.0[37, 61, 282, 132, 48, 31, 23, 26]
5.0[37, 61, 282, 132, 48, 31, 23, 26]
5.0[34, 67, 256, 143, 49, 32, 22, 22]
5.01[34, 67, 256, 143, 49, 32, 22, 22]
5.01[34, 67, 256, 143, 49, 32, 22, 22]
5.01[34, 67, 256, 143, 49, 32, 22, 22]
5.01[34, 67, 256, 143, 49, 32, 22, 22]
5.01[34, 67, 256, 143, 49, 32, 22, 22]
5.01[34, 67, 256, 143, 49, 32, 22, 22]
5.01[34, 67, 256, 143, 49, 32, 22, 22]
5.01[36, 63, 227, 130, 49, 29, 21, 24]
5.04[36, 63, 227, 130, 49, 29, 21, 24]
5.04[36, 63, 227, 130, 49, 29, 21, 24]
5.04[36, 63, 227, 130, 49, 29, 21, 24]
5.04[36, 63, 227, 130, 49, 29, 21, 24]
5.04[36, 63, 227, 130, 49, 29, 21, 24]
5.04[36, 63, 227, 130, 49, 29, 21, 24]
5.04[36, 63, 227, 130, 49, 29, 21, 24]
5.04[37, 65, 238, 118, 44, 26, 21, 25]
5.06[37, 65, 238, 118, 44, 26, 21, 25]
5.06[37, 65, 238, 118, 44, 26, 21, 25]
5.06[37, 65, 238, 118, 44, 26, 21, 25]
5.06[37, 65, 238, 118, 44, 26, 21, 25]
5.06[37, 65, 238, 118, 44, 26, 21, 25]
5.06[37, 65, 238, 118, 44, 26, 21, 25]
5.06[37, 65, 238, 118, 44, 26, 21, 25]
5.06[38, 66, 250, 115, 46, 24, 22, 27]
5.07[38, 66, 250, 115, 46, 24, 22, 27]
5.07[38, 66, 250, 115, 46, 24, 22, 27]
5.07[38, 66, 250, 115, 46, 24, 22, 27]
5.07[38, 66, 250, 115, 46, 24, 22, 27]
5.07[38, 66, 250, 115, 46, 24, 22, 27]
5.07[38, 66, 250, 115, 46, 24, 22, 27]
5.07[38, 66, 250, 115, 46, 24, 22, 27]
5.07[37, 61, 214, 114, 42, 23, 24, 25]
5.1[37, 61, 214, 114, 42, 23, 24, 25]
5.1[37, 61, 214, 114, 42, 23, 24, 25]
5.1[37, 61, 214, 114, 42, 23, 24, 25]
5.1[37, 61, 214, 114, 42, 23, 24, 25]
5.1[37, 61, 214, 114, 42, 23, 24, 25]
5.1[37, 61, 214, 114, 42, 23, 24, 25]
5.1[37, 61, 214, 114, 42, 23, 24, 25]
5.1[38, 61, 221, 107, 41, 24, 23, 27]
5.12[38, 61, 221, 107, 41, 24, 23, 27]
5.12[38, 61, 221, 107, 41, 24, 23, 27]
5.12[38, 61, 221, 107, 41, 24, 23, 27]
5.12[38, 61, 221, 107, 41, 24, 23, 27]
5.12[38, 61, 221, 107, 41, 24, 23, 27]
5.12[38, 61, 221, 107, 41, 24, 23, 27]
5.12[38, 61, 221, 107, 41, 24, 23, 27]
5.12[40, 63, 219, 96, 38, 24, 23, 25]
5.13[40, 63, 219, 96, 38, 24, 23, 25]
5.13[40, 63, 219, 96, 38, 24, 23, 25]
5.13[40, 63, 219, 96, 38, 24, 23, 25]
5.13[40, 63, 219, 96, 38, 24, 23, 25]
5.13[40, 63, 219, 96, 38, 24, 23, 25]
5.13[40, 63, 219, 96, 38, 24, 23, 25]
5.13[40, 63, 219, 96, 38, 24, 23, 25]
5.13[39, 61, 211, 103, 39, 24, 23, 25]
5.16[39, 61, 211, 103, 39, 24, 23, 25]
5.16[39, 61, 211, 103, 39, 24, 23, 25]
5.16[39, 61, 211, 103, 39, 24, 23, 25]
5.16[39, 61, 211, 103, 39, 24, 23, 25]
5.16[39, 61, 211, 103, 39, 24, 23, 25]
5.16[39, 61, 211, 103, 39, 24, 23, 25]
5.16[39, 61, 211, 103, 39, 24, 23, 25]
5.16[39, 61, 198, 99, 37, 23, 21, 22]
5.18[39, 61, 198, 99, 37, 23, 21, 22]
5.18[39, 61, 198, 99, 37, 23, 21, 22]
5.18[39, 61, 198, 99, 37, 23, 21, 22]
5.18[39, 61, 198, 99, 37, 23, 21, 22]
5.18[39, 61, 198, 99, 37, 23, 21, 22]
5.18[39, 61, 198, 99, 37, 23, 21, 22]
5.18[39, 61, 198, 99, 37, 23, 21, 22]
5.18[41, 69, 277, 132, 38, 23, 19, 27]
5.19[41, 69, 277, 132, 38, 23, 19, 27]
5.19[41, 69, 277, 132, 38, 23, 19, 27]
5.19[41, 69, 277, 132, 38, 23, 19, 27]
5.19[41, 69, 277, 132, 38, 23, 19, 27]
5.19[41, 69, 277, 132, 38, 23, 19, 27]
5.19[41, 69, 277, 132, 38, 23, 19, 27]
5.19[41, 69, 277, 132, 38, 23, 19, 27]
5.19[44, 68, 281, 136, 41, 24, 22, 30]
5.22[44, 68, 281, 136, 41, 24, 22, 30]
5.22[44, 68, 281, 136, 41, 24, 22, 30]
5.22[44, 68, 281, 136, 41, 24, 22, 30]
5.22[44, 68, 281, 136, 41, 24, 22, 30]
5.22[44, 68, 281, 136, 41, 24, 22, 30]
5.22[44, 68, 281, 136, 41, 24, 22, 30]
5.22[44, 68, 281, 136, 41, 24, 22, 30]
5.22[41, 65, 269, 139, 42, 25, 22, 30]
5.24[41, 65, 269, 139, 42, 25, 22, 30]
5.24[41, 65, 269, 139, 42, 25, 22, 30]
5.24[41, 65, 269, 139, 42, 25, 22, 30]
5.24[41, 65, 269, 139, 42, 25, 22, 30]
5.24[41, 65, 269, 139, 42, 25, 22, 30]
5.24[41, 65, 269, 139, 42, 25, 22, 30]
5.24[41, 65, 269, 139, 42, 25, 22, 30]
5.24[44, 69, 265, 146, 43, 24, 21, 30]
5.25[44, 69, 265, 146, 43, 24, 21, 30]
5.25[44, 69, 265, 146, 43, 24, 21, 30]
5.25[44, 69, 265, 146, 43, 24, 21, 30]
5.25[44, 69, 265, 146, 43, 24, 21, 30]
5.25[44, 69, 265, 146, 43, 24, 21, 30]
5.25[44, 69, 265, 146, 43, 24, 21, 30]
5.25[44, 69, 265, 146, 43, 24, 21, 30]
5.25[42, 73, 298, 154, 46, 23, 22, 30]
5.28[42, 73, 298, 154, 46, 23, 22, 30]
5.28[42, 73, 298, 154, 46, 23, 22, 30]
5.28[42, 73, 298, 154, 46, 23, 22, 30]
5.28[42, 73, 298, 154, 46, 23, 22, 30]
5.28[42, 73, 298, 154, 46, 23, 22, 30]
5.28[42, 73, 298, 154, 46, 23, 22, 30]
5.28[42, 73, 298, 154, 46, 23, 22, 30]
5.28[37, 67, 277, 142, 47, 26, 21, 27]
5.3[37, 67, 277, 142, 47, 26, 21, 27]
5.3[37, 67, 277, 142, 47, 26, 21, 27]
5.3[37, 67, 277, 142, 47, 26, 21, 27]
5.3[37, 67, 277, 142, 47, 26, 21, 27]
5.3[37, 67, 277, 142, 47, 26, 21, 27]
5.3[37, 67, 277, 142, 47, 26, 21, 27]
5.3[37, 67, 277, 142, 47, 26, 21, 27]
5.3[35, 66, 271, 137, 48, 27, 19, 24]
5.32[35, 66, 271, 137, 48, 27, 19, 24]
5.32[35, 66, 271, 137, 48, 27, 19, 24]
5.32[35, 66, 271, 137, 48, 27, 19, 24]
5.32[35, 66, 271, 137, 48, 27, 19, 24]
5.32[35, 66, 271, 137, 48, 27, 19, 24]
5.32[35, 66, 271, 137, 48, 27, 19, 24]
5.32[35, 66, 271, 137, 48, 27, 19, 24]
5.32[36, 72, 274, 153, 49, 28, 21, 24]
5.34[36, 72, 274, 153, 49, 28, 21, 24]
5.34[36, 72, 274, 153, 49, 28, 21, 24]
5.34[36, 72, 274, 153, 49, 28, 21, 24]
5.34[36, 72, 274, 153, 49, 28, 21, 24]
5.34[36, 72, 274, 153, 49, 28, 21, 24]
5.34[36, 72, 274, 153, 49, 28, 21, 24]
5.34[36, 72, 274, 153, 49, 28, 21, 24]
5.34[36, 70, 272, 146, 48, 28, 22, 22]
5.36[36, 70, 272, 146, 48, 28, 22, 22]
5.36[36, 70, 272, 146, 48, 28, 22, 22]
5.36[36, 70, 272, 146, 48, 28, 22, 22]
5.36[36, 70, 272, 146, 48, 28, 22, 22]
5.36[36, 70, 272, 146, 48, 28, 22, 22]
5.36[36, 70, 272, 146, 48, 28, 22, 22]
5.36[36, 70, 272, 146, 48, 28, 22, 22]
5.36[41, 65, 243, 136, 45, 30, 23, 22]
5.38[41, 65, 243, 136, 45, 30, 23, 22]
5.38[41, 65, 243, 136, 45, 30, 23, 22]
5.38[41, 65, 243, 136, 45, 30, 23, 22]
5.38[41, 65, 243, 136, 45, 30, 23, 22]
5.38[41, 65, 243, 136, 45, 30, 23, 22]
5.38[41, 65, 243, 136, 45, 30, 23, 22]
5.38[41, 65, 243, 136, 45, 30, 23, 22]
5.38[44, 68, 219, 120, 45, 27, 24, 20]
5.4[44, 68, 219, 120, 45, 27, 24, 20]
5.4[44, 68, 219, 120, 45, 27, 24, 20]
5.4[44, 68, 219, 120, 45, 27, 24, 20]
5.4[44, 68, 219, 120, 45, 27, 24, 20]
5.4[44, 68, 219, 120, 45, 27, 24, 20]
5.4[44, 68, 219, 120, 45, 27, 24, 20]
5.4[44, 68, 219, 120, 45, 27, 24, 20]
5.4[43, 69, 199, 115, 43, 25, 23, 20]
5.42[43, 69, 199, 115, 43, 25, 23, 20]
5.42[43, 69, 199, 115, 43, 25, 23, 20]
5.42[43, 69, 199, 115, 43, 25, 23, 20]
5.42[43, 69, 199, 115, 43, 25, 23, 20]
5.42[43, 69, 199, 115, 43, 25, 23, 20]
5.42[43, 69, 199, 115, 43, 25, 23, 20]
5.42[43, 69, 199, 115, 43, 25, 23, 20]
5.42[42, 62, 209, 107, 42, 23, 22, 24]
5.44[42, 62, 209, 107, 42, 23, 22, 24]
5.44[42, 62, 209, 107, 42, 23, 22, 24]
5.44[42, 62, 209, 107, 42, 23, 22, 24]
5.44[42, 62, 209, 107, 42, 23, 22, 24]
5.44[42, 62, 209, 107, 42, 23, 22, 24]
5.44[42, 62, 209, 107, 42, 23, 22, 24]
5.44[42, 62, 209, 107, 42, 23, 22, 24]
5.44[42, 66, 223, 109, 42, 24, 22, 25]
5.46[42, 66, 223, 109, 42, 24, 22, 25]
5.46[42, 66, 223, 109, 42, 24, 22, 25]
5.46[42, 66, 223, 109, 42, 24, 22, 25]
5.46[42, 66, 223, 109, 42, 24, 22, 25]
5.46[42, 66, 223, 109, 42, 24, 22, 25]
5.46[42, 66, 223, 109, 42, 24, 22, 25]
5.46[42, 66, 223, 109, 42, 24, 22, 25]
5.46[41, 66, 212, 112, 43, 26, 20, 27]
5.48[41, 66, 212, 112, 43, 26, 20, 27]
5.48[41, 66, 212, 112, 43, 26, 20, 27]
5.48[41, 66, 212, 112, 43, 26, 20, 27]
5.48[41, 66, 212, 112, 43, 26, 20, 27]
5.48[41, 66, 212, 112, 43, 26, 20, 27]
5.48[41, 66, 212, 112, 43, 26, 20, 27]
5.48[41, 66, 212, 112, 43, 26, 20, 27]
5.48[41, 69, 183, 117, 47, 27, 19, 29]
5.5[41, 69, 183, 117, 47, 27, 19, 29]
5.5[41, 69, 183, 117, 47, 27, 19, 29]
5.5[41, 69, 183, 117, 47, 27, 19, 29]
5.5[41, 69, 183, 117, 47, 27, 19, 29]
5.5[41, 69, 183, 117, 47, 27, 19, 29]
5.5[41, 69, 183, 117, 47, 27, 19, 29]
5.5[41, 69, 183, 117, 47, 27, 19, 29]
5.5[40, 68, 197, 127, 45, 26, 20, 27]
5.51[40, 68, 197, 127, 45, 26, 20, 27]
5.51[40, 68, 197, 127, 45, 26, 20, 27]
5.51[40, 68, 197, 127, 45, 26, 20, 27]
5.51[40, 68, 197, 127, 45, 26, 20, 27]
5.52[40, 68, 197, 127, 45, 26, 20, 27]
5.52[40, 68, 197, 127, 45, 26, 20, 27]
5.52[40, 68, 197, 127, 45, 26, 20, 27]
5.52[41, 69, 241, 124, 48, 29, 20, 24]
5.54[41, 69, 241, 124, 48, 29, 20, 24]
5.54[41, 69, 241, 124, 48, 29, 20, 24]
5.54[41, 69, 241, 124, 48, 29, 20, 24]
5.54[41, 69, 241, 124, 48, 29, 20, 24]
5.54[41, 69, 241, 124, 48, 29, 20, 24]
5.54[41, 69, 241, 124, 48, 29, 20, 24]
5.54[41, 69, 241, 124, 48, 29, 20, 24]
5.54[46, 86, 279, 125, 49, 30, 19, 25]
5.56[46, 86, 279, 125, 49, 30, 19, 25]
5.56[46, 86, 279, 125, 49, 30, 19, 25]
5.56[46, 86, 279, 125, 49, 30, 19, 25]
5.56[46, 86, 279, 125, 49, 30, 19, 25]
5.56[46, 86, 279, 125, 49, 30, 19, 25]
5.56[46, 86, 279, 125, 49, 30, 19, 25]
5.56[46, 86, 279, 125, 49, 30, 19, 25]
5.56[43, 85, 280, 133, 49, 28, 20, 22]
5.58[43, 85, 280, 133, 49, 28, 20, 22]
5.58[43, 85, 280, 133, 49, 28, 20, 22]
5.58[43, 85, 280, 133, 49, 28, 20, 22]
5.58[43, 85, 280, 133, 49, 28, 20, 22]
5.58[43, 85, 280, 133, 49, 28, 20, 22]
5.58[43, 85, 280, 133, 49, 28, 20, 22]
5.58[43, 85, 280, 133, 49, 28, 20, 22]
5.58[42, 81, 273, 142, 49, 27, 21, 22]
5.6[42, 81, 273, 142, 49, 27, 21, 22]
5.6[42, 81, 273, 142, 49, 27, 21, 22]
5.6[42, 81, 273, 142, 49, 27, 21, 22]
5.6[42, 81, 273, 142, 49, 27, 21, 22]
5.6[42, 81, 273, 142, 49, 27, 21, 22]
5.6[42, 81, 273, 142, 49, 27, 21, 22]
5.6[42, 81, 273, 142, 49, 27, 21, 22]
5.6[40, 78, 273, 145, 49, 27, 20, 25]
5.62[40, 78, 273, 145, 49, 27, 20, 25]
5.62[40, 78, 273, 145, 49, 27, 20, 25]
5.62[40, 78, 273, 145, 49, 27, 20, 25]
5.62[40, 78, 273, 145, 49, 27, 20, 25]
5.62[40, 78, 273, 145, 49, 27, 20, 25]
5.62[40, 78, 273, 145, 49, 27, 20, 25]
5.62[40, 78, 273, 145, 49, 27, 20, 25]
5.62[39, 78, 229, 139, 47, 27, 23, 26]
5.63[39, 78, 229, 139, 47, 27, 23, 26]
5.63[39, 78, 229, 139, 47, 27, 23, 26]
5.63[39, 78, 229, 139, 47, 27, 23, 26]
5.63[39, 78, 229, 139, 47, 27, 23, 26]
5.63[39, 78, 229, 139, 47, 27, 23, 26]
5.63[39, 78, 229, 139, 47, 27, 23, 26]
5.63[39, 78, 229, 139, 47, 27, 23, 26]
5.63[33, 59, 220, 147, 49, 24, 26, 25]
5.66[33, 59, 220, 147, 49, 24, 26, 25]
5.66[33, 59, 220, 147, 49, 24, 26, 25]
5.66[33, 59, 220, 147, 49, 24, 26, 25]
5.66[33, 59, 220, 147, 49, 24, 26, 25]
5.66[33, 59, 220, 147, 49, 24, 26, 25]
5.66[33, 59, 220, 147, 49, 24, 26, 25]
5.66[33, 59, 220, 147, 49, 24, 26, 25]
5.66[30, 55, 257, 140, 50, 26, 25, 26]
5.68[30, 55, 257, 140, 50, 26, 25, 26]
5.68[30, 55, 257, 140, 50, 26, 25, 26]
5.68[30, 55, 257, 140, 50, 26, 25, 26]
5.68[30, 55, 257, 140, 50, 26, 25, 26]
5.68[30, 55, 257, 140, 50, 26, 25, 26]
5.68[30, 55, 257, 140, 50, 26, 25, 26]
5.68[30, 55, 257, 140, 50, 26, 25, 26]
5.68[31, 55, 267, 134, 46, 28, 25, 26]
5.69[31, 55, 267, 134, 46, 28, 25, 26]
5.69[31, 55, 267, 134, 46, 28, 25, 26]
5.69[31, 55, 267, 134, 46, 28, 25, 26]
5.69[31, 55, 267, 134, 46, 28, 25, 26]
5.69[31, 55, 267, 134, 46, 28, 25, 26]
5.7[31, 55, 267, 134, 46, 28, 25, 26]
5.7[31, 55, 267, 134, 46, 28, 25, 26]
5.7[34, 65, 275, 118, 45, 30, 25, 23]
5.72[34, 65, 275, 118, 45, 30, 25, 23]
5.72[34, 65, 275, 118, 45, 30, 25, 23]
5.72[34, 65, 275, 118, 45, 30, 25, 23]
5.72[34, 65, 275, 118, 45, 30, 25, 23]
5.72[34, 65, 275, 118, 45, 30, 25, 23]
5.72[34, 65, 275, 118, 45, 30, 25, 23]
5.72[34, 65, 275, 118, 45, 30, 25, 23]
5.72[35, 67, 296, 124, 45, 27, 22, 24]
5.74[35, 67, 296, 124, 45, 27, 22, 24]
5.74[35, 67, 296, 124, 45, 27, 22, 24]
5.74[35, 67, 296, 124, 45, 27, 22, 24]
5.74[35, 67, 296, 124, 45, 27, 22, 24]
5.74[35, 67, 296, 124, 45, 27, 22, 24]
5.74[35, 67, 296, 124, 45, 27, 22, 24]
5.74[35, 67, 296, 124, 45, 27, 22, 24]
5.74[34, 67, 271, 139, 41, 28, 19, 24]
5.76[34, 67, 271, 139, 41, 28, 19, 24]
5.76[34, 67, 271, 139, 41, 28, 19, 24]
5.76[34, 67, 271, 139, 41, 28, 19, 24]
5.76[34, 67, 271, 139, 41, 28, 19, 24]
5.76[34, 67, 271, 139, 41, 28, 19, 24]
5.76[34, 67, 271, 139, 41, 28, 19, 24]
5.76[34, 67, 271, 139, 41, 28, 19, 24]
5.76[34, 67, 235, 140, 37, 29, 22, 23]
5.78[34, 67, 235, 140, 37, 29, 22, 23]
5.78[34, 67, 235, 140, 37, 29, 22, 23]
5.78[34, 67, 235, 140, 37, 29, 22, 23]
5.78[34, 67, 235, 140, 37, 29, 22, 23]
5.78[34, 67, 235, 140, 37, 29, 22, 23]
5.78[34, 67, 235, 140, 37, 29, 22, 23]
5.78[34, 67, 235, 140, 37, 29, 22, 23]
5.78[36, 69, 233, 143, 34, 26, 23, 23]
5.8[36, 69, 233, 143, 34, 26, 23, 23]
5.8[36, 69, 233, 143, 34, 26, 23, 23]
5.8[36, 69, 233, 143, 34, 26, 23, 23]
5.8[36, 69, 233, 143, 34, 26, 23, 23]
5.8[36, 69, 233, 143, 34, 26, 23, 23]
5.8[36, 69, 233, 143, 34, 26, 23, 23]
5.8[36, 69, 233, 143, 34, 26, 23, 23]
5.8[38, 67, 226, 142, 37, 25, 24, 23]
5.81[38, 67, 226, 142, 37, 25, 24, 23]
5.81[38, 67, 226, 142, 37, 25, 24, 23]
5.81[38, 67, 226, 142, 37, 25, 24, 23]
5.81[38, 67, 226, 142, 37, 25, 24, 23]
5.81[38, 67, 226, 142, 37, 25, 24, 23]
5.81[38, 67, 226, 142, 37, 25, 24, 23]
5.81[38, 67, 226, 142, 37, 25, 24, 23]
5.81[40, 69, 204, 142, 38, 26, 25, 21]
5.84[40, 69, 204, 142, 38, 26, 25, 21]
5.84[40, 69, 204, 142, 38, 26, 25, 21]
5.84[40, 69, 204, 142, 38, 26, 25, 21]
5.84[40, 69, 204, 142, 38, 26, 25, 21]
5.84[40, 69, 204, 142, 38, 26, 25, 21]
5.84[40, 69, 204, 142, 38, 26, 25, 21]
5.84[40, 69, 204, 142, 38, 26, 25, 21]
5.84[39, 65, 199, 127, 38, 26, 25, 20]
5.86[39, 65, 199, 127, 38, 26, 25, 20]
5.86[39, 65, 199, 127, 38, 26, 25, 20]
5.86[39, 65, 199, 127, 38, 26, 25, 20]
5.86[39, 65, 199, 127, 38, 26, 25, 20]
5.86[39, 65, 199, 127, 38, 26, 25, 20]
5.86[39, 65, 199, 127, 38, 26, 25, 20]
5.86[39, 65, 199, 127, 38, 26, 25, 20]
5.86[43, 73, 219, 124, 38, 22, 23, 23]
5.88[43, 73, 219, 124, 38, 22, 23, 23]
5.88[43, 73, 219, 124, 38, 22, 23, 23]
5.88[43, 73, 219, 124, 38, 22, 23, 23]
5.88[43, 73, 219, 124, 38, 22, 23, 23]
5.88[43, 73, 219, 124, 38, 22, 23, 23]
5.88[43, 73, 219, 124, 38, 22, 23, 23]
5.88[43, 73, 219, 124, 38, 22, 23, 23]
5.88[42, 73, 217, 125, 41, 25, 21, 24]
5.9[42, 73, 217, 125, 41, 25, 21, 24]
5.9[42, 73, 217, 125, 41, 25, 21, 24]
5.9[42, 73, 217, 125, 41, 25, 21, 24]
5.9[42, 73, 217, 125, 41, 25, 21, 24]
5.9[42, 73, 217, 125, 41, 25, 21, 24]
5.9[42, 73, 217, 125, 41, 25, 21, 24]
5.9[42, 73, 217, 125, 41, 25, 21, 24]
5.9[40, 70, 217, 133, 42, 26, 21, 23]
5.92[40, 70, 217, 133, 42, 26, 21, 23]
5.92[40, 70, 217, 133, 42, 26, 21, 23]
5.92[40, 70, 217, 133, 42, 26, 21, 23]
5.92[40, 70, 217, 133, 42, 26, 21, 23]
5.92[40, 70, 217, 133, 42, 26, 21, 23]
5.92[40, 70, 217, 133, 42, 26, 21, 23]
5.92[40, 70, 217, 133, 42, 26, 21, 23]
5.92[37, 73, 277, 133, 41, 29, 20, 23]
5.94[37, 73, 277, 133, 41, 29, 20, 23]
5.94[37, 73, 277, 133, 41, 29, 20, 23]
5.94[37, 73, 277, 133, 41, 29, 20, 23]
5.94[37, 73, 277, 133, 41, 29, 20, 23]
5.94[37, 73, 277, 133, 41, 29, 20, 23]
5.94[37, 73, 277, 133, 41, 29, 20, 23]
5.94[37, 73, 277, 133, 41, 29, 20, 23]
5.94[44, 79, 270, 130, 42, 30, 20, 25]
5.96[44, 79, 270, 130, 42, 30, 20, 25]
5.96[44, 79, 270, 130, 42, 30, 20, 25]
5.96[44, 79, 270, 130, 42, 30, 20, 25]
5.96[44, 79, 270, 130, 42, 30, 20, 25]
5.96[44, 79, 270, 130, 42, 30, 20, 25]
5.96[44, 79, 270, 130, 42, 30, 20, 25]
5.96[44, 79, 270, 130, 42, 30, 20, 25]
5.96[41, 71, 253, 133, 42, 32, 20, 22]
5.98[41, 71, 253, 133, 42, 32, 20, 22]
5.98[41, 71, 253, 133, 42, 32, 20, 22]
5.98[41, 71, 253, 133, 42, 32, 20, 22]
5.98[41, 71, 253, 133, 42, 32, 20, 22]
5.98[41, 71, 253, 133, 42, 32, 20, 22]
5.98[41, 71, 253, 133, 42, 32, 20, 22]
5.98[41, 71, 253, 133, 42, 32, 20, 22]
5.98[41, 68, 244, 137, 48, 30, 20, 19]
6.0[41, 68, 244, 137, 48, 30, 20, 19]
6.0[41, 68, 244, 137, 48, 30, 20, 19]
6.0[41, 68, 244, 137, 48, 30, 20, 19]
6.0[41, 68, 244, 137, 48, 30, 20, 19]
6.0[41, 68, 244, 137, 48, 30, 20, 19]
6.0[41, 68, 244, 137, 48, 30, 20, 19]
6.0[41, 68, 244, 137, 48, 30, 20, 19]
6.0[41, 71, 247, 133, 47, 29, 20, 20]
6.02[41, 71, 247, 133, 47, 29, 20, 20]
6.02[41, 71, 247, 133, 47, 29, 20, 20]
6.02[41, 71, 247, 133, 47, 29, 20, 20]
6.02[41, 71, 247, 133, 47, 29, 20, 20]
6.02[41, 71, 247, 133, 47, 29, 20, 20]
6.02[41, 71, 247, 133, 47, 29, 20, 20]
6.02[41, 71, 247, 133, 47, 29, 20, 20]
6.02[41, 68, 196, 126, 45, 28, 21, 23]
6.04[41, 68, 196, 126, 45, 28, 21, 23]
6.04[41, 68, 196, 126, 45, 28, 21, 23]
6.04[41, 68, 196, 126, 45, 28, 21, 23]
6.04[41, 68, 196, 126, 45, 28, 21, 23]
6.04[41, 68, 196, 126, 45, 28, 21, 23]
6.04[41, 68, 196, 126, 45, 28, 21, 23]
6.04[41, 68, 196, 126, 45, 28, 21, 23]
6.04[35, 63, 211, 138, 48, 27, 20, 22]
6.06[35, 63, 211, 138, 48, 27, 20, 22]
6.06[35, 63, 211, 138, 48, 27, 20, 22]
6.06[35, 63, 211, 138, 48, 27, 20, 22]
6.06[35, 63, 211, 138, 48, 27, 20, 22]
6.06[35, 63, 211, 138, 48, 27, 20, 22]
6.06[35, 63, 211, 138, 48, 27, 20, 22]
6.06[35, 63, 211, 138, 48, 27, 20, 22]
6.06[44, 81, 218, 132, 52, 27, 22, 23]
6.08[44, 81, 218, 132, 52, 27, 22, 23]
6.08[44, 81, 218, 132, 52, 27, 22, 23]
6.08[44, 81, 218, 132, 52, 27, 22, 23]
6.08[44, 81, 218, 132, 52, 27, 22, 23]
6.08[44, 81, 218, 132, 52, 27, 22, 23]
6.08[44, 81, 218, 132, 52, 27, 22, 23]
6.08[44, 81, 218, 132, 52, 27, 22, 23]
6.08[45, 85, 232, 121, 51, 29, 23, 24]
6.1[45, 85, 232, 121, 51, 29, 23, 24]
6.1[45, 85, 232, 121, 51, 29, 23, 24]
6.1[45, 85, 232, 121, 51, 29, 23, 24]
6.1[45, 85, 232, 121, 51, 29, 23, 24]
6.1[45, 85, 232, 121, 51, 29, 23, 24]
6.1[45, 85, 232, 121, 51, 29, 23, 24]
6.1[45, 85, 232, 121, 51, 29, 23, 24]
6.1[44, 82, 233, 122, 50, 30, 23, 24]
6.11[44, 82, 233, 122, 50, 30, 23, 24]
6.12[44, 82, 233, 122, 50, 30, 23, 24]
6.12[44, 82, 233, 122, 50, 30, 23, 24]
6.12[44, 82, 233, 122, 50, 30, 23, 24]
6.12[44, 82, 233, 122, 50, 30, 23, 24]
6.12[44, 82, 233, 122, 50, 30, 23, 24]
6.12[44, 82, 233, 122, 50, 30, 23, 24]
6.12[47, 90, 239, 124, 53, 27, 24, 23]
6.14[47, 90, 239, 124, 53, 27, 24, 23]
6.14[47, 90, 239, 124, 53, 27, 24, 23]
6.14[47, 90, 239, 124, 53, 27, 24, 23]
6.14[47, 90, 239, 124, 53, 27, 24, 23]
6.14[47, 90, 239, 124, 53, 27, 24, 23]
6.14[47, 90, 239, 124, 53, 27, 24, 23]
6.14[47, 90, 239, 124, 53, 27, 24, 23]
6.14[49, 95, 224, 108, 51, 29, 24, 25]
6.16[49, 95, 224, 108, 51, 29, 24, 25]
6.16[49, 95, 224, 108, 51, 29, 24, 25]
6.16[49, 95, 224, 108, 51, 29, 24, 25]
6.16[49, 95, 224, 108, 51, 29, 24, 25]
6.16[49, 95, 224, 108, 51, 29, 24, 25]
6.16[49, 95, 224, 108, 51, 29, 24, 25]
6.16[49, 95, 224, 108, 51, 29, 24, 25]
6.16[41, 80, 217, 110, 47, 28, 23, 23]
6.18[41, 80, 217, 110, 47, 28, 23, 23]
6.18[41, 80, 217, 110, 47, 28, 23, 23]
6.18[41, 80, 217, 110, 47, 28, 23, 23]
6.18[41, 80, 217, 110, 47, 28, 23, 23]
6.18[41, 80, 217, 110, 47, 28, 23, 23]
6.18[41, 80, 217, 110, 47, 28, 23, 23]
6.18[41, 80, 217, 110, 47, 28, 23, 23]
6.18[41, 84, 210, 95, 40, 26, 23, 23]
6.2[41, 84, 210, 95, 40, 26, 23, 23]
6.2[41, 84, 210, 95, 40, 26, 23, 23]
6.2[41, 84, 210, 95, 40, 26, 23, 23]
6.2[41, 84, 210, 95, 40, 26, 23, 23]
6.2[41, 84, 210, 95, 40, 26, 23, 23]
6.2[41, 84, 210, 95, 40, 26, 23, 23]
6.2[41, 84, 210, 95, 40, 26, 23, 23]
6.2[45, 87, 199, 89, 44, 25, 23, 23]
6.22[45, 87, 199, 89, 44, 25, 23, 23]
6.22[45, 87, 199, 89, 44, 25, 23, 23]
6.22[45, 87, 199, 89, 44, 25, 23, 23]
6.22[45, 87, 199, 89, 44, 25, 23, 23]
6.22[45, 87, 199, 89, 44, 25, 23, 23]
6.22[45, 87, 199, 89, 44, 25, 23, 23]
6.22[45, 87, 199, 89, 44, 25, 23, 23]
6.22[43, 80, 167, 106, 44, 28, 22, 25]
6.24[43, 80, 167, 106, 44, 28, 22, 25]
6.24[43, 80, 167, 106, 44, 28, 22, 25]
6.24[43, 80, 167, 106, 44, 28, 22, 25]
6.24[43, 80, 167, 106, 44, 28, 22, 25]
6.24[43, 80, 167, 106, 44, 28, 22, 25]
6.24[43, 80, 167, 106, 44, 28, 22, 25]
6.24[43, 80, 167, 106, 44, 28, 22, 25]
6.24[41, 75, 185, 103, 40, 26, 22, 23]
6.26[41, 75, 185, 103, 40, 26, 22, 23]
6.26[41, 75, 185, 103, 40, 26, 22, 23]
6.26[41, 75, 185, 103, 40, 26, 22, 23]
6.26[41, 75, 185, 103, 40, 26, 22, 23]
6.26[41, 75, 185, 103, 40, 26, 22, 23]
6.26[41, 75, 185, 103, 40, 26, 22, 23]
6.26[41, 75, 185, 103, 40, 26, 22, 23]
6.26[44, 81, 185, 106, 41, 27, 21, 24]
6.28[44, 81, 185, 106, 41, 27, 21, 24]
6.28[44, 81, 185, 106, 41, 27, 21, 24]
6.28[44, 81, 185, 106, 41, 27, 21, 24]
6.28[44, 81, 185, 106, 41, 27, 21, 24]
6.28[44, 81, 185, 106, 41, 27, 21, 24]
6.28[44, 81, 185, 106, 41, 27, 21, 24]
6.28[44, 81, 185, 106, 41, 27, 21, 24]
6.28[42, 79, 185, 121, 46, 26, 21, 23]
6.3[42, 79, 185, 121, 46, 26, 21, 23]
6.3[42, 79, 185, 121, 46, 26, 21, 23]
6.3[42, 79, 185, 121, 46, 26, 21, 23]
6.3[42, 79, 185, 121, 46, 26, 21, 23]
6.3[42, 79, 185, 121, 46, 26, 21, 23]
6.3[42, 79, 185, 121, 46, 26, 21, 23]
6.3[42, 79, 185, 121, 46, 26, 21, 23]
6.3[44, 82, 169, 121, 45, 30, 20, 24]
6.32[44, 82, 169, 121, 45, 30, 20, 24]
6.32[44, 82, 169, 121, 45, 30, 20, 24]
6.32[44, 82, 169, 121, 45, 30, 20, 24]
6.32[44, 82, 169, 121, 45, 30, 20, 24]
6.32[44, 82, 169, 121, 45, 30, 20, 24]
6.32[44, 82, 169, 121, 45, 30, 20, 24]
6.32[44, 82, 169, 121, 45, 30, 20, 24]
6.32[44, 75, 171, 106, 42, 28, 20, 22]
6.34[44, 75, 171, 106, 42, 28, 20, 22]
6.34[44, 75, 171, 106, 42, 28, 20, 22]
6.34[44, 75, 171, 106, 42, 28, 20, 22]
6.34[44, 75, 171, 106, 42, 28, 20, 22]
6.34[44, 75, 171, 106, 42, 28, 20, 22]
6.34[44, 75, 171, 106, 42, 28, 20, 22]
6.34[44, 75, 171, 106, 42, 28, 20, 22]
6.34[42, 72, 158, 106, 43, 29, 19, 23]
6.36[42, 72, 158, 106, 43, 29, 19, 23]
6.36[42, 72, 158, 106, 43, 29, 19, 23]
6.36[42, 72, 158, 106, 43, 29, 19, 23]
6.36[42, 72, 158, 106, 43, 29, 19, 23]
6.36[42, 72, 158, 106, 43, 29, 19, 23]
6.36[42, 72, 158, 106, 43, 29, 19, 23]
6.36[42, 72, 158, 106, 43, 29, 19, 23]
6.36[41, 71, 231, 102, 43, 29, 20, 23]
6.38[41, 71, 231, 102, 43, 29, 20, 23]
6.38[41, 71, 231, 102, 43, 29, 20, 23]
6.38[41, 71, 231, 102, 43, 29, 20, 23]
6.38[41, 71, 231, 102, 43, 29, 20, 23]
6.38[41, 71, 231, 102, 43, 29, 20, 23]
6.38[41, 71, 231, 102, 43, 29, 20, 23]
6.38[41, 71, 231, 102, 43, 29, 20, 23]
6.38[39, 66, 258, 97, 45, 33, 20, 23]
6.4[39, 66, 258, 97, 45, 33, 20, 23]
6.4[39, 66, 258, 97, 45, 33, 20, 23]
6.4[39, 66, 258, 97, 45, 33, 20, 23]
6.4[39, 66, 258, 97, 45, 33, 20, 23]
6.4[39, 66, 258, 97, 45, 33, 20, 23]
6.4[39, 66, 258, 97, 45, 33, 20, 23]
6.4[39, 66, 258, 97, 45, 33, 20, 23]
6.4[34, 59, 274, 95, 40, 29, 21, 23]
6.42[34, 59, 274, 95, 40, 29, 21, 23]
6.42[34, 59, 274, 95, 40, 29, 21, 23]
6.42[34, 59, 274, 95, 40, 29, 21, 23]
6.42[34, 59, 274, 95, 40, 29, 21, 23]
6.42[34, 59, 274, 95, 40, 29, 21, 23]
6.42[34, 59, 274, 95, 40, 29, 21, 23]
6.42[34, 59, 274, 95, 40, 29, 21, 23]
6.42[33, 63, 278, 93, 41, 29, 21, 21]
6.44[33, 63, 278, 93, 41, 29, 21, 21]
6.44[33, 63, 278, 93, 41, 29, 21, 21]
6.44[33, 63, 278, 93, 41, 29, 21, 21]
6.44[33, 63, 278, 93, 41, 29, 21, 21]
6.44[33, 63, 278, 93, 41, 29, 21, 21]
6.44[33, 63, 278, 93, 41, 29, 21, 21]
6.44[33, 63, 278, 93, 41, 29, 21, 21]
6.44[47, 93, 275, 90, 43, 30, 22, 22]
6.46[47, 93, 275, 90, 43, 30, 22, 22]
6.46[47, 93, 275, 90, 43, 30, 22, 22]
6.46[47, 93, 275, 90, 43, 30, 22, 22]
6.46[47, 93, 275, 90, 43, 30, 22, 22]
6.46[47, 93, 275, 90, 43, 30, 22, 22]
6.46[47, 93, 275, 90, 43, 30, 22, 22]
6.46[47, 93, 275, 90, 43, 30, 22, 22]
6.46[45, 91, 233, 110, 46, 29, 22, 21]
6.48[45, 91, 233, 110, 46, 29, 22, 21]
6.48[45, 91, 233, 110, 46, 29, 22, 21]
6.48[45, 91, 233, 110, 46, 29, 22, 21]
6.48[45, 91, 233, 110, 46, 29, 22, 21]
6.48[45, 91, 233, 110, 46, 29, 22, 21]
6.48[45, 91, 233, 110, 46, 29, 22, 21]
6.48[45, 91, 233, 110, 46, 29, 22, 21]
6.48[46, 91, 200, 103, 41, 27, 21, 21]
6.5[46, 91, 200, 103, 41, 27, 21, 21]
6.5[46, 91, 200, 103, 41, 27, 21, 21]
6.5[46, 91, 200, 103, 41, 27, 21, 21]
6.5[46, 91, 200, 103, 41, 27, 21, 21]
6.5[46, 91, 200, 103, 41, 27, 21, 21]
6.5[46, 91, 200, 103, 41, 27, 21, 21]
6.5[46, 91, 200, 103, 41, 27, 21, 21]
6.5[48, 98, 194, 101, 41, 27, 21, 21]
6.52[48, 98, 194, 101, 41, 27, 21, 21]
6.52[48, 98, 194, 101, 41, 27, 21, 21]
6.52[48, 98, 194, 101, 41, 27, 21, 21]
6.52[48, 98, 194, 101, 41, 27, 21, 21]
6.52[48, 98, 194, 101, 41, 27, 21, 21]
6.52[48, 98, 194, 101, 41, 27, 21, 21]
6.52[48, 98, 194, 101, 41, 27, 21, 21]
6.52[47, 96, 200, 107, 40, 26, 21, 23]
6.54[47, 96, 200, 107, 40, 26, 21, 23]
6.54[47, 96, 200, 107, 40, 26, 21, 23]
6.54[47, 96, 200, 107, 40, 26, 21, 23]
6.54[47, 96, 200, 107, 40, 26, 21, 23]
6.54[47, 96, 200, 107, 40, 26, 21, 23]
6.54[47, 96, 200, 107, 40, 26, 21, 23]
6.54[47, 96, 200, 107, 40, 26, 21, 23]
6.54[38, 74, 237, 122, 44, 27, 21, 24]
6.56[38, 74, 237, 122, 44, 27, 21, 24]
6.56[38, 74, 237, 122, 44, 27, 21, 24]
6.56[38, 74, 237, 122, 44, 27, 21, 24]
6.56[38, 74, 237, 122, 44, 27, 21, 24]
6.56[38, 74, 237, 122, 44, 27, 21, 24]
6.56[38, 74, 237, 122, 44, 27, 21, 24]
6.56[38, 74, 237, 122, 44, 27, 21, 24]
6.56[40, 74, 233, 131, 45, 28, 21, 27]
6.58[40, 74, 233, 131, 45, 28, 21, 27]
6.58[40, 74, 233, 131, 45, 28, 21, 27]
6.58[40, 74, 233, 131, 45, 28, 21, 27]
6.58[40, 74, 233, 131, 45, 28, 21, 27]
6.58[40, 74, 233, 131, 45, 28, 21, 27]
6.58[40, 74, 233, 131, 45, 28, 21, 27]
6.58[40, 74, 233, 131, 45, 28, 21, 27]
6.58[49, 88, 329, 147, 48, 27, 22, 27]
6.61[49, 88, 329, 147, 48, 27, 22, 27]
6.61[49, 88, 329, 147, 48, 27, 22, 27]
6.61[49, 88, 329, 147, 48, 27, 22, 27]
6.61[49, 88, 329, 147, 48, 27, 22, 27]
6.61[49, 88, 329, 147, 48, 27, 22, 27]
6.61[49, 88, 329, 147, 48, 27, 22, 27]
6.61[49, 88, 329, 147, 48, 27, 22, 27]
6.61[47, 80, 325, 149, 48, 27, 21, 26]
6.62[47, 80, 325, 149, 48, 27, 21, 26]
6.62[47, 80, 325, 149, 48, 27, 21, 26]
6.62[47, 80, 325, 149, 48, 27, 21, 26]
6.62[47, 80, 325, 149, 48, 27, 21, 26]
6.62[47, 80, 325, 149, 48, 27, 21, 26]
6.62[47, 80, 325, 149, 48, 27, 21, 26]
6.62[47, 80, 325, 149, 48, 27, 21, 26]
6.62[48, 86, 329, 147, 50, 28, 20, 25]
6.64[48, 86, 329, 147, 50, 28, 20, 25]
6.64[48, 86, 329, 147, 50, 28, 20, 25]
6.64[48, 86, 329, 147, 50, 28, 20, 25]
6.64[48, 86, 329, 147, 50, 28, 20, 25]
6.64[48, 86, 329, 147, 50, 28, 20, 25]
6.64[48, 86, 329, 147, 50, 28, 20, 25]
6.64[48, 86, 329, 147, 50, 28, 20, 25]
6.64[52, 86, 314, 141, 45, 24, 21, 23]
6.66[52, 86, 314, 141, 45, 24, 21, 23]
6.66[52, 86, 314, 141, 45, 24, 21, 23]
6.66[52, 86, 314, 141, 45, 24, 21, 23]
6.66[52, 86, 314, 141, 45, 24, 21, 23]
6.66[52, 86, 314, 141, 45, 24, 21, 23]
6.66[52, 86, 314, 141, 45, 24, 21, 23]
6.66[52, 86, 314, 141, 45, 24, 21, 23]
6.66[52, 90, 341, 117, 41, 24, 21, 21]
6.68[52, 90, 341, 117, 41, 24, 21, 21]
6.68[52, 90, 341, 117, 41, 24, 21, 21]
6.68[52, 90, 341, 117, 41, 24, 21, 21]
6.68[52, 90, 341, 117, 41, 24, 21, 21]
6.68[52, 90, 341, 117, 41, 24, 21, 21]
6.68[52, 90, 341, 117, 41, 24, 21, 21]
6.68[52, 90, 341, 117, 41, 24, 21, 21]
6.68[44, 78, 278, 98, 38, 24, 20, 20]
6.7[44, 78, 278, 98, 38, 24, 20, 20]
6.7[44, 78, 278, 98, 38, 24, 20, 20]
6.7[44, 78, 278, 98, 38, 24, 20, 20]
6.7[44, 78, 278, 98, 38, 24, 20, 20]
6.7[44, 78, 278, 98, 38, 24, 20, 20]
6.7[44, 78, 278, 98, 38, 24, 20, 20]
6.7[44, 78, 278, 98, 38, 24, 20, 20]
6.7[45, 79, 302, 104, 44, 25, 22, 23]
6.72[45, 79, 302, 104, 44, 25, 22, 23]
6.72[45, 79, 302, 104, 44, 25, 22, 23]
6.72[45, 79, 302, 104, 44, 25, 22, 23]
6.72[45, 79, 302, 104, 44, 25, 22, 23]
6.72[45, 79, 302, 104, 44, 25, 22, 23]
6.72[45, 79, 302, 104, 44, 25, 22, 23]
6.72[45, 79, 302, 104, 44, 25, 22, 23]
6.72[42, 71, 299, 111, 44, 24, 22, 24]
6.74[42, 71, 299, 111, 44, 24, 22, 24]
6.74[42, 71, 299, 111, 44, 24, 22, 24]
6.74[42, 71, 299, 111, 44, 24, 22, 24]
6.74[42, 71, 299, 111, 44, 24, 22, 24]
6.74[42, 71, 299, 111, 44, 24, 22, 24]
6.74[42, 71, 299, 111, 44, 24, 22, 24]
6.74[42, 71, 299, 111, 44, 24, 22, 24]
6.74[36, 68, 320, 102, 43, 26, 21, 25]
6.76[36, 68, 320, 102, 43, 26, 21, 25]
6.76[36, 68, 320, 102, 43, 26, 21, 25]
6.76[36, 68, 320, 102, 43, 26, 21, 25]
6.76[36, 68, 320, 102, 43, 26, 21, 25]
6.76[36, 68, 320, 102, 43, 26, 21, 25]
6.76[36, 68, 320, 102, 43, 26, 21, 25]
6.76[36, 68, 320, 102, 43, 26, 21, 25]
6.76[40, 60, 347, 112, 43, 27, 23, 28]
6.78[40, 60, 347, 112, 43, 27, 23, 28]
6.78[40, 60, 347, 112, 43, 27, 23, 28]
6.78[40, 60, 347, 112, 43, 27, 23, 28]
6.78[40, 60, 347, 112, 43, 27, 23, 28]
6.78[40, 60, 347, 112, 43, 27, 23, 28]
6.78[40, 60, 347, 112, 43, 27, 23, 28]
6.78[40, 60, 347, 112, 43, 27, 23, 28]
6.78[40, 52, 340, 127, 44, 31, 23, 27]
6.8[40, 52, 340, 127, 44, 31, 23, 27]
6.8[40, 52, 340, 127, 44, 31, 23, 27]
6.8[40, 52, 340, 127, 44, 31, 23, 27]
6.8[40, 52, 340, 127, 44, 31, 23, 27]
6.8[40, 52, 340, 127, 44, 31, 23, 27]
6.8[40, 52, 340, 127, 44, 31, 23, 27]
6.8[40, 52, 340, 127, 44, 31, 23, 27]
6.8[44, 57, 345, 135, 41, 30, 24, 26]
6.82[44, 57, 345, 135, 41, 30, 24, 26]
6.82[44, 57, 345, 135, 41, 30, 24, 26]
6.82[44, 57, 345, 135, 41, 30, 24, 26]
6.82[44, 57, 345, 135, 41, 30, 24, 26]
6.82[44, 57, 345, 135, 41, 30, 24, 26]
6.82[44, 57, 345, 135, 41, 30, 24, 26]
6.82[44, 57, 345, 135, 41, 30, 24, 26]
6.82[47, 68, 343, 130, 38, 31, 24, 25]
6.84[47, 68, 343, 130, 38, 31, 24, 25]
6.84[47, 68, 343, 130, 38, 31, 24, 25]
6.84[47, 68, 343, 130, 38, 31, 24, 25]
6.84[47, 68, 343, 130, 38, 31, 24, 25]
6.84[47, 68, 343, 130, 38, 31, 24, 25]
6.84[47, 68, 343, 130, 38, 31, 24, 25]
6.84[47, 68, 343, 130, 38, 31, 24, 25]
6.84[45, 70, 332, 136, 41, 30, 24, 25]
6.86[45, 70, 332, 136, 41, 30, 24, 25]
6.86[45, 70, 332, 136, 41, 30, 24, 25]
6.86[45, 70, 332, 136, 41, 30, 24, 25]
6.86[45, 70, 332, 136, 41, 30, 24, 25]
6.86[45, 70, 332, 136, 41, 30, 24, 25]
6.86[45, 70, 332, 136, 41, 30, 24, 25]
6.86[45, 70, 332, 136, 41, 30, 24, 25]
6.86[41, 78, 291, 131, 40, 28, 22, 22]
6.88[41, 78, 291, 131, 40, 28, 22, 22]
6.88[41, 78, 291, 131, 40, 28, 22, 22]
6.88[41, 78, 291, 131, 40, 28, 22, 22]
6.88[41, 78, 291, 131, 40, 28, 22, 22]
6.88[41, 78, 291, 131, 40, 28, 22, 22]
6.88[41, 78, 291, 131, 40, 28, 22, 22]
6.88[41, 78, 291, 131, 40, 28, 22, 22]
6.88[44, 85, 286, 120, 39, 26, 24, 25]
6.9[44, 85, 286, 120, 39, 26, 24, 25]
6.9[44, 85, 286, 120, 39, 26, 24, 25]
6.9[44, 85, 286, 120, 39, 26, 24, 25]
6.9[44, 85, 286, 120, 39, 26, 24, 25]
6.9[44, 85, 286, 120, 39, 26, 24, 25]
6.9[44, 85, 286, 120, 39, 26, 24, 25]
6.9[44, 85, 286, 120, 39, 26, 24, 25]
6.9[38, 84, 275, 104, 37, 25, 23, 24]
6.92[38, 84, 275, 104, 37, 25, 23, 24]
6.92[38, 84, 275, 104, 37, 25, 23, 24]
6.92[38, 84, 275, 104, 37, 25, 23, 24]
6.92[38, 84, 275, 104, 37, 25, 23, 24]
6.92[38, 84, 275, 104, 37, 25, 23, 24]
6.92[38, 84, 275, 104, 37, 25, 23, 24]
6.92[38, 84, 275, 104, 37, 25, 23, 24]
6.92[36, 79, 261, 100, 42, 26, 24, 25]
6.94[36, 79, 261, 100, 42, 26, 24, 25]
6.94[36, 79, 261, 100, 42, 26, 24, 25]
6.94[36, 79, 261, 100, 42, 26, 24, 25]
6.94[36, 79, 261, 100, 42, 26, 24, 25]
6.94[36, 79, 261, 100, 42, 26, 24, 25]
6.94[36, 79, 261, 100, 42, 26, 24, 25]
6.94[36, 79, 261, 100, 42, 26, 24, 25]
6.94[40, 75, 260, 89, 41, 27, 24, 24]
6.96[40, 75, 260, 89, 41, 27, 24, 24]
6.96[40, 75, 260, 89, 41, 27, 24, 24]
6.96[40, 75, 260, 89, 41, 27, 24, 24]
6.96[40, 75, 260, 89, 41, 27, 24, 24]
6.96[40, 75, 260, 89, 41, 27, 24, 24]
6.96[40, 75, 260, 89, 41, 27, 24, 24]
6.96[40, 75, 260, 89, 41, 27, 24, 24]
6.96[38, 72, 303, 79, 40, 27, 23, 24]
6.98[38, 72, 303, 79, 40, 27, 23, 24]
6.98[38, 72, 303, 79, 40, 27, 23, 24]
6.98[38, 72, 303, 79, 40, 27, 23, 24]
6.98[38, 72, 303, 79, 40, 27, 23, 24]
6.98[38, 72, 303, 79, 40, 27, 23, 24]
6.98[38, 72, 303, 79, 40, 27, 23, 24]
6.98[38, 72, 303, 79, 40, 27, 23, 24]
6.98[34, 67, 312, 86, 39, 25, 22, 22]
7.0[34, 67, 312, 86, 39, 25, 22, 22]
7.0[34, 67, 312, 86, 39, 25, 22, 22]
7.0[34, 67, 312, 86, 39, 25, 22, 22]
7.0[34, 67, 312, 86, 39, 25, 22, 22]
7.0[34, 67, 312, 86, 39, 25, 22, 22]
7.0[34, 67, 312, 86, 39, 25, 22, 22]
7.0[34, 67, 312, 86, 39, 25, 22, 22]
7.0[36, 67, 290, 93, 44, 26, 21, 22]
7.02[36, 67, 290, 93, 44, 26, 21, 22]
7.02[36, 67, 290, 93, 44, 26, 21, 22]
7.02[36, 67, 290, 93, 44, 26, 21, 22]
7.02[36, 67, 290, 93, 44, 26, 21, 22]
7.02[36, 67, 290, 93, 44, 26, 21, 22]
7.02[36, 67, 290, 93, 44, 26, 21, 22]
7.02[36, 67, 290, 93, 44, 26, 21, 22]
7.02[36, 66, 337, 99, 43, 26, 23, 23]
7.04[36, 66, 337, 99, 43, 26, 23, 23]
7.04[36, 66, 337, 99, 43, 26, 23, 23]
7.04[36, 66, 337, 99, 43, 26, 23, 23]
7.04[36, 66, 337, 99, 43, 26, 23, 23]
7.04[36, 66, 337, 99, 43, 26, 23, 23]
7.04[36, 66, 337, 99, 43, 26, 23, 23]
7.04[36, 66, 337, 99, 43, 26, 23, 23]
7.04[34, 70, 336, 100, 41, 25, 22, 24]
7.06[34, 70, 336, 100, 41, 25, 22, 24]
7.06[34, 70, 336, 100, 41, 25, 22, 24]
7.06[34, 70, 336, 100, 41, 25, 22, 24]
7.06[34, 70, 336, 100, 41, 25, 22, 24]
7.06[34, 70, 336, 100, 41, 25, 22, 24]
7.06[34, 70, 336, 100, 41, 25, 22, 24]
7.06[34, 70, 336, 100, 41, 25, 22, 24]
7.06[34, 69, 292, 105, 39, 27, 24, 23]
7.08[34, 69, 292, 105, 39, 27, 24, 23]
7.08[34, 69, 292, 105, 39, 27, 24, 23]
7.08[34, 69, 292, 105, 39, 27, 24, 23]
7.08[34, 69, 292, 105, 39, 27, 24, 23]
7.08[34, 69, 292, 105, 39, 27, 24, 23]
7.08[34, 69, 292, 105, 39, 27, 24, 23]
7.08[34, 69, 292, 105, 39, 27, 24, 23]
7.08[35, 72, 262, 101, 40, 27, 23, 22]
7.1[35, 72, 262, 101, 40, 27, 23, 22]
7.1[35, 72, 262, 101, 40, 27, 23, 22]
7.1[35, 72, 262, 101, 40, 27, 23, 22]
7.1[35, 72, 262, 101, 40, 27, 23, 22]
7.1[35, 72, 262, 101, 40, 27, 23, 22]
7.1[35, 72, 262, 101, 40, 27, 23, 22]
7.1[35, 72, 262, 101, 40, 27, 23, 22]
7.1[35, 69, 275, 95, 33, 27, 23, 22]
7.12[35, 69, 275, 95, 33, 27, 23, 22]
7.12[35, 69, 275, 95, 33, 27, 23, 22]
7.12[35, 69, 275, 95, 33, 27, 23, 22]
7.12[35, 69, 275, 95, 33, 27, 23, 22]
7.12[35, 69, 275, 95, 33, 27, 23, 22]
7.12[35, 69, 275, 95, 33, 27, 23, 22]
7.12[35, 69, 275, 95, 33, 27, 23, 22]
7.12[39, 79, 219, 90, 36, 27, 22, 24]
7.14[39, 79, 219, 90, 36, 27, 22, 24]
7.14[39, 79, 219, 90, 36, 27, 22, 24]
7.14[39, 79, 219, 90, 36, 27, 22, 24]
7.14[39, 79, 219, 90, 36, 27, 22, 24]
7.14[39, 79, 219, 90, 36, 27, 22, 24]
7.14[39, 79, 219, 90, 36, 27, 22, 24]
7.14[39, 79, 219, 90, 36, 27, 22, 24]
7.14[40, 75, 190, 89, 36, 26, 22, 23]
7.17[40, 75, 190, 89, 36, 26, 22, 23]
7.17[40, 75, 190, 89, 36, 26, 22, 23]
7.17[40, 75, 190, 89, 36, 26, 22, 23]
7.17[40, 75, 190, 89, 36, 26, 22, 23]
7.17[40, 75, 190, 89, 36, 26, 22, 23]
7.17[40, 75, 190, 89, 36, 26, 22, 23]
7.17[40, 75, 190, 89, 36, 26, 22, 23]
7.17[38, 70, 190, 93, 38, 23, 20, 25]
7.18[38, 70, 190, 93, 38, 23, 20, 25]
7.18[38, 70, 190, 93, 38, 23, 20, 25]
7.18[38, 70, 190, 93, 38, 23, 20, 25]
7.18[38, 70, 190, 93, 38, 23, 20, 25]
7.18[38, 70, 190, 93, 38, 23, 20, 25]
7.18[38, 70, 190, 93, 38, 23, 20, 25]
7.18[38, 70, 190, 93, 38, 23, 20, 25]
7.18[37, 65, 188, 119, 50, 23, 21, 24]
7.2[37, 65, 188, 119, 50, 23, 21, 24]
7.2[37, 65, 188, 119, 50, 23, 21, 24]
7.2[37, 65, 188, 119, 50, 23, 21, 24]
7.2[37, 65, 188, 119, 50, 23, 21, 24]
7.2[37, 65, 188, 119, 50, 23, 21, 24]
7.2[37, 65, 188, 119, 50, 23, 21, 24]
7.2[37, 65, 188, 119, 50, 23, 21, 24]
7.2[37, 71, 177, 125, 53, 26, 22, 24]
7.23[37, 71, 177, 125, 53, 26, 22, 24]
7.23[37, 71, 177, 125, 53, 26, 22, 24]
7.23[37, 71, 177, 125, 53, 26, 22, 24]
7.23[37, 71, 177, 125, 53, 26, 22, 24]
7.23[37, 71, 177, 125, 53, 26, 22, 24]
7.23[37, 71, 177, 125, 53, 26, 22, 24]
7.23[37, 71, 177, 125, 53, 26, 22, 24]
7.23[33, 64, 177, 129, 51, 25, 21, 23]
7.24[33, 64, 177, 129, 51, 25, 21, 23]
7.24[33, 64, 177, 129, 51, 25, 21, 23]
7.24[33, 64, 177, 129, 51, 25, 21, 23]
7.24[33, 64, 177, 129, 51, 25, 21, 23]
7.24[33, 64, 177, 129, 51, 25, 21, 23]
7.24[33, 64, 177, 129, 51, 25, 21, 23]
7.24[33, 64, 177, 129, 51, 25, 21, 23]
7.24[36, 71, 177, 130, 54, 51, 29, 21]
7.26[36, 71, 177, 130, 54, 51, 29, 21]
7.26[36, 71, 177, 130, 54, 51, 29, 21]
7.26[36, 71, 177, 130, 54, 51, 29, 21]
7.26[36, 71, 177, 130, 54, 51, 29, 21]
7.26[36, 71, 177, 130, 54, 51, 29, 21]
7.26[36, 71, 177, 130, 54, 51, 29, 21]
7.26[36, 71, 177, 130, 54, 51, 29, 21]
7.26[36, 72, 193, 138, 64, 72, 32, 21]
7.29[36, 72, 193, 138, 64, 72, 32, 21]
7.29[36, 72, 193, 138, 64, 72, 32, 21]
7.29[36, 72, 193, 138, 64, 72, 32, 21]
7.29[36, 72, 193, 138, 64, 72, 32, 21]
7.29[36, 72, 193, 138, 64, 72, 32, 21]
7.29[36, 72, 193, 138, 64, 72, 32, 21]
7.29[36, 72, 193, 138, 64, 72, 32, 21]
7.29[36, 75, 215, 141, 61, 78, 33, 23]
7.3[36, 75, 215, 141, 61, 78, 33, 23]
7.3[36, 75, 215, 141, 61, 78, 33, 23]
7.3[36, 75, 215, 141, 61, 78, 33, 23]
7.3[36, 75, 215, 141, 61, 78, 33, 23]
7.3[36, 75, 215, 141, 61, 78, 33, 23]
7.3[36, 75, 215, 141, 61, 78, 33, 23]
7.3[36, 75, 215, 141, 61, 78, 33, 23]
7.3[39, 72, 207, 141, 58, 86, 35, 25]
7.32[39, 72, 207, 141, 58, 86, 35, 25]
7.32[39, 72, 207, 141, 58, 86, 35, 25]
7.32[39, 72, 207, 141, 58, 86, 35, 25]
7.32[39, 72, 207, 141, 58, 86, 35, 25]
7.32[39, 72, 207, 141, 58, 86, 35, 25]
7.32[39, 72, 207, 141, 58, 86, 35, 25]
7.32[39, 72, 207, 141, 58, 86, 35, 25]
7.32[41, 70, 199, 135, 57, 87, 36, 25]
7.35[41, 70, 199, 135, 57, 87, 36, 25]
7.35[41, 70, 199, 135, 57, 87, 36, 25]
7.35[41, 70, 199, 135, 57, 87, 36, 25]
7.35[41, 70, 199, 135, 57, 87, 36, 25]
7.35[41, 70, 199, 135, 57, 87, 36, 25]
7.35[41, 70, 199, 135, 57, 87, 36, 25]
7.35[41, 70, 199, 135, 57, 87, 36, 25]
7.35[37, 61, 193, 137, 56, 76, 31, 24]
7.36[37, 61, 193, 137, 56, 76, 31, 24]
7.36[37, 61, 193, 137, 56, 76, 31, 24]
7.36[37, 61, 193, 137, 56, 76, 31, 24]
7.36[37, 61, 193, 137, 56, 76, 31, 24]
7.36[37, 61, 193, 137, 56, 76, 31, 24]
7.36[37, 61, 193, 137, 56, 76, 31, 24]
7.36[37, 61, 193, 137, 56, 76, 31, 24]
7.36[43, 78, 199, 121, 48, 65, 31, 26]
7.38[43, 78, 199, 121, 48, 65, 31, 26]
7.38[43, 78, 199, 121, 48, 65, 31, 26]
7.38[43, 78, 199, 121, 48, 65, 31, 26]
7.38[43, 78, 199, 121, 48, 65, 31, 26]
7.38[43, 78, 199, 121, 48, 65, 31, 26]
7.38[43, 78, 199, 121, 48, 65, 31, 26]
7.38[43, 78, 199, 121, 48, 65, 31, 26]
7.38[46, 86, 181, 97, 41, 65, 33, 25]
7.4[46, 86, 181, 97, 41, 65, 33, 25]
7.4[46, 86, 181, 97, 41, 65, 33, 25]
7.4[46, 86, 181, 97, 41, 65, 33, 25]
7.4[46, 86, 181, 97, 41, 65, 33, 25]
7.4[46, 86, 181, 97, 41, 65, 33, 25]
7.4[46, 86, 181, 97, 41, 65, 33, 25]
7.4[46, 86, 181, 97, 41, 65, 33, 25]
7.4[51, 106, 195, 106, 42, 65, 34, 25]
7.42[51, 106, 195, 106, 42, 65, 34, 25]
7.42[51, 106, 195, 106, 42, 65, 34, 25]
7.42[51, 106, 195, 106, 42, 65, 34, 25]
7.42[51, 106, 195, 106, 42, 65, 34, 25]
7.42[51, 106, 195, 106, 42, 65, 34, 25]
7.42[51, 106, 195, 106, 42, 65, 34, 25]
7.42[51, 106, 195, 106, 42, 65, 34, 25]
7.42[56, 113, 201, 106, 45, 78, 36, 29]
7.44[56, 113, 201, 106, 45, 78, 36, 29]
7.44[56, 113, 201, 106, 45, 78, 36, 29]
7.44[56, 113, 201, 106, 45, 78, 36, 29]
7.44[56, 113, 201, 106, 45, 78, 36, 29]
7.44[56, 113, 201, 106, 45, 78, 36, 29]
7.44[56, 113, 201, 106, 45, 78, 36, 29]
7.44[56, 113, 201, 106, 45, 78, 36, 29]
7.44[58, 122, 209, 120, 52, 95, 43, 31]
7.47[58, 122, 209, 120, 52, 95, 43, 31]
7.47[58, 122, 209, 120, 52, 95, 43, 31]
7.47[58, 122, 209, 120, 52, 95, 43, 31]
7.47[58, 122, 209, 120, 52, 95, 43, 31]
7.47[58, 122, 209, 120, 52, 95, 43, 31]
7.47[58, 122, 209, 120, 52, 95, 43, 31]
7.47[58, 122, 209, 120, 52, 95, 43, 31]
7.47[55, 120, 152, 126, 52, 95, 44, 29]
7.48[55, 120, 152, 126, 52, 95, 44, 29]
7.48[55, 120, 152, 126, 52, 95, 44, 29]
7.48[55, 120, 152, 126, 52, 95, 44, 29]
7.48[55, 120, 152, 126, 52, 95, 44, 29]
7.48[55, 120, 152, 126, 52, 95, 44, 29]
7.48[55, 120, 152, 126, 52, 95, 44, 29]
7.48[55, 120, 152, 126, 52, 95, 44, 29]
7.48[59, 125, 142, 114, 54, 104, 46, 30]
7.5[59, 125, 142, 114, 54, 104, 46, 30]
7.5[59, 125, 142, 114, 54, 104, 46, 30]
7.5[59, 125, 142, 114, 54, 104, 46, 30]
7.5[59, 125, 142, 114, 54, 104, 46, 30]
7.5[59, 125, 142, 114, 54, 104, 46, 30]
7.5[59, 125, 142, 114, 54, 104, 46, 30]
7.5[59, 125, 142, 114, 54, 104, 46, 30]
7.5[55, 116, 136, 99, 61, 107, 45, 29]
7.52[55, 116, 136, 99, 61, 107, 45, 29]
7.52[55, 116, 136, 99, 61, 107, 45, 29]
7.52[55, 116, 136, 99, 61, 107, 45, 29]
7.52[55, 116, 136, 99, 61, 107, 45, 29]
7.52[55, 116, 136, 99, 61, 107, 45, 29]
7.52[55, 116, 136, 99, 61, 107, 45, 29]
7.52[55, 116, 136, 99, 61, 107, 45, 29]
7.52[54, 112, 181, 115, 66, 103, 52, 28]
7.54[54, 112, 181, 115, 66, 103, 52, 28]
7.54[54, 112, 181, 115, 66, 103, 52, 28]
7.54[54, 112, 181, 115, 66, 103, 52, 28]
7.54[54, 112, 181, 115, 66, 103, 52, 28]
7.54[54, 112, 181, 115, 66, 103, 52, 28]
7.54[54, 112, 181, 115, 66, 103, 52, 28]
7.54[54, 112, 181, 115, 66, 103, 52, 28]
7.54[56, 118, 184, 101, 61, 101, 49, 28]
7.56[56, 118, 184, 101, 61, 101, 49, 28]
7.56[56, 118, 184, 101, 61, 101, 49, 28]
7.56[56, 118, 184, 101, 61, 101, 49, 28]
7.56[56, 118, 184, 101, 61, 101, 49, 28]
7.56[56, 118, 184, 101, 61, 101, 49, 28]
7.56[56, 118, 184, 101, 61, 101, 49, 28]
7.56[56, 118, 184, 101, 61, 101, 49, 28]
7.56[58, 119, 194, 91, 59, 109, 51, 28]
7.59[58, 119, 194, 91, 59, 109, 51, 28]
7.59[58, 119, 194, 91, 59, 109, 51, 28]
7.59[58, 119, 194, 91, 59, 109, 51, 28]
7.59[58, 119, 194, 91, 59, 109, 51, 28]
7.59[58, 119, 194, 91, 59, 109, 51, 28]
7.59[58, 119, 194, 91, 59, 109, 51, 28]
7.59[58, 119, 194, 91, 59, 109, 51, 28]
7.59[55, 117, 195, 96, 57, 134, 73, 32]
7.6[55, 117, 195, 96, 57, 134, 73, 32]
7.6[55, 117, 195, 96, 57, 134, 73, 32]
7.6[55, 117, 195, 96, 57, 134, 73, 32]
7.6[55, 117, 195, 96, 57, 134, 73, 32]
7.6[55, 117, 195, 96, 57, 134, 73, 32]
7.6[55, 117, 195, 96, 57, 134, 73, 32]
7.6[55, 117, 195, 96, 57, 134, 73, 32]
7.6[54, 118, 182, 93, 53, 146, 92, 35]
7.62[54, 118, 182, 93, 53, 146, 92, 35]
7.62[54, 118, 182, 93, 53, 146, 92, 35]
7.62[54, 118, 182, 93, 53, 146, 92, 35]
7.62[54, 118, 182, 93, 53, 146, 92, 35]
7.62[54, 118, 182, 93, 53, 146, 92, 35]
7.62[54, 118, 182, 93, 53, 146, 92, 35]
7.62[54, 118, 182, 93, 53, 146, 92, 35]
7.62[56, 127, 141, 72, 49, 164, 96, 38]
7.65[56, 127, 141, 72, 49, 164, 96, 38]
7.65[56, 127, 141, 72, 49, 164, 96, 38]
7.65[56, 127, 141, 72, 49, 164, 96, 38]
7.65[56, 127, 141, 72, 49, 164, 96, 38]
7.65[56, 127, 141, 72, 49, 164, 96, 38]
7.65[56, 127, 141, 72, 49, 164, 96, 38]
7.65[56, 127, 141, 72, 49, 164, 96, 38]
7.65[54, 127, 228, 102, 49, 163, 98, 39]
7.66[54, 127, 228, 102, 49, 163, 98, 39]
7.66[54, 127, 228, 102, 49, 163, 98, 39]
7.66[54, 127, 228, 102, 49, 163, 98, 39]
7.66[54, 127, 228, 102, 49, 163, 98, 39]
7.66[54, 127, 228, 102, 49, 163, 98, 39]
7.66[54, 127, 228, 102, 49, 163, 98, 39]
7.66[54, 127, 228, 102, 49, 163, 98, 39]
7.66[51, 124, 234, 109, 51, 196, 103, 42]
7.68[51, 124, 234, 109, 51, 196, 103, 42]
7.68[51, 124, 234, 109, 51, 196, 103, 42]
7.68[51, 124, 234, 109, 51, 196, 103, 42]
7.68[51, 124, 234, 109, 51, 196, 103, 42]
7.68[51, 124, 234, 109, 51, 196, 103, 42]
7.68[51, 124, 234, 109, 51, 196, 103, 42]
7.68[51, 124, 234, 109, 51, 196, 103, 42]
7.68[53, 132, 251, 115, 58, 196, 120, 47]
7.7[53, 132, 251, 115, 58, 196, 120, 47]
7.7[53, 132, 251, 115, 58, 196, 120, 47]
7.71[53, 132, 251, 115, 58, 196, 120, 47]
7.71[53, 132, 251, 115, 58, 196, 120, 47]
7.71[53, 132, 251, 115, 58, 196, 120, 47]
7.71[53, 132, 251, 115, 58, 196, 120, 47]
7.71[53, 132, 251, 115, 58, 196, 120, 47]
7.71[64, 140, 253, 128, 80, 203, 161, 61]
7.72[64, 140, 253, 128, 80, 203, 161, 61]
7.72[64, 140, 253, 128, 80, 203, 161, 61]
7.72[64, 140, 253, 128, 80, 203, 161, 61]
7.72[64, 140, 253, 128, 80, 203, 161, 61]
7.72[64, 140, 253, 128, 80, 203, 161, 61]
7.72[64, 140, 253, 128, 80, 203, 161, 61]
7.72[64, 140, 253, 128, 80, 203, 161, 61]
7.72[80, 168, 254, 151, 98, 218, 193, 61]
7.74[80, 168, 254, 151, 98, 218, 193, 61]
7.74[80, 168, 254, 151, 98, 218, 193, 61]
7.74[80, 168, 254, 151, 98, 218, 193, 61]
7.74[80, 168, 254, 151, 98, 218, 193, 61]
7.74[80, 168, 254, 151, 98, 218, 193, 61]
7.74[80, 168, 254, 151, 98, 218, 193, 61]
7.74[80, 168, 254, 151, 98, 218, 193, 61]
7.74[84, 170, 167, 129, 100, 245, 234, 75]
7.77[84, 170, 167, 129, 100, 245, 234, 75]
7.77[84, 170, 167, 129, 100, 245, 234, 75]
7.77[84, 170, 167, 129, 100, 245, 234, 75]
7.77[84, 170, 167, 129, 100, 245, 234, 75]
7.77[84, 170, 167, 129, 100, 245, 234, 75]
7.77[84, 170, 167, 129, 100, 245, 234, 75]
7.77[84, 170, 167, 129, 100, 245, 234, 75]
7.77[89, 179, 236, 141, 106, 261, 279, 81]
7.78[89, 179, 236, 141, 106, 261, 279, 81]
7.78[89, 179, 236, 141, 106, 261, 279, 81]
7.78[89, 179, 236, 141, 106, 261, 279, 81]
7.78[89, 179, 236, 141, 106, 261, 279, 81]
7.78[89, 179, 236, 141, 106, 261, 279, 81]
7.78[89, 179, 236, 141, 106, 261, 279, 81]
7.78[89, 179, 236, 141, 106, 261, 279, 81]
7.78[99, 208, 257, 147, 112, 245, 283, 79]
7.8[99, 208, 257, 147, 112, 245, 283, 79]
7.8[99, 208, 257, 147, 112, 245, 283, 79]
7.8[99, 208, 257, 147, 112, 245, 283, 79]
7.8[99, 208, 257, 147, 112, 245, 283, 79]
7.8[99, 208, 257, 147, 112, 245, 283, 79]
7.8[99, 208, 257, 147, 112, 245, 283, 79]
7.8[99, 208, 257, 147, 112, 245, 283, 79]
7.8[104, 219, 257, 140, 99, 262, 268, 78]
7.83[104, 219, 257, 140, 99, 262, 268, 78]
7.83[104, 219, 257, 140, 99, 262, 268, 78]
7.83[104, 219, 257, 140, 99, 262, 268, 78]
7.83[104, 219, 257, 140, 99, 262, 268, 78]
7.83[104, 219, 257, 140, 99, 262, 268, 78]
7.83[104, 219, 257, 140, 99, 262, 268, 78]
7.83[104, 219, 257, 140, 99, 262, 268, 78]
7.83[98, 215, 259, 120, 89, 298, 261, 83]
7.84[98, 215, 259, 120, 89, 298, 261, 83]
7.84[98, 215, 259, 120, 89, 298, 261, 83]
7.84[98, 215, 259, 120, 89, 298, 261, 83]
7.84[98, 215, 259, 120, 89, 298, 261, 83]
7.84[98, 215, 259, 120, 89, 298, 261, 83]
7.84[98, 215, 259, 120, 89, 298, 261, 83]
7.84[98, 215, 259, 120, 89, 298, 261, 83]
7.84[118, 234, 272, 124, 99, 352, 310, 89]
7.86[118, 234, 272, 124, 99, 352, 310, 89]
7.86[118, 234, 272, 124, 99, 352, 310, 89]
7.86[118, 234, 272, 124, 99, 352, 310, 89]
7.86[118, 234, 272, 124, 99, 352, 310, 89]
7.86[118, 234, 272, 124, 99, 352, 310, 89]
7.86[118, 234, 272, 124, 99, 352, 310, 89]
7.86[118, 234, 272, 124, 99, 352, 310, 89]
7.86[125, 242, 209, 133, 99, 354, 280, 86]
7.89[125, 242, 209, 133, 99, 354, 280, 86]
7.89[125, 242, 209, 133, 99, 354, 280, 86]
7.89[125, 242, 209, 133, 99, 354, 280, 86]
7.89[125, 242, 209, 133, 99, 354, 280, 86]
7.89[125, 242, 209, 133, 99, 354, 280, 86]
7.89[125, 242, 209, 133, 99, 354, 280, 86]
7.89[125, 242, 209, 133, 99, 354, 280, 86]
7.89[119, 214, 240, 221, 119, 364, 273, 87]
7.9[119, 214, 240, 221, 119, 364, 273, 87]
7.9[119, 214, 240, 221, 119, 364, 273, 87]
7.9[119, 214, 240, 221, 119, 364, 273, 87]
7.9[119, 214, 240, 221, 119, 364, 273, 87]
7.9[119, 214, 240, 221, 119, 364, 273, 87]
7.9[119, 214, 240, 221, 119, 364, 273, 87]
7.9[119, 214, 240, 221, 119, 364, 273, 87]
7.9[121, 210, 254, 233, 136, 381, 276, 85]
7.92[121, 210, 254, 233, 136, 381, 276, 85]
7.92[121, 210, 254, 233, 136, 381, 276, 85]
7.92[121, 210, 254, 233, 136, 381, 276, 85]
7.92[121, 210, 254, 233, 136, 381, 276, 85]
7.92[121, 210, 254, 233, 136, 381, 276, 85]
7.92[121, 210, 254, 233, 136, 381, 276, 85]
7.92[121, 210, 254, 233, 136, 381, 276, 85]
7.92[115, 190, 244, 232, 136, 370, 298, 87]
7.94[115, 190, 244, 232, 136, 370, 298, 87]
7.94[115, 190, 244, 232, 136, 370, 298, 87]
7.94[115, 190, 244, 232, 136, 370, 298, 87]
7.94[115, 190, 244, 232, 136, 370, 298, 87]
7.94[115, 190, 244, 232, 136, 370, 298, 87]
7.94[115, 190, 244, 232, 136, 370, 298, 87]
7.95[115, 190, 244, 232, 136, 370, 298, 87]
7.95[121, 206, 236, 232, 130, 302, 230, 72]
7.96[121, 206, 236, 232, 130, 302, 230, 72]
7.96[121, 206, 236, 232, 130, 302, 230, 72]
7.96[121, 206, 236, 232, 130, 302, 230, 72]
7.96[121, 206, 236, 232, 130, 302, 230, 72]
7.96[121, 206, 236, 232, 130, 302, 230, 72]
7.96[121, 206, 236, 232, 130, 302, 230, 72]
7.96[121, 206, 236, 232, 130, 302, 230, 72]
7.96[128, 214, 241, 220, 132, 322, 252, 76]
7.98[128, 214, 241, 220, 132, 322, 252, 76]
7.98[128, 214, 241, 220, 132, 322, 252, 76]
7.98[128, 214, 241, 220, 132, 322, 252, 76]
7.98[128, 214, 241, 220, 132, 322, 252, 76]
7.98[128, 214, 241, 220, 132, 322, 252, 76]
7.98[128, 214, 241, 220, 132, 322, 252, 76]
7.98[128, 214, 241, 220, 132, 322, 252, 76]
7.98[133, 221, 174, 121, 111, 357, 257, 77]
8.01[133, 221, 174, 121, 111, 357, 257, 77]
8.01[133, 221, 174, 121, 111, 357, 257, 77]
8.01[133, 221, 174, 121, 111, 357, 257, 77]
8.01[133, 221, 174, 121, 111, 357, 257, 77]
8.01[133, 221, 174, 121, 111, 357, 257, 77]
8.01[133, 221, 174, 121, 111, 357, 257, 77]
8.01[133, 221, 174, 121, 111, 357, 257, 77]
8.01[127, 214, 198, 93, 91, 339, 262, 77]
8.02[127, 214, 198, 93, 91, 339, 262, 77]
8.02[127, 214, 198, 93, 91, 339, 262, 77]
8.02[127, 214, 198, 93, 91, 339, 262, 77]
8.02[127, 214, 198, 93, 91, 339, 262, 77]
8.02[127, 214, 198, 93, 91, 339, 262, 77]
8.02[127, 214, 198, 93, 91, 339, 262, 77]
8.02[127, 214, 198, 93, 91, 339, 262, 77]
8.02[134, 230, 238, 98, 92, 336, 228, 75]
8.04[134, 230, 238, 98, 92, 336, 228, 75]
8.04[134, 230, 238, 98, 92, 336, 228, 75]
8.04[134, 230, 238, 98, 92, 336, 228, 75]
8.04[134, 230, 238, 98, 92, 336, 228, 75]
8.04[134, 230, 238, 98, 92, 336, 228, 75]
8.04[134, 230, 238, 98, 92, 336, 228, 75]
8.04[134, 230, 238, 98, 92, 336, 228, 75]
8.04[110, 192, 231, 89, 90, 343, 219, 71]
8.06[110, 192, 231, 89, 90, 343, 219, 71]
8.07[110, 192, 231, 89, 90, 343, 219, 71]
8.07[110, 192, 231, 89, 90, 343, 219, 71]
8.07[110, 192, 231, 89, 90, 343, 219, 71]
8.07[110, 192, 231, 89, 90, 343, 219, 71]
8.07[110, 192, 231, 89, 90, 343, 219, 71]
8.07[110, 192, 231, 89, 90, 343, 219, 71]
8.07[102, 165, 218, 80, 82, 294, 181, 67]
8.08[102, 165, 218, 80, 82, 294, 181, 67]
8.08[102, 165, 218, 80, 82, 294, 181, 67]
8.08[102, 165, 218, 80, 82, 294, 181, 67]
8.08[102, 165, 218, 80, 82, 294, 181, 67]
8.08[102, 165, 218, 80, 82, 294, 181, 67]
8.08[102, 165, 218, 80, 82, 294, 181, 67]
8.08[102, 165, 218, 80, 82, 294, 181, 67]
8.08[97, 156, 206, 70, 84, 272, 175, 64]
8.1[97, 156, 206, 70, 84, 272, 175, 64]
8.1[97, 156, 206, 70, 84, 272, 175, 64]
8.1[97, 156, 206, 70, 84, 272, 175, 64]
8.1[97, 156, 206, 70, 84, 272, 175, 64]
8.1[97, 156, 206, 70, 84, 272, 175, 64]
8.1[97, 156, 206, 70, 84, 272, 175, 64]
8.1[97, 156, 206, 70, 84, 272, 175, 64]
8.1[94, 151, 168, 66, 86, 315, 170, 58]
8.13[94, 151, 168, 66, 86, 315, 170, 58]
8.13[94, 151, 168, 66, 86, 315, 170, 58]
8.13[94, 151, 168, 66, 86, 315, 170, 58]
8.13[94, 151, 168, 66, 86, 315, 170, 58]
8.13[94, 151, 168, 66, 86, 315, 170, 58]
8.13[94, 151, 168, 66, 86, 315, 170, 58]
8.13[94, 151, 168, 66, 86, 315, 170, 58]
8.13[94, 151, 123, 56, 84, 316, 166, 71]
8.15[94, 151, 123, 56, 84, 316, 166, 71]
8.15[94, 151, 123, 56, 84, 316, 166, 71]
8.15[94, 151, 123, 56, 84, 316, 166, 71]
8.15[94, 151, 123, 56, 84, 316, 166, 71]
8.15[94, 151, 123, 56, 84, 316, 166, 71]
8.15[94, 151, 123, 56, 84, 316, 166, 71]
8.15[94, 151, 123, 56, 84, 316, 166, 71]
8.15[112, 179, 136, 61, 86, 335, 164, 79]
8.16[112, 179, 136, 61, 86, 335, 164, 79]
8.16[112, 179, 136, 61, 86, 335, 164, 79]
8.16[112, 179, 136, 61, 86, 335, 164, 79]
8.16[112, 179, 136, 61, 86, 335, 164, 79]
8.16[112, 179, 136, 61, 86, 335, 164, 79]
8.16[112, 179, 136, 61, 86, 335, 164, 79]
8.16[112, 179, 136, 61, 86, 335, 164, 79]
8.16[103, 187, 142, 60, 91, 366, 171, 78]
8.19[103, 187, 142, 60, 91, 366, 171, 78]
8.19[103, 187, 142, 60, 91, 366, 171, 78]
8.19[103, 187, 142, 60, 91, 366, 171, 78]
8.19[103, 187, 142, 60, 91, 366, 171, 78]
8.19[103, 187, 142, 60, 91, 366, 171, 78]
8.19[103, 187, 142, 60, 91, 366, 171, 78]
8.19[103, 187, 142, 60, 91, 366, 171, 78]
8.19[109, 202, 141, 61, 88, 358, 164, 82]
8.21[109, 202, 141, 61, 88, 358, 164, 82]
8.21[109, 202, 141, 61, 88, 358, 164, 82]
8.21[109, 202, 141, 61, 88, 358, 164, 82]
8.21[109, 202, 141, 61, 88, 358, 164, 82]
8.21[109, 202, 141, 61, 88, 358, 164, 82]
8.21[109, 202, 141, 61, 88, 358, 164, 82]
8.21[109, 202, 141, 61, 88, 358, 164, 82]
8.21[116, 206, 132, 63, 84, 337, 155, 106]
8.22[116, 206, 132, 63, 84, 337, 155, 106]
8.22[116, 206, 132, 63, 84, 337, 155, 106]
8.22[116, 206, 132, 63, 84, 337, 155, 106]
8.22[116, 206, 132, 63, 84, 337, 155, 106]
8.22[116, 206, 132, 63, 84, 337, 155, 106]
8.22[116, 206, 132, 63, 84, 337, 155, 106]
8.22[116, 206, 132, 63, 84, 337, 155, 106]
8.22[120, 191, 118, 62, 76, 304, 149, 97]
8.24[120, 191, 118, 62, 76, 304, 149, 97]
8.24[120, 191, 118, 62, 76, 304, 149, 97]
8.24[120, 191, 118, 62, 76, 304, 149, 97]
8.24[120, 191, 118, 62, 76, 304, 149, 97]
8.24[120, 191, 118, 62, 76, 304, 149, 97]
8.24[120, 191, 118, 62, 76, 304, 149, 97]
8.25[120, 191, 118, 62, 76, 304, 149, 97]
8.25[118, 180, 112, 60, 73, 279, 137, 92]
8.27[118, 180, 112, 60, 73, 279, 137, 92]
8.27[118, 180, 112, 60, 73, 279, 137, 92]
8.27[118, 180, 112, 60, 73, 279, 137, 92]
8.27[118, 180, 112, 60, 73, 279, 137, 92]
8.27[118, 180, 112, 60, 73, 279, 137, 92]
8.27[118, 180, 112, 60, 73, 279, 137, 92]
8.27[118, 180, 112, 60, 73, 279, 137, 92]
8.27[120, 170, 101, 55, 66, 254, 167, 100]
8.28[120, 170, 101, 55, 66, 254, 167, 100]
8.28[120, 170, 101, 55, 66, 254, 167, 100]
8.28[120, 170, 101, 55, 66, 254, 167, 100]
8.28[120, 170, 101, 55, 66, 254, 167, 100]
8.28[120, 170, 101, 55, 66, 254, 167, 100]
8.28[120, 170, 101, 55, 66, 254, 167, 100]
8.28[120, 170, 101, 55, 66, 254, 167, 100]
8.28[119, 162, 110, 62, 63, 253, 182, 107]
8.3[119, 162, 110, 62, 63, 253, 182, 107]
8.3[119, 162, 110, 62, 63, 253, 182, 107]
8.3[119, 162, 110, 62, 63, 253, 182, 107]
8.3[119, 162, 110, 62, 63, 253, 182, 107]
8.3[119, 162, 110, 62, 63, 253, 182, 107]
8.3[119, 162, 110, 62, 63, 253, 182, 107]
8.3[119, 162, 110, 62, 63, 253, 182, 107]
8.3[115, 155, 109, 63, 76, 273, 197, 92]
8.33[115, 155, 109, 63, 76, 273, 197, 92]
8.33[115, 155, 109, 63, 76, 273, 197, 92]
8.33[115, 155, 109, 63, 76, 273, 197, 92]
8.33[115, 155, 109, 63, 76, 273, 197, 92]
8.33[115, 155, 109, 63, 76, 273, 197, 92]
8.33[115, 155, 109, 63, 76, 273, 197, 92]
8.33[115, 155, 109, 63, 76, 273, 197, 92]
8.33[112, 169, 112, 64, 94, 296, 213, 116]
8.34[112, 169, 112, 64, 94, 296, 213, 116]
8.34[112, 169, 112, 64, 94, 296, 213, 116]
8.34[112, 169, 112, 64, 94, 296, 213, 116]
8.34[112, 169, 112, 64, 94, 296, 213, 116]
8.34[112, 169, 112, 64, 94, 296, 213, 116]
8.34[112, 169, 112, 64, 94, 296, 213, 116]
8.34[112, 169, 112, 64, 94, 296, 213, 116]
8.34[107, 162, 108, 62, 99, 321, 225, 177]
8.37[107, 162, 108, 62, 99, 321, 225, 177]
8.37[107, 162, 108, 62, 99, 321, 225, 177]
8.37[107, 162, 108, 62, 99, 321, 225, 177]
8.37[107, 162, 108, 62, 99, 321, 225, 177]
8.37[107, 162, 108, 62, 99, 321, 225, 177]
8.37[107, 162, 108, 62, 99, 321, 225, 177]
8.37[107, 162, 108, 62, 99, 321, 225, 177]
8.37[116, 170, 108, 66, 110, 351, 239, 192]
8.39[116, 170, 108, 66, 110, 351, 239, 192]
8.39[116, 170, 108, 66, 110, 351, 239, 192]
8.39[116, 170, 108, 66, 110, 351, 239, 192]
8.39[116, 170, 108, 66, 110, 351, 239, 192]
8.39[116, 170, 108, 66, 110, 351, 239, 192]
8.39[116, 170, 108, 66, 110, 351, 239, 192]
8.39[116, 170, 108, 66, 110, 351, 239, 192]
8.39[108, 168, 111, 63, 114, 358, 244, 216]
8.4[108, 168, 111, 63, 114, 358, 244, 216]
8.4[108, 168, 111, 63, 114, 358, 244, 216]
8.4[108, 168, 111, 63, 114, 358, 244, 216]
8.4[108, 168, 111, 63, 114, 358, 244, 216]
8.4[108, 168, 111, 63, 114, 358, 244, 216]
8.4[108, 168, 111, 63, 114, 358, 244, 216]
8.4[108, 168, 111, 63, 114, 358, 244, 216]
8.4[115, 203, 116, 66, 119, 332, 235, 232]
8.43[115, 203, 116, 66, 119, 332, 235, 232]
8.43[115, 203, 116, 66, 119, 332, 235, 232]
8.43[115, 203, 116, 66, 119, 332, 235, 232]
8.43[115, 203, 116, 66, 119, 332, 235, 232]
8.43[115, 203, 116, 66, 119, 332, 235, 232]
8.43[115, 203, 116, 66, 119, 332, 235, 232]
8.43[115, 203, 116, 66, 119, 332, 235, 232]
8.43[140, 189, 112, 70, 131, 348, 238, 320]
8.45[140, 189, 112, 70, 131, 348, 238, 320]
8.45[140, 189, 112, 70, 131, 348, 238, 320]
8.45[140, 189, 112, 70, 131, 348, 238, 320]
8.45[140, 189, 112, 70, 131, 348, 238, 320]
8.45[140, 189, 112, 70, 131, 348, 238, 320]
8.45[140, 189, 112, 70, 131, 348, 238, 320]
8.45[140, 189, 112, 70, 131, 348, 238, 320]
8.45[136, 179, 107, 72, 133, 362, 264, 308]
8.46[136, 179, 107, 72, 133, 362, 264, 308]
8.46[136, 179, 107, 72, 133, 362, 264, 308]
8.46[136, 179, 107, 72, 133, 362, 264, 308]
8.46[136, 179, 107, 72, 133, 362, 264, 308]
8.46[136, 179, 107, 72, 133, 362, 264, 308]
8.46[136, 179, 107, 72, 133, 362, 264, 308]
8.46[136, 179, 107, 72, 133, 362, 264, 308]
8.46[140, 176, 106, 69, 124, 328, 231, 326]
8.49[140, 176, 106, 69, 124, 328, 231, 326]
8.49[140, 176, 106, 69, 124, 328, 231, 326]
8.49[140, 176, 106, 69, 124, 328, 231, 326]
8.49[140, 176, 106, 69, 124, 328, 231, 326]
8.49[140, 176, 106, 69, 124, 328, 231, 326]
8.49[140, 176, 106, 69, 124, 328, 231, 326]
8.49[140, 176, 106, 69, 124, 328, 231, 326]
8.49[140, 164, 93, 64, 122, 326, 215, 322]
8.51[140, 164, 93, 64, 122, 326, 215, 322]
8.51[140, 164, 93, 64, 122, 326, 215, 322]
8.51[140, 164, 93, 64, 122, 326, 215, 322]
8.51[140, 164, 93, 64, 122, 326, 215, 322]
8.51[140, 164, 93, 64, 122, 326, 215, 322]
8.51[140, 164, 93, 64, 122, 326, 215, 322]
8.51[140, 164, 93, 64, 122, 326, 215, 322]
8.51[144, 137, 89, 55, 111, 321, 217, 322]
8.52[144, 137, 89, 55, 111, 321, 217, 322]
8.52[144, 137, 89, 55, 111, 321, 217, 322]
8.52[144, 137, 89, 55, 111, 321, 217, 322]
8.52[144, 137, 89, 55, 111, 321, 217, 322]
8.52[144, 137, 89, 55, 111, 321, 217, 322]
8.52[144, 137, 89, 55, 111, 321, 217, 322]
8.52[144, 137, 89, 55, 111, 321, 217, 322]
8.52[128, 173, 84, 48, 82, 308, 212, 241]
8.54[128, 173, 84, 48, 82, 308, 212, 241]
8.54[128, 173, 84, 48, 82, 308, 212, 241]
8.54[128, 173, 84, 48, 82, 308, 212, 241]
8.54[128, 173, 84, 48, 82, 308, 212, 241]
8.55[128, 173, 84, 48, 82, 308, 212, 241]
8.55[128, 173, 84, 48, 82, 308, 212, 241]
8.55[128, 173, 84, 48, 82, 308, 212, 241]
8.55[130, 169, 82, 45, 74, 289, 197, 280]
8.57[130, 169, 82, 45, 74, 289, 197, 280]
8.57[130, 169, 82, 45, 74, 289, 197, 280]
8.57[130, 169, 82, 45, 74, 289, 197, 280]
8.57[130, 169, 82, 45, 74, 289, 197, 280]
8.57[130, 169, 82, 45, 74, 289, 197, 280]
8.57[130, 169, 82, 45, 74, 289, 197, 280]
8.57[130, 169, 82, 45, 74, 289, 197, 280]
8.57[135, 174, 82, 51, 84, 315, 235, 281]
8.58[135, 174, 82, 51, 84, 315, 235, 281]
8.58[135, 174, 82, 51, 84, 315, 235, 281]
8.58[135, 174, 82, 51, 84, 315, 235, 281]
8.58[135, 174, 82, 51, 84, 315, 235, 281]
8.58[135, 174, 82, 51, 84, 315, 235, 281]
8.58[135, 174, 82, 51, 84, 315, 235, 281]
8.58[135, 174, 82, 51, 84, 315, 235, 281]
8.58[157, 193, 90, 55, 79, 319, 242, 277]
8.61[157, 193, 90, 55, 79, 319, 242, 277]
8.61[157, 193, 90, 55, 79, 319, 242, 277]
8.61[157, 193, 90, 55, 79, 319, 242, 277]
8.61[157, 193, 90, 55, 79, 319, 242, 277]
8.61[157, 193, 90, 55, 79, 319, 242, 277]
8.61[157, 193, 90, 55, 79, 319, 242, 277]
8.61[157, 193, 90, 55, 79, 319, 242, 277]
8.61[157, 199, 80, 55, 75, 311, 259, 290]
8.63[157, 199, 80, 55, 75, 311, 259, 290]
8.63[157, 199, 80, 55, 75, 311, 259, 290]
8.63[157, 199, 80, 55, 75, 311, 259, 290]
8.63[157, 199, 80, 55, 75, 311, 259, 290]
8.63[157, 199, 80, 55, 75, 311, 259, 290]
8.63[157, 199, 80, 55, 75, 311, 259, 290]
8.63[157, 199, 80, 55, 75, 311, 259, 290]
8.63[160, 167, 80, 58, 76, 314, 356, 319]
8.64[160, 167, 80, 58, 76, 314, 356, 319]
8.64[160, 167, 80, 58, 76, 314, 356, 319]
8.64[160, 167, 80, 58, 76, 314, 356, 319]
8.64[160, 167, 80, 58, 76, 314, 356, 319]
8.64[160, 167, 80, 58, 76, 314, 356, 319]
8.64[160, 167, 80, 58, 76, 314, 356, 319]
8.64[160, 167, 80, 58, 76, 314, 356, 319]
8.64[165, 173, 79, 57, 73, 297, 401, 287]
8.67[165, 173, 79, 57, 73, 297, 401, 287]
8.67[165, 173, 79, 57, 73, 297, 401, 287]
8.67[165, 173, 79, 57, 73, 297, 401, 287]
8.67[165, 173, 79, 57, 73, 297, 401, 287]
8.67[165, 173, 79, 57, 73, 297, 401, 287]
8.67[165, 173, 79, 57, 73, 297, 401, 287]
8.67[165, 173, 79, 57, 73, 297, 401, 287]
8.67[164, 183, 84, 56, 61, 269, 392, 282]
8.69[164, 183, 84, 56, 61, 269, 392, 282]
8.69[164, 183, 84, 56, 61, 269, 392, 282]
8.69[164, 183, 84, 56, 61, 269, 392, 282]
8.69[164, 183, 84, 56, 61, 269, 392, 282]
8.69[164, 183, 84, 56, 61, 269, 392, 282]
8.69[164, 183, 84, 56, 61, 269, 392, 282]
8.69[164, 183, 84, 56, 61, 269, 392, 282]
8.69[182, 167, 73, 52, 60, 241, 398, 332]
8.7[182, 167, 73, 52, 60, 241, 398, 332]
8.7[182, 167, 73, 52, 60, 241, 398, 332]
8.7[182, 167, 73, 52, 60, 241, 398, 332]
8.7[182, 167, 73, 52, 60, 241, 398, 332]
8.7[182, 167, 73, 52, 60, 241, 398, 332]
8.7[182, 167, 73, 52, 60, 241, 398, 332]
8.7[182, 167, 73, 52, 60, 241, 398, 332]
8.7[192, 148, 77, 54, 59, 238, 393, 320]
8.72[192, 148, 77, 54, 59, 238, 393, 320]
8.72[192, 148, 77, 54, 59, 238, 393, 320]
8.72[192, 148, 77, 54, 59, 238, 393, 320]
8.72[192, 148, 77, 54, 59, 238, 393, 320]
8.72[192, 148, 77, 54, 59, 238, 393, 320]
8.72[192, 148, 77, 54, 59, 238, 393, 320]
8.72[192, 148, 77, 54, 59, 238, 393, 320]
8.72[184, 166, 75, 49, 60, 237, 325, 290]
8.75[184, 166, 75, 49, 60, 237, 325, 290]
8.75[184, 166, 75, 49, 60, 237, 325, 290]
8.75[184, 166, 75, 49, 60, 237, 325, 290]
8.75[184, 166, 75, 49, 60, 237, 325, 290]
8.75[184, 166, 75, 49, 60, 237, 325, 290]
8.75[184, 166, 75, 49, 60, 237, 325, 290]
8.75[184, 166, 75, 49, 60, 237, 325, 290]
8.75[192, 183, 75, 53, 61, 234, 263, 282]
8.76[192, 183, 75, 53, 61, 234, 263, 282]
8.76[192, 183, 75, 53, 61, 234, 263, 282]
8.76[192, 183, 75, 53, 61, 234, 263, 282]
8.76[192, 183, 75, 53, 61, 234, 263, 282]
8.76[192, 183, 75, 53, 61, 234, 263, 282]
8.76[192, 183, 75, 53, 61, 234, 263, 282]
8.76[192, 183, 75, 53, 61, 234, 263, 282]
8.76[193, 165, 67, 47, 63, 227, 270, 297]
8.78[193, 165, 67, 47, 63, 227, 270, 297]
8.78[193, 165, 67, 47, 63, 227, 270, 297]
8.78[193, 165, 67, 47, 63, 227, 270, 297]
8.78[193, 165, 67, 47, 63, 227, 270, 297]
8.79[193, 165, 67, 47, 63, 227, 270, 297]
8.79[193, 165, 67, 47, 63, 227, 270, 297]
8.79[193, 165, 67, 47, 63, 227, 270, 297]
8.79[163, 170, 76, 52, 65, 226, 252, 244]
8.81[163, 170, 76, 52, 65, 226, 252, 244]
8.81[163, 170, 76, 52, 65, 226, 252, 244]
8.81[163, 170, 76, 52, 65, 226, 252, 244]
8.81[163, 170, 76, 52, 65, 226, 252, 244]
8.81[163, 170, 76, 52, 65, 226, 252, 244]
8.81[163, 170, 76, 52, 65, 226, 252, 244]
8.81[163, 170, 76, 52, 65, 226, 252, 244]
8.81[137, 184, 88, 50, 67, 252, 233, 245]
8.82[137, 184, 88, 50, 67, 252, 233, 245]
8.82[137, 184, 88, 50, 67, 252, 233, 245]
8.82[137, 184, 88, 50, 67, 252, 233, 245]
8.82[137, 184, 88, 50, 67, 252, 233, 245]
8.82[137, 184, 88, 50, 67, 252, 233, 245]
8.82[137, 184, 88, 50, 67, 252, 233, 245]
8.82[137, 184, 88, 50, 67, 252, 233, 245]
8.82[143, 174, 90, 53, 66, 227, 225, 238]
8.85[143, 174, 90, 53, 66, 227, 225, 238]
8.85[143, 174, 90, 53, 66, 227, 225, 238]
8.85[143, 174, 90, 53, 66, 227, 225, 238]
8.85[143, 174, 90, 53, 66, 227, 225, 238]
8.85[143, 174, 90, 53, 66, 227, 225, 238]
8.85[143, 174, 90, 53, 66, 227, 225, 238]
8.85[143, 174, 90, 53, 66, 227, 225, 238]
8.85[126, 174, 97, 53, 64, 223, 213, 230]
8.87[126, 174, 97, 53, 64, 223, 213, 230]
8.87[126, 174, 97, 53, 64, 223, 213, 230]
8.87[126, 174, 97, 53, 64, 223, 213, 230]
8.87[126, 174, 97, 53, 64, 223, 213, 230]
8.87[126, 174, 97, 53, 64, 223, 213, 230]
8.87[126, 174, 97, 53, 64, 223, 213, 230]
8.87[126, 174, 97, 53, 64, 223, 213, 230]
8.87[109, 180, 102, 56, 71, 236, 196, 229]
8.88[109, 180, 102, 56, 71, 236, 196, 229]
8.88[109, 180, 102, 56, 71, 236, 196, 229]
8.88[109, 180, 102, 56, 71, 236, 196, 229]
8.88[109, 180, 102, 56, 71, 236, 196, 229]
8.88[109, 180, 102, 56, 71, 236, 196, 229]
8.88[109, 180, 102, 56, 71, 236, 196, 229]
8.88[109, 180, 102, 56, 71, 236, 196, 229]
8.88[109, 187, 99, 53, 72, 238, 212, 209]
8.91[109, 187, 99, 53, 72, 238, 212, 209]
8.91[109, 187, 99, 53, 72, 238, 212, 209]
8.91[109, 187, 99, 53, 72, 238, 212, 209]
8.91[109, 187, 99, 53, 72, 238, 212, 209]
8.91[109, 187, 99, 53, 72, 238, 212, 209]
8.91[109, 187, 99, 53, 72, 238, 212, 209]
8.91[109, 187, 99, 53, 72, 238, 212, 209]
8.91[129, 169, 89, 55, 71, 210, 224, 197]
8.93[129, 169, 89, 55, 71, 210, 224, 197]
8.93[129, 169, 89, 55, 71, 210, 224, 197]
8.93[129, 169, 89, 55, 71, 210, 224, 197]
8.93[129, 169, 89, 55, 71, 210, 224, 197]
8.93[129, 169, 89, 55, 71, 210, 224, 197]
8.93[129, 169, 89, 55, 71, 210, 224, 197]
8.93[129, 169, 89, 55, 71, 210, 224, 197]
8.93[120, 168, 91, 55, 70, 213, 211, 187]
8.94[120, 168, 91, 55, 70, 213, 211, 187]
8.94[120, 168, 91, 55, 70, 213, 211, 187]
8.94[120, 168, 91, 55, 70, 213, 211, 187]
8.94[120, 168, 91, 55, 70, 213, 211, 187]
8.94[120, 168, 91, 55, 70, 213, 211, 187]
8.94[120, 168, 91, 55, 70, 213, 211, 187]
8.94[120, 168, 91, 55, 70, 213, 211, 187]
8.94[129, 153, 87, 51, 71, 219, 211, 211]
8.97[129, 153, 87, 51, 71, 219, 211, 211]
8.97[129, 153, 87, 51, 71, 219, 211, 211]
8.97[129, 153, 87, 51, 71, 219, 211, 211]
8.97[129, 153, 87, 51, 71, 219, 211, 211]
8.97[129, 153, 87, 51, 71, 219, 211, 211]
8.97[129, 153, 87, 51, 71, 219, 211, 211]
8.97[129, 153, 87, 51, 71, 219, 211, 211]
8.97[147, 166, 88, 48, 62, 207, 233, 182]
8.99[147, 166, 88, 48, 62, 207, 233, 182]
8.99[147, 166, 88, 48, 62, 207, 233, 182]
8.99[147, 166, 88, 48, 62, 207, 233, 182]
8.99[147, 166, 88, 48, 62, 207, 233, 182]
8.99[147, 166, 88, 48, 62, 207, 233, 182]
8.99[147, 166, 88, 48, 62, 207, 233, 182]
8.99[147, 166, 88, 48, 62, 207, 233, 182]
8.99[152, 162, 94, 49, 66, 231, 244, 214]
9.0[152, 162, 94, 49, 66, 231, 244, 214]
9.0[152, 162, 94, 49, 66, 231, 244, 214]
9.0[152, 162, 94, 49, 66, 231, 244, 214]
9.0[152, 162, 94, 49, 66, 231, 244, 214]
9.0[152, 162, 94, 49, 66, 231, 244, 214]
9.0[152, 162, 94, 49, 66, 231, 244, 214]
9.0[152, 162, 94, 49, 66, 231, 244, 214]
9.0[160, 204, 107, 54, 73, 243, 250, 218]
9.02[160, 204, 107, 54, 73, 243, 250, 218]
9.02[160, 204, 107, 54, 73, 243, 250, 218]
9.02[160, 204, 107, 54, 73, 243, 250, 218]
9.02[160, 204, 107, 54, 73, 243, 250, 218]
9.02[160, 204, 107, 54, 73, 243, 250, 218]
9.02[160, 204, 107, 54, 73, 243, 250, 218]
9.02[160, 204, 107, 54, 73, 243, 250, 218]
9.02[169, 229, 107, 53, 72, 236, 253, 297]
9.05[169, 229, 107, 53, 72, 236, 253, 297]
9.05[169, 229, 107, 53, 72, 236, 253, 297]
9.05[169, 229, 107, 53, 72, 236, 253, 297]
9.05[169, 229, 107, 53, 72, 236, 253, 297]
9.05[169, 229, 107, 53, 72, 236, 253, 297]
9.05[169, 229, 107, 53, 72, 236, 253, 297]
9.05[169, 229, 107, 53, 72, 236, 253, 297]
9.05[162, 235, 108, 53, 68, 220, 259, 295]
9.07[162, 235, 108, 53, 68, 220, 259, 295]
9.07[162, 235, 108, 53, 68, 220, 259, 295]
9.07[162, 235, 108, 53, 68, 220, 259, 295]
9.07[162, 235, 108, 53, 68, 220, 259, 295]
9.07[162, 235, 108, 53, 68, 220, 259, 295]
9.07[162, 235, 108, 53, 68, 220, 259, 295]
9.07[162, 235, 108, 53, 68, 220, 259, 295]
9.07[160, 226, 105, 55, 76, 252, 240, 297]
9.08[160, 226, 105, 55, 76, 252, 240, 297]
9.08[160, 226, 105, 55, 76, 252, 240, 297]
9.08[160, 226, 105, 55, 76, 252, 240, 297]
9.08[160, 226, 105, 55, 76, 252, 240, 297]
