[39, 77, 198, 87, 43, 27, 25, 23]
0.7[39, 77, 198, 87, 43, 27, 25, 23]
0.7[39, 77, 198, 87, 43, 27, 25, 23]
0.7[39, 77, 198, 87, 43, 27, 25, 23]
0.7[39, 77, 198, 87, 43, 27, 25, 23]
0.7[39, 77, 198, 87, 43, 27, 25, 23]
0.7[39, 77, 198, 87, 43, 27, 25, 23]
0.7[39, 77, 198, 87, 43, 27, 25, 23]
0.7[41, 76, 213, 92, 45, 30, 28, 29]
0.71[41, 76, 213, 92, 45, 30, 28, 29]
0.71[41, 76, 213, 92, 45, 30, 28, 29]
0.71[41, 76, 213, 92, 45, 30, 28, 29]
0.71[41, 76, 213, 92, 45, 30, 28, 29]
0.71[41, 76, 213, 92, 45, 30, 28, 29]
0.71[41, 76, 213, 92, 45, 30, 28, 29]
0.71[41, 76, 213, 92, 45, 30, 28, 29]
0.71[50, 87, 222, 100, 54, 31, 30, 31]
0.74[50, 87, 222, 100, 54, 31, 30, 31]
0.74[50, 87, 222, 100, 54, 31, 30, 31]
0.74[50, 87, 222, 100, 54, 31, 30, 31]
0.74[50, 87, 222, 100, 54, 31, 30, 31]
0.74[50, 87, 222, 100, 54, 31, 30, 31]
0.74[50, 87, 222, 100, 54, 31, 30, 31]
0.74[50, 87, 222, 100, 54, 31, 30, 31]
0.74[49, 84, 214, 96, 57, 32, 30, 30]
0.76[49, 84, 214, 96, 57, 32, 30, 30]
0.76[49, 84, 214, 96, 57, 32, 30, 30]
0.76[49, 84, 214, 96, 57, 32, 30, 30]
0.76[49, 84, 214, 96, 57, 32, 30, 30]
0.76[49, 84, 214, 96, 57, 32, 30, 30]
0.76[49, 84, 214, 96, 57, 32, 30, 30]
0.76[49, 84, 214, 96, 57, 32, 30, 30]
0.76[42, 65, 191, 99, 54, 28, 30, 32]
0.77[42, 65, 191, 99, 54, 28, 30, 32]
0.77[42, 65, 191, 99, 54, 28, 30, 32]
0.77[42, 65, 191, 99, 54, 28, 30, 32]
0.77[42, 65, 191, 99, 54, 28, 30, 32]
0.77[42, 65, 191, 99, 54, 28, 30, 32]
0.77[42, 65, 191, 99, 54, 28, 30, 32]
0.77[42, 65, 191, 99, 54, 28, 30, 32]
0.77[43, 64, 158, 105, 56, 29, 30, 32]
0.8[43, 64, 158, 105, 56, 29, 30, 32]
0.8[43, 64, 158, 105, 56, 29, 30, 32]
0.8[43, 64, 158, 105, 56, 29, 30, 32]
0.8[43, 64, 158, 105, 56, 29, 30, 32]
0.8[43, 64, 158, 105, 56, 29, 30, 32]
0.8[43, 64, 158, 105, 56, 29, 30, 32]
0.8[43, 64, 158, 105, 56, 29, 30, 32]
0.8[42, 76, 152, 104, 57, 29, 28, 28]
0.82[42, 76, 152, 104, 57, 29, 28, 28]
0.82[42, 76, 152, 104, 57, 29, 28, 28]
0.82[42, 76, 152, 104, 57, 29, 28, 28]
0.82[42, 76, 152, 104, 57, 29, 28, 28]
0.82[42, 76, 152, 104, 57, 29, 28, 28]
0.82[42, 76, 152, 104, 57, 29, 28, 28]
0.82[42, 76, 152, 104, 57, 29, 28, 28]
0.82[31, 67, 147, 100, 48, 28, 26, 27]
0.83[31, 67, 147, 100, 48, 28, 26, 27]
0.83[31, 67, 147, 100, 48, 28, 26, 27]
0.83[31, 67, 147, 100, 48, 28, 26, 27]
0.83[31, 67, 147, 100, 48, 28, 26, 27]
0.83[31, 67, 147, 100, 48, 28, 26, 27]
0.83[31, 67, 147, 100, 48, 28, 26, 27]
0.83[31, 67, 147, 100, 48, 28, 26, 27]
0.83[33, 69, 165, 107, 49, 29, 26, 28]
0.86[33, 69, 165, 107, 49, 29, 26, 28]
0.86[33, 69, 165, 107, 49, 29, 26, 28]
0.86[33, 69, 165, 107, 49, 29, 26, 28]
0.86[33, 69, 165, 107, 49, 29, 26, 28]
0.86[33, 69, 165, 107, 49, 29, 26, 28]
0.86[33, 69, 165, 107, 49, 29, 26, 28]
0.86[33, 69, 165, 107, 49, 29, 26, 28]
0.86[35, 73, 178, 112, 55, 34, 28, 27]
0.88[35, 73, 178, 112, 55, 34, 28, 27]
0.88[35, 73, 178, 112, 55, 34, 28, 27]
0.88[35, 73, 178, 112, 55, 34, 28, 27]
0.88[35, 73, 178, 112, 55, 34, 28, 27]
0.88[35, 73, 178, 112, 55, 34, 28, 27]
0.88[35, 73, 178, 112, 55, 34, 28, 27]
0.88[35, 73, 178, 112, 55, 34, 28, 27]
0.88[37, 77, 187, 118, 55, 33, 25, 26]
0.89[37, 77, 187, 118, 55, 33, 25, 26]
0.89[37, 77, 187, 118, 55, 33, 25, 26]
0.89[37, 77, 187, 118, 55, 33, 25, 26]
0.89[37, 77, 187, 118, 55, 33, 25, 26]
0.89[37, 77, 187, 118, 55, 33, 25, 26]
0.89[37, 77, 187, 118, 55, 33, 25, 26]
0.89[37, 77, 187, 118, 55, 33, 25, 26]
0.89[42, 93, 176, 121, 55, 31, 24, 28]
0.92[42, 93, 176, 121, 55, 31, 24, 28]
0.92[42, 93, 176, 121, 55, 31, 24, 28]
0.92[42, 93, 176, 121, 55, 31, 24, 28]
0.92[42, 93, 176, 121, 55, 31, 24, 28]
0.92[42, 93, 176, 121, 55, 31, 24, 28]
0.92[42, 93, 176, 121, 55, 31, 24, 28]
0.92[42, 93, 176, 121, 55, 31, 24, 28]
0.92[43, 93, 182, 127, 59, 32, 27, 28]
0.94[43, 93, 182, 127, 59, 32, 27, 28]
0.94[43, 93, 182, 127, 59, 32, 27, 28]
0.94[43, 93, 182, 127, 59, 32, 27, 28]
0.94[43, 93, 182, 127, 59, 32, 27, 28]
0.94[43, 93, 182, 127, 59, 32, 27, 28]
0.94[43, 93, 182, 127, 59, 32, 27, 28]
0.94[43, 93, 182, 127, 59, 32, 27, 28]
0.94[41, 94, 197, 136, 59, 31, 26, 27]
0.95[41, 94, 197, 136, 59, 31, 26, 27]
0.95[41, 94, 197, 136, 59, 31, 26, 27]
0.95[41, 94, 197, 136, 59, 31, 26, 27]
0.95[41, 94, 197, 136, 59, 31, 26, 27]
0.95[41, 94, 197, 136, 59, 31, 26, 27]
0.95[41, 94, 197, 136, 59, 31, 26, 27]
0.95[41, 94, 197, 136, 59, 31, 26, 27]
0.95[38, 93, 201, 129, 56, 27, 24, 24]
0.98[38, 93, 201, 129, 56, 27, 24, 24]
0.98[38, 93, 201, 129, 56, 27, 24, 24]
0.98[38, 93, 201, 129, 56, 27, 24, 24]
0.98[38, 93, 201, 129, 56, 27, 24, 24]
0.98[38, 93, 201, 129, 56, 27, 24, 24]
0.98[38, 93, 201, 129, 56, 27, 24, 24]
0.98[38, 93, 201, 129, 56, 27, 24, 24]
0.98[38, 93, 202, 117, 49, 26, 24, 26]
1.0[38, 93, 202, 117, 49, 26, 24, 26]
1.0[38, 93, 202, 117, 49, 26, 24, 26]
1.0[38, 93, 202, 117, 49, 26, 24, 26]
1.0[38, 93, 202, 117, 49, 26, 24, 26]
1.0[38, 93, 202, 117, 49, 26, 24, 26]
1.0[38, 93, 202, 117, 49, 26, 24, 26]
1.0[38, 93, 202, 117, 49, 26, 24, 26]
1.0[29, 71, 215, 125, 51, 27, 23, 22]
1.01[29, 71, 215, 125, 51, 27, 23, 22]
1.01[29, 71, 215, 125, 51, 27, 23, 22]
1.01[29, 71, 215, 125, 51, 27, 23, 22]
1.01[29, 71, 215, 125, 51, 27, 23, 22]
1.01[29, 71, 215, 125, 51, 27, 23, 22]
1.01[29, 71, 215, 125, 51, 27, 23, 22]
1.01[29, 71, 215, 125, 51, 27, 23, 22]
1.01[35, 80, 218, 118, 50, 26, 21, 22]
1.04[35, 80, 218, 118, 50, 26, 21, 22]
1.04[35, 80, 218, 118, 50, 26, 21, 22]
1.04[35, 80, 218, 118, 50, 26, 21, 22]
1.04[35, 80, 218, 118, 50, 26, 21, 22]
1.04[35, 80, 218, 118, 50, 26, 21, 22]
1.04[35, 80, 218, 118, 50, 26, 21, 22]
1.04[35, 80, 218, 118, 50, 26, 21, 22]
1.04[37, 80, 203, 108, 52, 25, 19, 24]
1.06[37, 80, 203, 108, 52, 25, 19, 24]
1.06[37, 80, 203, 108, 52, 25, 19, 24]
1.06[37, 80, 203, 108, 52, 25, 19, 24]
1.06[37, 80, 203, 108, 52, 25, 19, 24]
1.06[37, 80, 203, 108, 52, 25, 19, 24]
1.06[37, 80, 203, 108, 52, 25, 19, 24]
1.06[37, 80, 203, 108, 52, 25, 19, 24]
1.06[38, 82, 205, 118, 50, 25, 19, 25]
1.07[38, 82, 205, 118, 50, 25, 19, 25]
1.07[38, 82, 205, 118, 50, 25, 19, 25]
1.07[38, 82, 205, 118, 50, 25, 19, 25]
1.07[38, 82, 205, 118, 50, 25, 19, 25]
1.07[38, 82, 205, 118, 50, 25, 19, 25]
1.07[38, 82, 205, 118, 50, 25, 19, 25]
1.07[38, 82, 205, 118, 50, 25, 19, 25]
1.07[37, 79, 208, 109, 50, 26, 18, 25]
1.1[37, 79, 208, 109, 50, 26, 18, 25]
1.1[37, 79, 208, 109, 50, 26, 18, 25]
1.1[37, 79, 208, 109, 50, 26, 18, 25]
1.1[37, 79, 208, 109, 50, 26, 18, 25]
1.1[37, 79, 208, 109, 50, 26, 18, 25]
1.1[37, 79, 208, 109, 50, 26, 18, 25]
1.1[37, 79, 208, 109, 50, 26, 18, 25]
1.1[38, 78, 209, 104, 54, 25, 19, 25]
1.12[38, 78, 209, 104, 54, 25, 19, 25]
1.12[38, 78, 209, 104, 54, 25, 19, 25]
1.12[38, 78, 209, 104, 54, 25, 19, 25]
1.12[38, 78, 209, 104, 54, 25, 19, 25]
1.12[38, 78, 209, 104, 54, 25, 19, 25]
1.12[38, 78, 209, 104, 54, 25, 19, 25]
1.12[38, 78, 209, 104, 54, 25, 19, 25]
1.12[33, 70, 209, 105, 55, 25, 20, 25]
1.14[33, 70, 209, 105, 55, 25, 20, 25]
1.14[33, 70, 209, 105, 55, 25, 20, 25]
1.14[33, 70, 209, 105, 55, 25, 20, 25]
1.14[33, 70, 209, 105, 55, 25, 20, 25]
1.14[33, 70, 209, 105, 55, 25, 20, 25]
1.14[33, 70, 209, 105, 55, 25, 20, 25]
1.14[33, 70, 209, 105, 55, 25, 20, 25]
1.14[34, 74, 207, 96, 52, 25, 21, 24]
1.16[34, 74, 207, 96, 52, 25, 21, 24]
1.16[34, 74, 207, 96, 52, 25, 21, 24]
1.16[34, 74, 207, 96, 52, 25, 21, 24]
1.16[34, 74, 207, 96, 52, 25, 21, 24]
1.16[34, 74, 207, 96, 52, 25, 21, 24]
1.16[34, 74, 207, 96, 52, 25, 21, 24]
1.16[34, 74, 207, 96, 52, 25, 21, 24]
1.16[39, 75, 191, 93, 56, 28, 22, 23]
1.18[39, 75, 191, 93, 56, 28, 22, 23]
1.18[39, 75, 191, 93, 56, 28, 22, 23]
1.18[39, 75, 191, 93, 56, 28, 22, 23]
1.18[39, 75, 191, 93, 56, 28, 22, 23]
1.18[39, 75, 191, 93, 56, 28, 22, 23]
1.18[39, 75, 191, 93, 56, 28, 22, 23]
1.18[39, 75, 191, 93, 56, 28, 22, 23]
1.18[39, 72, 156, 115, 57, 28, 23, 22]
1.19[39, 72, 156, 115, 57, 28, 23, 22]
1.19[39, 72, 156, 115, 57, 28, 23, 22]
1.19[39, 72, 156, 115, 57, 28, 23, 22]
1.19[39, 72, 156, 115, 57, 28, 23, 22]
1.19[39, 72, 156, 115, 57, 28, 23, 22]
1.19[39, 72, 156, 115, 57, 28, 23, 22]
1.19[39, 72, 156, 115, 57, 28, 23, 22]
1.19[38, 70, 140, 111, 52, 30, 24, 23]
1.22[38, 70, 140, 111, 52, 30, 24, 23]
1.22[38, 70, 140, 111, 52, 30, 24, 23]
1.22[38, 70, 140, 111, 52, 30, 24, 23]
1.22[38, 70, 140, 111, 52, 30, 24, 23]
1.22[38, 70, 140, 111, 52, 30, 24, 23]
1.22[38, 70, 140, 111, 52, 30, 24, 23]
1.22[38, 70, 140, 111, 52, 30, 24, 23]
1.22[38, 74, 173, 116, 52, 29, 23, 24]
1.24[38, 74, 173, 116, 52, 29, 23, 24]
1.24[38, 74, 173, 116, 52, 29, 23, 24]
1.24[38, 74, 173, 116, 52, 29, 23, 24]
1.24[38, 74, 173, 116, 52, 29, 23, 24]
1.24[38, 74, 173, 116, 52, 29, 23, 24]
1.24[38, 74, 173, 116, 52, 29, 23, 24]
1.24[38, 74, 173, 116, 52, 29, 23, 24]
1.24[38, 68, 187, 116, 54, 30, 23, 25]
1.25[38, 68, 187, 116, 54, 30, 23, 25]
1.25[38, 68, 187, 116, 54, 30, 23, 25]
1.25[38, 68, 187, 116, 54, 30, 23, 25]
1.25[38, 68, 187, 116, 54, 30, 23, 25]
1.25[38, 68, 187, 116, 54, 30, 23, 25]
1.25[38, 68, 187, 116, 54, 30, 23, 25]
1.25[38, 68, 187, 116, 54, 30, 23, 25]
1.25[33, 65, 191, 115, 52, 28, 22, 25]
1.28[33, 65, 191, 115, 52, 28, 22, 25]
1.28[33, 65, 191, 115, 52, 28, 22, 25]
1.28[33, 65, 191, 115, 52, 28, 22, 25]
1.28[33, 65, 191, 115, 52, 28, 22, 25]
1.28[33, 65, 191, 115, 52, 28, 22, 25]
1.28[33, 65, 191, 115, 52, 28, 22, 25]
1.28[33, 65, 191, 115, 52, 28, 22, 25]
1.28[33, 70, 223, 106, 52, 28, 22, 25]
1.3[33, 70, 223, 106, 52, 28, 22, 25]
1.3[33, 70, 223, 106, 52, 28, 22, 25]
1.3[33, 70, 223, 106, 52, 28, 22, 25]
1.3[33, 70, 223, 106, 52, 28, 22, 25]
1.3[33, 70, 223, 106, 52, 28, 22, 25]
1.3[33, 70, 223, 106, 52, 28, 22, 25]
1.3[33, 70, 223, 106, 52, 28, 22, 25]
1.3[32, 71, 231, 119, 49, 27, 23, 24]
1.31[32, 71, 231, 119, 49, 27, 23, 24]
1.31[32, 71, 231, 119, 49, 27, 23, 24]
1.31[32, 71, 231, 119, 49, 27, 23, 24]
1.31[32, 71, 231, 119, 49, 27, 23, 24]
1.31[32, 71, 231, 119, 49, 27, 23, 24]
1.31[32, 71, 231, 119, 49, 27, 23, 24]
1.31[32, 71, 231, 119, 49, 27, 23, 24]
1.31[31, 66, 195, 117, 48, 28, 23, 24]
1.34[31, 66, 195, 117, 48, 28, 23, 24]
1.34[31, 66, 195, 117, 48, 28, 23, 24]
1.34[31, 66, 195, 117, 48, 28, 23, 24]
1.34[31, 66, 195, 117, 48, 28, 23, 24]
1.34[31, 66, 195, 117, 48, 28, 23, 24]
1.34[31, 66, 195, 117, 48, 28, 23, 24]
1.34[31, 66, 195, 117, 48, 28, 23, 24]
1.34[30, 69, 177, 132, 54, 29, 24, 23]
1.36[30, 69, 177, 132, 54, 29, 24, 23]
1.36[30, 69, 177, 132, 54, 29, 24, 23]
1.36[30, 69, 177, 132, 54, 29, 24, 23]
1.36[30, 69, 177, 132, 54, 29, 24, 23]
1.36[30, 69, 177, 132, 54, 29, 24, 23]
1.36[30, 69, 177, 132, 54, 29, 24, 23]
1.36[30, 69, 177, 132, 54, 29, 24, 23]
1.36[31, 67, 182, 132, 56, 28, 24, 24]
1.37[31, 67, 182, 132, 56, 28, 24, 24]
1.37[31, 67, 182, 132, 56, 28, 24, 24]
1.37[31, 67, 182, 132, 56, 28, 24, 24]
1.37[31, 67, 182, 132, 56, 28, 24, 24]
1.37[31, 67, 182, 132, 56, 28, 24, 24]
1.37[31, 67, 182, 132, 56, 28, 24, 24]
1.37[31, 67, 182, 132, 56, 28, 24, 24]
1.37[38, 78, 144, 133, 61, 30, 23, 25]
1.4[38, 78, 144, 133, 61, 30, 23, 25]
1.4[38, 78, 144, 133, 61, 30, 23, 25]
1.4[38, 78, 144, 133, 61, 30, 23, 25]
1.4[38, 78, 144, 133, 61, 30, 23, 25]
1.4[38, 78, 144, 133, 61, 30, 23, 25]
1.4[38, 78, 144, 133, 61, 30, 23, 25]
1.4[38, 78, 144, 133, 61, 30, 23, 25]
1.4[40, 81, 126, 117, 62, 29, 24, 25]
1.42[40, 81, 126, 117, 62, 29, 24, 25]
1.42[40, 81, 126, 117, 62, 29, 24, 25]
1.42[40, 81, 126, 117, 62, 29, 24, 25]
1.42[40, 81, 126, 117, 62, 29, 24, 25]
1.42[40, 81, 126, 117, 62, 29, 24, 25]
1.42[40, 81, 126, 117, 62, 29, 24, 25]
1.42[40, 81, 126, 117, 62, 29, 24, 25]
1.42[40, 80, 154, 136, 62, 29, 25, 25]
1.43[40, 80, 154, 136, 62, 29, 25, 25]
1.43[40, 80, 154, 136, 62, 29, 25, 25]
1.43[40, 80, 154, 136, 62, 29, 25, 25]
1.43[40, 80, 154, 136, 62, 29, 25, 25]
1.43[40, 80, 154, 136, 62, 29, 25, 25]
1.43[40, 80, 154, 136, 62, 29, 25, 25]
1.43[40, 80, 154, 136, 62, 29, 25, 25]
1.43[39, 82, 158, 127, 56, 27, 25, 24]
1.46[39, 82, 158, 127, 56, 27, 25, 24]
1.46[39, 82, 158, 127, 56, 27, 25, 24]
1.46[39, 82, 158, 127, 56, 27, 25, 24]
1.46[39, 82, 158, 127, 56, 27, 25, 24]
1.46[39, 82, 158, 127, 56, 27, 25, 24]
1.46[39, 82, 158, 127, 56, 27, 25, 24]
1.46[39, 82, 158, 127, 56, 27, 25, 24]
1.46[39, 96, 156, 126, 53, 25, 24, 26]
1.48[39, 96, 156, 126, 53, 25, 24, 26]
1.48[39, 96, 156, 126, 53, 25, 24, 26]
1.48[39, 96, 156, 126, 53, 25, 24, 26]
1.48[39, 96, 156, 126, 53, 25, 24, 26]
1.48[39, 96, 156, 126, 53, 25, 24, 26]
1.48[39, 96, 156, 126, 53, 25, 24, 26]
1.48[39, 96, 156, 126, 53, 25, 24, 26]
1.48[37, 86, 158, 126, 61, 26, 25, 28]
1.49[37, 86, 158, 126, 61, 26, 25, 28]
1.49[37, 86, 158, 126, 61, 26, 25, 28]
1.49[37, 86, 158, 126, 61, 26, 25, 28]
1.49[37, 86, 158, 126, 61, 26, 25, 28]
1.49[37, 86, 158, 126, 61, 26, 25, 28]
1.49[37, 86, 158, 126, 61, 26, 25, 28]
1.49[37, 86, 158, 126, 61, 26, 25, 28]
1.49[35, 84, 167, 126, 62, 29, 22, 29]
1.52[35, 84, 167, 126, 62, 29, 22, 29]
1.52[35, 84, 167, 126, 62, 29, 22, 29]
1.52[35, 84, 167, 126, 62, 29, 22, 29]
1.52[35, 84, 167, 126, 62, 29, 22, 29]
1.52[35, 84, 167, 126, 62, 29, 22, 29]
1.52[35, 84, 167, 126, 62, 29, 22, 29]
1.52[35, 84, 167, 126, 62, 29, 22, 29]
1.52[36, 86, 163, 116, 60, 29, 23, 27]
1.54[36, 86, 163, 116, 60, 29, 23, 27]
1.54[36, 86, 163, 116, 60, 29, 23, 27]
1.54[36, 86, 163, 116, 60, 29, 23, 27]
1.54[36, 86, 163, 116, 60, 29, 23, 27]
1.54[36, 86, 163, 116, 60, 29, 23, 27]
1.54[36, 86, 163, 116, 60, 29, 23, 27]
1.54[36, 86, 163, 116, 60, 29, 23, 27]
1.54[38, 85, 160, 117, 60, 31, 24, 28]
1.55[38, 85, 160, 117, 60, 31, 24, 28]
1.55[38, 85, 160, 117, 60, 31, 24, 28]
1.55[38, 85, 160, 117, 60, 31, 24, 28]
1.55[38, 85, 160, 117, 60, 31, 24, 28]
1.55[38, 85, 160, 117, 60, 31, 24, 28]
1.55[38, 85, 160, 117, 60, 31, 24, 28]
1.55[38, 85, 160, 117, 60, 31, 24, 28]
1.55[38, 72, 151, 116, 57, 30, 24, 27]
1.58[38, 72, 151, 116, 57, 30, 24, 27]
1.58[38, 72, 151, 116, 57, 30, 24, 27]
1.58[38, 72, 151, 116, 57, 30, 24, 27]
1.58[38, 72, 151, 116, 57, 30, 24, 27]
1.58[38, 72, 151, 116, 57, 30, 24, 27]
1.58[38, 72, 151, 116, 57, 30, 24, 27]
1.58[38, 72, 151, 116, 57, 30, 24, 27]
1.58[35, 68, 148, 101, 41, 29, 24, 25]
1.6[35, 68, 148, 101, 41, 29, 24, 25]
1.6[35, 68, 148, 101, 41, 29, 24, 25]
1.6[35, 68, 148, 101, 41, 29, 24, 25]
1.6[35, 68, 148, 101, 41, 29, 24, 25]
1.6[35, 68, 148, 101, 41, 29, 24, 25]
1.6[35, 68, 148, 101, 41, 29, 24, 25]
1.6[35, 68, 148, 101, 41, 29, 24, 25]
1.6[37, 70, 146, 124, 41, 28, 26, 26]
1.62[37, 70, 146, 124, 41, 28, 26, 26]
1.62[37, 70, 146, 124, 41, 28, 26, 26]
1.62[37, 70, 146, 124, 41, 28, 26, 26]
1.62[37, 70, 146, 124, 41, 28, 26, 26]
1.62[37, 70, 146, 124, 41, 28, 26, 26]
1.62[37, 70, 146, 124, 41, 28, 26, 26]
1.62[37, 70, 146, 124, 41, 28, 26, 26]
1.62[38, 68, 139, 110, 44, 27, 26, 25]
1.64[38, 68, 139, 110, 44, 27, 26, 25]
1.64[38, 68, 139, 110, 44, 27, 26, 25]
1.64[38, 68, 139, 110, 44, 27, 26, 25]
1.64[38, 68, 139, 110, 44, 27, 26, 25]
1.64[38, 68, 139, 110, 44, 27, 26, 25]
1.64[38, 68, 139, 110, 44, 27, 26, 25]
1.65[38, 68, 139, 110, 44, 27, 26, 25]
1.65[36, 64, 139, 108, 43, 26, 24, 25]
1.67[36, 64, 139, 108, 43, 26, 24, 25]
1.67[36, 64, 139, 108, 43, 26, 24, 25]
1.67[36, 64, 139, 108, 43, 26, 24, 25]
1.67[36, 64, 139, 108, 43, 26, 24, 25]
1.67[36, 64, 139, 108, 43, 26, 24, 25]
1.67[36, 64, 139, 108, 43, 26, 24, 25]
1.67[36, 64, 139, 108, 43, 26, 24, 25]
1.67[35, 60, 174, 122, 46, 28, 24, 24]
1.68[35, 60, 174, 122, 46, 28, 24, 24]
1.68[35, 60, 174, 122, 46, 28, 24, 24]
1.68[35, 60, 174, 122, 46, 28, 24, 24]
1.68[35, 60, 174, 122, 46, 28, 24, 24]
1.68[35, 60, 174, 122, 46, 28, 24, 24]
1.68[35, 60, 174, 122, 46, 28, 24, 24]
1.68[35, 60, 174, 122, 46, 28, 24, 24]
1.68[35, 59, 198, 134, 48, 27, 22, 22]
1.7[35, 59, 198, 134, 48, 27, 22, 22]
1.7[35, 59, 198, 134, 48, 27, 22, 22]
1.7[35, 59, 198, 134, 48, 27, 22, 22]
1.7[35, 59, 198, 134, 48, 27, 22, 22]
1.7[35, 59, 198, 134, 48, 27, 22, 22]
1.7[35, 59, 198, 134, 48, 27, 22, 22]
1.7[35, 59, 198, 134, 48, 27, 22, 22]
1.7[36, 55, 200, 124, 47, 26, 20, 19]
1.73[36, 55, 200, 124, 47, 26, 20, 19]
1.73[36, 55, 200, 124, 47, 26, 20, 19]
1.73[36, 55, 200, 124, 47, 26, 20, 19]
1.73[36, 55, 200, 124, 47, 26, 20, 19]
1.73[36, 55, 200, 124, 47, 26, 20, 19]
1.73[36, 55, 200, 124, 47, 26, 20, 19]
1.73[36, 55, 200, 124, 47, 26, 20, 19]
1.73[32, 47, 194, 129, 44, 26, 19, 19]
1.74[32, 47, 194, 129, 44, 26, 19, 19]
1.74[32, 47, 194, 129, 44, 26, 19, 19]
1.74[32, 47, 194, 129, 44, 26, 19, 19]
1.74[32, 47, 194, 129, 44, 26, 19, 19]
1.74[32, 47, 194, 129, 44, 26, 19, 19]
1.74[32, 47, 194, 129, 44, 26, 19, 19]
1.74[32, 47, 194, 129, 44, 26, 19, 19]
1.74[32, 53, 198, 126, 46, 28, 20, 21]
1.76[32, 53, 198, 126, 46, 28, 20, 21]
1.76[32, 53, 198, 126, 46, 28, 20, 21]
1.76[32, 53, 198, 126, 46, 28, 20, 21]
1.76[32, 53, 198, 126, 46, 28, 20, 21]
1.76[32, 53, 198, 126, 46, 28, 20, 21]
1.76[32, 53, 198, 126, 46, 28, 20, 21]
1.76[32, 53, 198, 126, 46, 28, 20, 21]
1.76[40, 73, 177, 107, 43, 26, 19, 23]
1.78[40, 73, 177, 107, 43, 26, 19, 23]
1.78[40, 73, 177, 107, 43, 26, 19, 23]
1.78[40, 73, 177, 107, 43, 26, 19, 23]
1.78[40, 73, 177, 107, 43, 26, 19, 23]
1.78[40, 73, 177, 107, 43, 26, 19, 23]
1.78[40, 73, 177, 107, 43, 26, 19, 23]
1.78[40, 73, 177, 107, 43, 26, 19, 23]
1.78[40, 76, 155, 104, 44, 27, 19, 23]
1.8[40, 76, 155, 104, 44, 27, 19, 23]
1.8[40, 76, 155, 104, 44, 27, 19, 23]
1.8[40, 76, 155, 104, 44, 27, 19, 23]
1.8[40, 76, 155, 104, 44, 27, 19, 23]
1.8[40, 76, 155, 104, 44, 27, 19, 23]
1.8[40, 76, 155, 104, 44, 27, 19, 23]
1.8[40, 76, 155, 104, 44, 27, 19, 23]
1.8[36, 79, 148, 95, 43, 26, 21, 24]
1.82[36, 79, 148, 95, 43, 26, 21, 24]
1.82[36, 79, 148, 95, 43, 26, 21, 24]
1.82[36, 79, 148, 95, 43, 26, 21, 24]
1.82[36, 79, 148, 95, 43, 26, 21, 24]
1.82[36, 79, 148, 95, 43, 26, 21, 24]
1.82[36, 79, 148, 95, 43, 26, 21, 24]
1.82[36, 79, 148, 95, 43, 26, 21, 24]
1.82[40, 81, 252, 91, 40, 28, 24, 27]
1.84[40, 81, 252, 91, 40, 28, 24, 27]
1.84[40, 81, 252, 91, 40, 28, 24, 27]
1.84[40, 81, 252, 91, 40, 28, 24, 27]
1.84[40, 81, 252, 91, 40, 28, 24, 27]
1.84[40, 81, 252, 91, 40, 28, 24, 27]
1.84[40, 81, 252, 91, 40, 28, 24, 27]
1.84[40, 81, 252, 91, 40, 28, 24, 27]
1.84[42, 86, 262, 94, 37, 26, 25, 25]
1.86[42, 86, 262, 94, 37, 26, 25, 25]
1.86[42, 86, 262, 94, 37, 26, 25, 25]
1.86[42, 86, 262, 94, 37, 26, 25, 25]
1.86[42, 86, 262, 94, 37, 26, 25, 25]
1.86[42, 86, 262, 94, 37, 26, 25, 25]
1.86[42, 86, 262, 94, 37, 26, 25, 25]
1.86[42, 86, 262, 94, 37, 26, 25, 25]
1.86[34, 70, 252, 139, 44, 25, 26, 23]
1.88[34, 70, 252, 139, 44, 25, 26, 23]
1.88[34, 70, 252, 139, 44, 25, 26, 23]
1.88[34, 70, 252, 139, 44, 25, 26, 23]
1.88[34, 70, 252, 139, 44, 25, 26, 23]
1.88[34, 70, 252, 139, 44, 25, 26, 23]
1.88[34, 70, 252, 139, 44, 25, 26, 23]
1.88[34, 70, 252, 139, 44, 25, 26, 23]
1.88[37, 74, 247, 135, 45, 25, 26, 24]
1.9[37, 74, 247, 135, 45, 25, 26, 24]
1.9[37, 74, 247, 135, 45, 25, 26, 24]
1.9[37, 74, 247, 135, 45, 25, 26, 24]
1.9[37, 74, 247, 135, 45, 25, 26, 24]
1.9[37, 74, 247, 135, 45, 25, 26, 24]
1.9[37, 74, 247, 135, 45, 25, 26, 24]
1.9[37, 74, 247, 135, 45, 25, 26, 24]
1.9[40, 70, 254, 138, 50, 27, 25, 24]
1.92[40, 70, 254, 138, 50, 27, 25, 24]
1.92[40, 70, 254, 138, 50, 27, 25, 24]
1.92[40, 70, 254, 138, 50, 27, 25, 24]
1.92[40, 70, 254, 138, 50, 27, 25, 24]
1.92[40, 70, 254, 138, 50, 27, 25, 24]
1.92[40, 70, 254, 138, 50, 27, 25, 24]
1.92[40, 70, 254, 138, 50, 27, 25, 24]
1.92[39, 75, 151, 133, 51, 29, 27, 24]
1.94[39, 75, 151, 133, 51, 29, 27, 24]
1.94[39, 75, 151, 133, 51, 29, 27, 24]
1.94[39, 75, 151, 133, 51, 29, 27, 24]
1.94[39, 75, 151, 133, 51, 29, 27, 24]
1.94[39, 75, 151, 133, 51, 29, 27, 24]
1.94[39, 75, 151, 133, 51, 29, 27, 24]
1.94[39, 75, 151, 133, 51, 29, 27, 24]
1.94[35, 64, 132, 143, 58, 29, 26, 24]
1.96[35, 64, 132, 143, 58, 29, 26, 24]
1.96[35, 64, 132, 143, 58, 29, 26, 24]
1.96[35, 64, 132, 143, 58, 29, 26, 24]
1.96[35, 64, 132, 143, 58, 29, 26, 24]
1.96[35, 64, 132, 143, 58, 29, 26, 24]
1.96[35, 64, 132, 143, 58, 29, 26, 24]
1.96[35, 64, 132, 143, 58, 29, 26, 24]
1.96[38, 62, 145, 123, 57, 30, 26, 25]
1.98[38, 62, 145, 123, 57, 30, 26, 25]
1.98[38, 62, 145, 123, 57, 30, 26, 25]
1.98[38, 62, 145, 123, 57, 30, 26, 25]
1.98[38, 62, 145, 123, 57, 30, 26, 25]
1.98[38, 62, 145, 123, 57, 30, 26, 25]
1.98[38, 62, 145, 123, 57, 30, 26, 25]
1.98[38, 62, 145, 123, 57, 30, 26, 25]
1.98[36, 64, 151, 116, 59, 31, 27, 26]
2.0[36, 64, 151, 116, 59, 31, 27, 26]
2.0[36, 64, 151, 116, 59, 31, 27, 26]
2.0[36, 64, 151, 116, 59, 31, 27, 26]
2.0[36, 64, 151, 116, 59, 31, 27, 26]
2.0[36, 64, 151, 116, 59, 31, 27, 26]
2.0[36, 64, 151, 116, 59, 31, 27, 26]
2.0[36, 64, 151, 116, 59, 31, 27, 26]
2.0[34, 67, 155, 116, 57, 30, 25, 25]
2.02[34, 67, 155, 116, 57, 30, 25, 25]
2.02[34, 67, 155, 116, 57, 30, 25, 25]
2.02[34, 67, 155, 116, 57, 30, 25, 25]
2.02[34, 67, 155, 116, 57, 30, 25, 25]
2.02[34, 67, 155, 116, 57, 30, 25, 25]
2.02[34, 67, 155, 116, 57, 30, 25, 25]
2.02[34, 67, 155, 116, 57, 30, 25, 25]
2.02[32, 62, 156, 119, 57, 27, 23, 24]
2.04[32, 62, 156, 119, 57, 27, 23, 24]
2.04[32, 62, 156, 119, 57, 27, 23, 24]
2.04[32, 62, 156, 119, 57, 27, 23, 24]
2.04[32, 62, 156, 119, 57, 27, 23, 24]
2.04[32, 62, 156, 119, 57, 27, 23, 24]
2.04[32, 62, 156, 119, 57, 27, 23, 24]
2.04[32, 62, 156, 119, 57, 27, 23, 24]
2.04[35, 67, 159, 109, 50, 27, 21, 23]
2.06[35, 67, 159, 109, 50, 27, 21, 23]
2.06[35, 67, 159, 109, 50, 27, 21, 23]
2.06[35, 67, 159, 109, 50, 27, 21, 23]
2.06[35, 67, 159, 109, 50, 27, 21, 23]
2.06[35, 67, 159, 109, 50, 27, 21, 23]
2.06[35, 67, 159, 109, 50, 27, 21, 23]
2.06[35, 67, 159, 109, 50, 27, 21, 23]
2.06[37, 74, 157, 79, 48, 26, 20, 25]
2.08[37, 74, 157, 79, 48, 26, 20, 25]
2.08[37, 74, 157, 79, 48, 26, 20, 25]
2.08[37, 74, 157, 79, 48, 26, 20, 25]
2.08[37, 74, 157, 79, 48, 26, 20, 25]
2.08[37, 74, 157, 79, 48, 26, 20, 25]
2.08[37, 74, 157, 79, 48, 26, 20, 25]
2.08[37, 74, 157, 79, 48, 26, 20, 25]
2.08[35, 67, 164, 86, 42, 24, 18, 24]
2.1[35, 67, 164, 86, 42, 24, 18, 24]
2.1[35, 67, 164, 86, 42, 24, 18, 24]
2.1[35, 67, 164, 86, 42, 24, 18, 24]
2.1[35, 67, 164, 86, 42, 24, 18, 24]
2.1[35, 67, 164, 86, 42, 24, 18, 24]
2.1[35, 67, 164, 86, 42, 24, 18, 24]
2.1[35, 67, 164, 86, 42, 24, 18, 24]
2.1[34, 64, 148, 95, 42, 24, 20, 24]
2.12[34, 64, 148, 95, 42, 24, 20, 24]
2.12[34, 64, 148, 95, 42, 24, 20, 24]
2.12[34, 64, 148, 95, 42, 24, 20, 24]
2.12[34, 64, 148, 95, 42, 24, 20, 24]
2.12[34, 64, 148, 95, 42, 24, 20, 24]
2.12[34, 64, 148, 95, 42, 24, 20, 24]
2.12[34, 64, 148, 95, 42, 24, 20, 24]
2.12[39, 75, 153, 115, 44, 24, 18, 22]
2.15[39, 75, 153, 115, 44, 24, 18, 22]
2.15[39, 75, 153, 115, 44, 24, 18, 22]
2.15[39, 75, 153, 115, 44, 24, 18, 22]
2.15[39, 75, 153, 115, 44, 24, 18, 22]
2.15[39, 75, 153, 115, 44, 24, 18, 22]
2.15[39, 75, 153, 115, 44, 24, 18, 22]
2.15[39, 75, 153, 115, 44, 24, 18, 22]
2.15[36, 71, 132, 124, 42, 25, 20, 24]
2.16[36, 71, 132, 124, 42, 25, 20, 24]
2.16[36, 71, 132, 124, 42, 25, 20, 24]
2.16[36, 71, 132, 124, 42, 25, 20, 24]
2.16[36, 71, 132, 124, 42, 25, 20, 24]
2.16[36, 71, 132, 124, 42, 25, 20, 24]
2.16[36, 71, 132, 124, 42, 25, 20, 24]
2.16[36, 71, 132, 124, 42, 25, 20, 24]
2.16[33, 63, 132, 133, 49, 24, 21, 21]
2.18[33, 63, 132, 133, 49, 24, 21, 21]
2.18[33, 63, 132, 133, 49, 24, 21, 21]
2.18[33, 63, 132, 133, 49, 24, 21, 21]
2.18[33, 63, 132, 133, 49, 24, 21, 21]
2.18[33, 63, 132, 133, 49, 24, 21, 21]
2.18[33, 63, 132, 133, 49, 24, 21, 21]
2.18[33, 63, 132, 133, 49, 24, 21, 21]
2.18[38, 77, 123, 131, 49, 28, 22, 23]
2.21[38, 77, 123, 131, 49, 28, 22, 23]
2.21[38, 77, 123, 131, 49, 28, 22, 23]
2.21[38, 77, 123, 131, 49, 28, 22, 23]
2.21[38, 77, 123, 131, 49, 28, 22, 23]
2.21[38, 77, 123, 131, 49, 28, 22, 23]
2.21[38, 77, 123, 131, 49, 28, 22, 23]
2.21[38, 77, 123, 131, 49, 28, 22, 23]
2.21[40, 90, 127, 123, 47, 27, 22, 25]
2.22[40, 90, 127, 123, 47, 27, 22, 25]
2.22[40, 90, 127, 123, 47, 27, 22, 25]
2.22[40, 90, 127, 123, 47, 27, 22, 25]
2.22[40, 90, 127, 123, 47, 27, 22, 25]
2.22[40, 90, 127, 123, 47, 27, 22, 25]
2.22[40, 90, 127, 123, 47, 27, 22, 25]
2.22[40, 90, 127, 123, 47, 27, 22, 25]
2.22[35, 82, 121, 103, 44, 29, 22, 25]
2.24[35, 82, 121, 103, 44, 29, 22, 25]
2.24[35, 82, 121, 103, 44, 29, 22, 25]
2.24[35, 82, 121, 103, 44, 29, 22, 25]
2.24[35, 82, 121, 103, 44, 29, 22, 25]
2.24[35, 82, 121, 103, 44, 29, 22, 25]
2.24[35, 82, 121, 103, 44, 29, 22, 25]
2.24[35, 82, 121, 103, 44, 29, 22, 25]
2.24[36, 84, 146, 92, 46, 28, 23, 25]
2.27[36, 84, 146, 92, 46, 28, 23, 25]
2.27[36, 84, 146, 92, 46, 28, 23, 25]
2.27[36, 84, 146, 92, 46, 28, 23, 25]
2.27[36, 84, 146, 92, 46, 28, 23, 25]
2.27[36, 84, 146, 92, 46, 28, 23, 25]
2.27[36, 84, 146, 92, 46, 28, 23, 25]
2.27[36, 84, 146, 92, 46, 28, 23, 25]
2.27[39, 92, 142, 87, 40, 28, 26, 25]
2.28[39, 92, 142, 87, 40, 28, 26, 25]
2.28[39, 92, 142, 87, 40, 28, 26, 25]
2.28[39, 92, 142, 87, 40, 28, 26, 25]
2.28[39, 92, 142, 87, 40, 28, 26, 25]
2.28[39, 92, 142, 87, 40, 28, 26, 25]
2.28[39, 92, 142, 87, 40, 28, 26, 25]
2.28[39, 92, 142, 87, 40, 28, 26, 25]
2.28[35, 80, 143, 95, 40, 25, 25, 22]
2.3[35, 80, 143, 95, 40, 25, 25, 22]
2.3[35, 80, 143, 95, 40, 25, 25, 22]
2.3[35, 80, 143, 95, 40, 25, 25, 22]
2.3[35, 80, 143, 95, 40, 25, 25, 22]
2.3[35, 80, 143, 95, 40, 25, 25, 22]
2.3[35, 80, 143, 95, 40, 25, 25, 22]
2.3[35, 80, 143, 95, 40, 25, 25, 22]
2.3[34, 68, 172, 93, 40, 24, 25, 23]
2.33[34, 68, 172, 93, 40, 24, 25, 23]
2.33[34, 68, 172, 93, 40, 24, 25, 23]
2.33[34, 68, 172, 93, 40, 24, 25, 23]
2.33[34, 68, 172, 93, 40, 24, 25, 23]
2.33[34, 68, 172, 93, 40, 24, 25, 23]
2.33[34, 68, 172, 93, 40, 24, 25, 23]
2.33[34, 68, 172, 93, 40, 24, 25, 23]
2.33[35, 68, 192, 102, 41, 27, 25, 23]
2.34[35, 68, 192, 102, 41, 27, 25, 23]
2.34[35, 68, 192, 102, 41, 27, 25, 23]
2.34[35, 68, 192, 102, 41, 27, 25, 23]
2.34[35, 68, 192, 102, 41, 27, 25, 23]
2.34[35, 68, 192, 102, 41, 27, 25, 23]
2.34[35, 68, 192, 102, 41, 27, 25, 23]
2.34[35, 68, 192, 102, 41, 27, 25, 23]
2.34[36, 68, 185, 99, 46, 26, 24, 22]
2.36[36, 68, 185, 99, 46, 26, 24, 22]
2.36[36, 68, 185, 99, 46, 26, 24, 22]
2.36[36, 68, 185, 99, 46, 26, 24, 22]
2.36[36, 68, 185, 99, 46, 26, 24, 22]
2.36[36, 68, 185, 99, 46, 26, 24, 22]
2.36[36, 68, 185, 99, 46, 26, 24, 22]
2.36[36, 68, 185, 99, 46, 26, 24, 22]
2.36[32, 61, 197, 101, 47, 29, 23, 22]
2.39[32, 61, 197, 101, 47, 29, 23, 22]
2.39[32, 61, 197, 101, 47, 29, 23, 22]
2.39[32, 61, 197, 101, 47, 29, 23, 22]
2.39[32, 61, 197, 101, 47, 29, 23, 22]
2.39[32, 61, 197, 101, 47, 29, 23, 22]
2.39[32, 61, 197, 101, 47, 29, 23, 22]
2.39[32, 61, 197, 101, 47, 29, 23, 22]
2.39[32, 59, 192, 105, 50, 29, 22, 23]
2.4[32, 59, 192, 105, 50, 29, 22, 23]
2.4[32, 59, 192, 105, 50, 29, 22, 23]
2.4[32, 59, 192, 105, 50, 29, 22, 23]
2.4[32, 59, 192, 105, 50, 29, 22, 23]
2.4[32, 59, 192, 105, 50, 29, 22, 23]
2.4[32, 59, 192, 105, 50, 29, 22, 23]
2.4[32, 59, 192, 105, 50, 29, 22, 23]
2.4[33, 67, 227, 108, 51, 30, 23, 21]
2.42[33, 67, 227, 108, 51, 30, 23, 21]
2.42[33, 67, 227, 108, 51, 30, 23, 21]
2.42[33, 67, 227, 108, 51, 30, 23, 21]
2.42[33, 67, 227, 108, 51, 30, 23, 21]
2.42[33, 67, 227, 108, 51, 30, 23, 21]
2.42[33, 67, 227, 108, 51, 30, 23, 21]
2.42[33, 67, 227, 108, 51, 30, 23, 21]
2.42[33, 64, 223, 111, 51, 28, 23, 22]
2.45[33, 64, 223, 111, 51, 28, 23, 22]
2.45[33, 64, 223, 111, 51, 28, 23, 22]
2.45[33, 64, 223, 111, 51, 28, 23, 22]
2.45[33, 64, 223, 111, 51, 28, 23, 22]
2.45[33, 64, 223, 111, 51, 28, 23, 22]
2.45[33, 64, 223, 111, 51, 28, 23, 22]
2.45[33, 64, 223, 111, 51, 28, 23, 22]
2.45[32, 63, 220, 108, 48, 28, 25, 22]
2.47[32, 63, 220, 108, 48, 28, 25, 22]
2.47[32, 63, 220, 108, 48, 28, 25, 22]
2.47[32, 63, 220, 108, 48, 28, 25, 22]
2.47[32, 63, 220, 108, 48, 28, 25, 22]
2.47[32, 63, 220, 108, 48, 28, 25, 22]
2.47[32, 63, 220, 108, 48, 28, 25, 22]
2.47[32, 63, 220, 108, 48, 28, 25, 22]
2.47[32, 61, 209, 105, 44, 25, 24, 23]
2.48[32, 61, 209, 105, 44, 25, 24, 23]
2.48[32, 61, 209, 105, 44, 25, 24, 23]
2.48[32, 61, 209, 105, 44, 25, 24, 23]
2.48[32, 61, 209, 105, 44, 25, 24, 23]
2.48[32, 61, 209, 105, 44, 25, 24, 23]
2.48[32, 61, 209, 105, 44, 25, 24, 23]
2.48[32, 61, 209, 105, 44, 25, 24, 23]
2.48[31, 62, 212, 102, 42, 27, 24, 22]
2.51[31, 62, 212, 102, 42, 27, 24, 22]
2.51[31, 62, 212, 102, 42, 27, 24, 22]
2.51[31, 62, 212, 102, 42, 27, 24, 22]
2.51[31, 62, 212, 102, 42, 27, 24, 22]
2.51[31, 62, 212, 102, 42, 27, 24, 22]
2.51[31, 62, 212, 102, 42, 27, 24, 22]
2.51[31, 62, 212, 102, 42, 27, 24, 22]
2.51[29, 51, 155, 103, 43, 28, 25, 22]
2.52[29, 51, 155, 103, 43, 28, 25, 22]
2.52[29, 51, 155, 103, 43, 28, 25, 22]
2.52[29, 51, 155, 103, 43, 28, 25, 22]
2.52[29, 51, 155, 103, 43, 28, 25, 22]
2.52[29, 51, 155, 103, 43, 28, 25, 22]
2.52[29, 51, 155, 103, 43, 28, 25, 22]
2.52[29, 51, 155, 103, 43, 28, 25, 22]
2.52[31, 54, 143, 101, 43, 27, 25, 21]
2.54[31, 54, 143, 101, 43, 27, 25, 21]
2.54[31, 54, 143, 101, 43, 27, 25, 21]
2.54[31, 54, 143, 101, 43, 27, 25, 21]
2.54[31, 54, 143, 101, 43, 27, 25, 21]
2.54[31, 54, 143, 101, 43, 27, 25, 21]
2.54[31, 54, 143, 101, 43, 27, 25, 21]
2.54[31, 54, 143, 101, 43, 27, 25, 21]
2.54[29, 52, 168, 106, 39, 27, 23, 21]
2.57[29, 52, 168, 106, 39, 27, 23, 21]
2.57[29, 52, 168, 106, 39, 27, 23, 21]
2.57[29, 52, 168, 106, 39, 27, 23, 21]
2.57[29, 52, 168, 106, 39, 27, 23, 21]
2.57[29, 52, 168, 106, 39, 27, 23, 21]
2.57[29, 52, 168, 106, 39, 27, 23, 21]
2.57[29, 52, 168, 106, 39, 27, 23, 21]
2.57[30, 58, 174, 112, 39, 28, 22, 20]
2.58[30, 58, 174, 112, 39, 28, 22, 20]
2.58[30, 58, 174, 112, 39, 28, 22, 20]
2.58[30, 58, 174, 112, 39, 28, 22, 20]
2.58[30, 58, 174, 112, 39, 28, 22, 20]
2.58[30, 58, 174, 112, 39, 28, 22, 20]
2.58[30, 58, 174, 112, 39, 28, 22, 20]
2.58[30, 58, 174, 112, 39, 28, 22, 20]
2.58[30, 61, 172, 113, 38, 25, 23, 19]
2.6[30, 61, 172, 113, 38, 25, 23, 19]
2.6[30, 61, 172, 113, 38, 25, 23, 19]
2.6[30, 61, 172, 113, 38, 25, 23, 19]
2.6[30, 61, 172, 113, 38, 25, 23, 19]
2.6[30, 61, 172, 113, 38, 25, 23, 19]
2.6[30, 61, 172, 113, 38, 25, 23, 19]
2.6[30, 61, 172, 113, 38, 25, 23, 19]
2.6[33, 72, 162, 107, 35, 23, 23, 19]
2.63[33, 72, 162, 107, 35, 23, 23, 19]
2.63[33, 72, 162, 107, 35, 23, 23, 19]
2.63[33, 72, 162, 107, 35, 23, 23, 19]
2.63[33, 72, 162, 107, 35, 23, 23, 19]
2.63[33, 72, 162, 107, 35, 23, 23, 19]
2.63[33, 72, 162, 107, 35, 23, 23, 19]
2.63[33, 72, 162, 107, 35, 23, 23, 19]
2.63[31, 79, 187, 108, 34, 27, 23, 20]
2.64[31, 79, 187, 108, 34, 27, 23, 20]
2.64[31, 79, 187, 108, 34, 27, 23, 20]
2.64[31, 79, 187, 108, 34, 27, 23, 20]
2.64[31, 79, 187, 108, 34, 27, 23, 20]
2.64[31, 79, 187, 108, 34, 27, 23, 20]
2.64[31, 79, 187, 108, 34, 27, 23, 20]
2.64[31, 79, 187, 108, 34, 27, 23, 20]
2.64[36, 80, 180, 108, 34, 26, 22, 21]
2.66[36, 80, 180, 108, 34, 26, 22, 21]
2.66[36, 80, 180, 108, 34, 26, 22, 21]
2.66[36, 80, 180, 108, 34, 26, 22, 21]
2.66[36, 80, 180, 108, 34, 26, 22, 21]
2.66[36, 80, 180, 108, 34, 26, 22, 21]
2.66[36, 80, 180, 108, 34, 26, 22, 21]
2.66[36, 80, 180, 108, 34, 26, 22, 21]
2.66[34, 76, 206, 99, 33, 26, 20, 22]
2.69[34, 76, 206, 99, 33, 26, 20, 22]
2.69[34, 76, 206, 99, 33, 26, 20, 22]
2.69[34, 76, 206, 99, 33, 26, 20, 22]
2.69[34, 76, 206, 99, 33, 26, 20, 22]
2.69[34, 76, 206, 99, 33, 26, 20, 22]
2.69[34, 76, 206, 99, 33, 26, 20, 22]
2.69[34, 76, 206, 99, 33, 26, 20, 22]
2.69[36, 74, 232, 98, 36, 29, 24, 23]
2.7[36, 74, 232, 98, 36, 29, 24, 23]
2.7[36, 74, 232, 98, 36, 29, 24, 23]
2.7[36, 74, 232, 98, 36, 29, 24, 23]
2.7[36, 74, 232, 98, 36, 29, 24, 23]
2.7[36, 74, 232, 98, 36, 29, 24, 23]
2.7[36, 74, 232, 98, 36, 29, 24, 23]
2.7[36, 74, 232, 98, 36, 29, 24, 23]
2.7[35, 64, 228, 103, 46, 31, 22, 24]
2.72[35, 64, 228, 103, 46, 31, 22, 24]
2.72[35, 64, 228, 103, 46, 31, 22, 24]
2.72[35, 64, 228, 103, 46, 31, 22, 24]
2.72[35, 64, 228, 103, 46, 31, 22, 24]
2.72[35, 64, 228, 103, 46, 31, 22, 24]
2.72[35, 64, 228, 103, 46, 31, 22, 24]
2.72[35, 64, 228, 103, 46, 31, 22, 24]
2.72[37, 60, 211, 93, 49, 27, 22, 23]
2.75[37, 60, 211, 93, 49, 27, 22, 23]
2.75[37, 60, 211, 93, 49, 27, 22, 23]
2.75[37, 60, 211, 93, 49, 27, 22, 23]
2.75[37, 60, 211, 93, 49, 27, 22, 23]
2.75[37, 60, 211, 93, 49, 27, 22, 23]
2.75[37, 60, 211, 93, 49, 27, 22, 23]
2.75[37, 60, 211, 93, 49, 27, 22, 23]
2.75[36, 66, 214, 97, 53, 30, 23, 22]
2.76[36, 66, 214, 97, 53, 30, 23, 22]
2.76[36, 66, 214, 97, 53, 30, 23, 22]
2.76[36, 66, 214, 97, 53, 30, 23, 22]
2.76[36, 66, 214, 97, 53, 30, 23, 22]
2.76[36, 66, 214, 97, 53, 30, 23, 22]
2.76[36, 66, 214, 97, 53, 30, 23, 22]
2.76[36, 66, 214, 97, 53, 30, 23, 22]
2.76[37, 69, 211, 96, 58, 31, 24, 23]
2.79[37, 69, 211, 96, 58, 31, 24, 23]
2.79[37, 69, 211, 96, 58, 31, 24, 23]
2.79[37, 69, 211, 96, 58, 31, 24, 23]
2.79[37, 69, 211, 96, 58, 31, 24, 23]
2.79[37, 69, 211, 96, 58, 31, 24, 23]
2.79[37, 69, 211, 96, 58, 31, 24, 23]
2.79[37, 69, 211, 96, 58, 31, 24, 23]
2.79[36, 74, 197, 99, 59, 30, 21, 24]
2.81[36, 74, 197, 99, 59, 30, 21, 24]
2.81[36, 74, 197, 99, 59, 30, 21, 24]
2.81[36, 74, 197, 99, 59, 30, 21, 24]
2.81[36, 74, 197, 99, 59, 30, 21, 24]
2.81[36, 74, 197, 99, 59, 30, 21, 24]
2.81[36, 74, 197, 99, 59, 30, 21, 24]
2.81[36, 74, 197, 99, 59, 30, 21, 24]
2.81[40, 75, 231, 99, 56, 28, 22, 26]
2.82[40, 75, 231, 99, 56, 28, 22, 26]
2.82[40, 75, 231, 99, 56, 28, 22, 26]
2.82[40, 75, 231, 99, 56, 28, 22, 26]
2.82[40, 75, 231, 99, 56, 28, 22, 26]
2.82[40, 75, 231, 99, 56, 28, 22, 26]
2.82[40, 75, 231, 99, 56, 28, 22, 26]
2.82[40, 75, 231, 99, 56, 28, 22, 26]
2.82[39, 70, 226, 107, 54, 28, 21, 26]
2.84[39, 70, 226, 107, 54, 28, 21, 26]
2.84[39, 70, 226, 107, 54, 28, 21, 26]
2.84[39, 70, 226, 107, 54, 28, 21, 26]
2.84[39, 70, 226, 107, 54, 28, 21, 26]
2.84[39, 70, 226, 107, 54, 28, 21, 26]
2.84[39, 70, 226, 107, 54, 28, 21, 26]
2.84[39, 70, 226, 107, 54, 28, 21, 26]
2.84[38, 65, 209, 117, 53, 24, 21, 26]
2.87[38, 65, 209, 117, 53, 24, 21, 26]
2.87[38, 65, 209, 117, 53, 24, 21, 26]
2.87[38, 65, 209, 117, 53, 24, 21, 26]
2.87[38, 65, 209, 117, 53, 24, 21, 26]
2.87[38, 65, 209, 117, 53, 24, 21, 26]
2.87[38, 65, 209, 117, 53, 24, 21, 26]
2.87[38, 65, 209, 117, 53, 24, 21, 26]
2.87[39, 70, 206, 124, 52, 22, 22, 26]
2.88[39, 70, 206, 124, 52, 22, 22, 26]
2.88[39, 70, 206, 124, 52, 22, 22, 26]
2.88[39, 70, 206, 124, 52, 22, 22, 26]
2.88[39, 70, 206, 124, 52, 22, 22, 26]
2.88[39, 70, 206, 124, 52, 22, 22, 26]
2.88[39, 70, 206, 124, 52, 22, 22, 26]
2.88[39, 70, 206, 124, 52, 22, 22, 26]
2.88[38, 66, 191, 123, 50, 20, 20, 24]
2.9[38, 66, 191, 123, 50, 20, 20, 24]
2.9[38, 66, 191, 123, 50, 20, 20, 24]
2.9[38, 66, 191, 123, 50, 20, 20, 24]
2.9[38, 66, 191, 123, 50, 20, 20, 24]
2.9[38, 66, 191, 123, 50, 20, 20, 24]
2.9[38, 66, 191, 123, 50, 20, 20, 24]
2.9[38, 66, 191, 123, 50, 20, 20, 24]
2.9[36, 72, 178, 152, 58, 24, 20, 21]
2.93[36, 72, 178, 152, 58, 24, 20, 21]
2.93[36, 72, 178, 152, 58, 24, 20, 21]
2.93[36, 72, 178, 152, 58, 24, 20, 21]
2.93[36, 72, 178, 152, 58, 24, 20, 21]
2.93[36, 72, 178, 152, 58, 24, 20, 21]
2.93[36, 72, 178, 152, 58, 24, 20, 21]
2.93[36, 72, 178, 152, 58, 24, 20, 21]
2.93[37, 77, 184, 146, 57, 25, 20, 23]
2.94[37, 77, 184, 146, 57, 25, 20, 23]
2.94[37, 77, 184, 146, 57, 25, 20, 23]
2.94[37, 77, 184, 146, 57, 25, 20, 23]
2.94[37, 77, 184, 146, 57, 25, 20, 23]
2.94[37, 77, 184, 146, 57, 25, 20, 23]
2.94[37, 77, 184, 146, 57, 25, 20, 23]
2.94[37, 77, 184, 146, 57, 25, 20, 23]
2.94[37, 76, 188, 134, 56, 29, 19, 24]
2.96[37, 76, 188, 134, 56, 29, 19, 24]
2.96[37, 76, 188, 134, 56, 29, 19, 24]
2.96[37, 76, 188, 134, 56, 29, 19, 24]
2.96[37, 76, 188, 134, 56, 29, 19, 24]
2.96[37, 76, 188, 134, 56, 29, 19, 24]
2.96[37, 76, 188, 134, 56, 29, 19, 24]
2.96[37, 76, 188, 134, 56, 29, 19, 24]
2.96[37, 80, 167, 128, 59, 31, 21, 25]
2.99[37, 80, 167, 128, 59, 31, 21, 25]
2.99[37, 80, 167, 128, 59, 31, 21, 25]
2.99[37, 80, 167, 128, 59, 31, 21, 25]
2.99[37, 80, 167, 128, 59, 31, 21, 25]
2.99[37, 80, 167, 128, 59, 31, 21, 25]
2.99[37, 80, 167, 128, 59, 31, 21, 25]
2.99[37, 80, 167, 128, 59, 31, 21, 25]
2.99[40, 82, 200, 124, 58, 32, 22, 28]
3.0[40, 82, 200, 124, 58, 32, 22, 28]
3.0[40, 82, 200, 124, 58, 32, 22, 28]
3.0[40, 82, 200, 124, 58, 32, 22, 28]
3.0[40, 82, 200, 124, 58, 32, 22, 28]
3.0[40, 82, 200, 124, 58, 32, 22, 28]
3.0[40, 82, 200, 124, 58, 32, 22, 28]
3.0[40, 82, 200, 124, 58, 32, 22, 28]
3.0[39, 78, 187, 101, 48, 29, 20, 30]
3.02[39, 78, 187, 101, 48, 29, 20, 30]
3.02[39, 78, 187, 101, 48, 29, 20, 30]
3.02[39, 78, 187, 101, 48, 29, 20, 30]
3.02[39, 78, 187, 101, 48, 29, 20, 30]
3.02[39, 78, 187, 101, 48, 29, 20, 30]
3.02[39, 78, 187, 101, 48, 29, 20, 30]
3.02[39, 78, 187, 101, 48, 29, 20, 30]
3.02[41, 86, 216, 103, 48, 29, 21, 30]
3.05[41, 86, 216, 103, 48, 29, 21, 30]
3.05[41, 86, 216, 103, 48, 29, 21, 30]
3.05[41, 86, 216, 103, 48, 29, 21, 30]
3.05[41, 86, 216, 103, 48, 29, 21, 30]
3.05[41, 86, 216, 103, 48, 29, 21, 30]
3.05[41, 86, 216, 103, 48, 29, 21, 30]
3.05[41, 86, 216, 103, 48, 29, 21, 30]
3.05[39, 83, 225, 98, 47, 26, 20, 30]
3.07[39, 83, 225, 98, 47, 26, 20, 30]
3.07[39, 83, 225, 98, 47, 26, 20, 30]
3.07[39, 83, 225, 98, 47, 26, 20, 30]
3.07[39, 83, 225, 98, 47, 26, 20, 30]
3.07[39, 83, 225, 98, 47, 26, 20, 30]
3.07[39, 83, 225, 98, 47, 26, 20, 30]
3.07[39, 83, 225, 98, 47, 26, 20, 30]
3.07[39, 75, 232, 102, 43, 26, 20, 28]
3.08[39, 75, 232, 102, 43, 26, 20, 28]
3.08[39, 75, 232, 102, 43, 26, 20, 28]
3.08[39, 75, 232, 102, 43, 26, 20, 28]
3.08[39, 75, 232, 102, 43, 26, 20, 28]
3.08[39, 75, 232, 102, 43, 26, 20, 28]
3.08[39, 75, 232, 102, 43, 26, 20, 28]
3.08[39, 75, 232, 102, 43, 26, 20, 28]
3.08[40, 77, 220, 103, 55, 28, 21, 25]
3.11[40, 77, 220, 103, 55, 28, 21, 25]
3.11[40, 77, 220, 103, 55, 28, 21, 25]
3.11[40, 77, 220, 103, 55, 28, 21, 25]
3.11[40, 77, 220, 103, 55, 28, 21, 25]
3.11[40, 77, 220, 103, 55, 28, 21, 25]
3.11[40, 77, 220, 103, 55, 28, 21, 25]
3.11[40, 77, 220, 103, 55, 28, 21, 25]
3.11[42, 75, 228, 92, 56, 28, 23, 26]
3.13[42, 75, 228, 92, 56, 28, 23, 26]
3.13[42, 75, 228, 92, 56, 28, 23, 26]
3.13[42, 75, 228, 92, 56, 28, 23, 26]
3.13[42, 75, 228, 92, 56, 28, 23, 26]
3.13[42, 75, 228, 92, 56, 28, 23, 26]
3.13[42, 75, 228, 92, 56, 28, 23, 26]
3.13[42, 75, 228, 92, 56, 28, 23, 26]
3.13[41, 65, 204, 106, 56, 31, 24, 25]
3.14[41, 65, 204, 106, 56, 31, 24, 25]
3.14[41, 65, 204, 106, 56, 31, 24, 25]
3.14[41, 65, 204, 106, 56, 31, 24, 25]
3.14[41, 65, 204, 106, 56, 31, 24, 25]
3.14[41, 65, 204, 106, 56, 31, 24, 25]
3.14[41, 65, 204, 106, 56, 31, 24, 25]
3.14[41, 65, 204, 106, 56, 31, 24, 25]
3.14[41, 64, 189, 110, 59, 32, 26, 25]
3.17[41, 64, 189, 110, 59, 32, 26, 25]
3.17[41, 64, 189, 110, 59, 32, 26, 25]
3.17[41, 64, 189, 110, 59, 32, 26, 25]
3.17[41, 64, 189, 110, 59, 32, 26, 25]
3.17[41, 64, 189, 110, 59, 32, 26, 25]
3.17[41, 64, 189, 110, 59, 32, 26, 25]
3.17[41, 64, 189, 110, 59, 32, 26, 25]
3.17[42, 73, 187, 119, 60, 29, 26, 25]
3.19[42, 73, 187, 119, 60, 29, 26, 25]
3.19[42, 73, 187, 119, 60, 29, 26, 25]
3.19[42, 73, 187, 119, 60, 29, 26, 25]
3.19[42, 73, 187, 119, 60, 29, 26, 25]
3.19[42, 73, 187, 119, 60, 29, 26, 25]
3.19[42, 73, 187, 119, 60, 29, 26, 25]
3.19[42, 73, 187, 119, 60, 29, 26, 25]
3.19[38, 69, 192, 139, 50, 30, 27, 25]
3.2[38, 69, 192, 139, 50, 30, 27, 25]
3.2[38, 69, 192, 139, 50, 30, 27, 25]
3.2[38, 69, 192, 139, 50, 30, 27, 25]
3.2[38, 69, 192, 139, 50, 30, 27, 25]
3.2[38, 69, 192, 139, 50, 30, 27, 25]
3.2[38, 69, 192, 139, 50, 30, 27, 25]
3.2[38, 69, 192, 139, 50, 30, 27, 25]
3.2[36, 64, 201, 135, 52, 30, 26, 25]
3.23[36, 64, 201, 135, 52, 30, 26, 25]
3.23[36, 64, 201, 135, 52, 30, 26, 25]
3.23[36, 64, 201, 135, 52, 30, 26, 25]
3.23[36, 64, 201, 135, 52, 30, 26, 25]
3.23[36, 64, 201, 135, 52, 30, 26, 25]
3.23[36, 64, 201, 135, 52, 30, 26, 25]
3.23[36, 64, 201, 135, 52, 30, 26, 25]
3.23[33, 67, 193, 126, 56, 27, 24, 23]
3.25[33, 67, 193, 126, 56, 27, 24, 23]
3.25[33, 67, 193, 126, 56, 27, 24, 23]
3.25[33, 67, 193, 126, 56, 27, 24, 23]
3.25[33, 67, 193, 126, 56, 27, 24, 23]
3.25[33, 67, 193, 126, 56, 27, 24, 23]
3.25[33, 67, 193, 126, 56, 27, 24, 23]
3.25[33, 67, 193, 126, 56, 27, 24, 23]
3.25[35, 71, 194, 140, 57, 26, 23, 24]
3.26[35, 71, 194, 140, 57, 26, 23, 24]
3.26[35, 71, 194, 140, 57, 26, 23, 24]
3.26[35, 71, 194, 140, 57, 26, 23, 24]
3.26[35, 71, 194, 140, 57, 26, 23, 24]
3.26[35, 71, 194, 140, 57, 26, 23, 24]
3.26[35, 71, 194, 140, 57, 26, 23, 24]
3.26[35, 71, 194, 140, 57, 26, 23, 24]
3.26[31, 64, 235, 136, 55, 29, 23, 23]
3.29[31, 64, 235, 136, 55, 29, 23, 23]
3.29[31, 64, 235, 136, 55, 29, 23, 23]
3.29[31, 64, 235, 136, 55, 29, 23, 23]
3.29[31, 64, 235, 136, 55, 29, 23, 23]
3.29[31, 64, 235, 136, 55, 29, 23, 23]
3.29[31, 64, 235, 136, 55, 29, 23, 23]
3.29[31, 64, 235, 136, 55, 29, 23, 23]
3.29[33, 63, 242, 127, 54, 27, 21, 24]
3.31[33, 63, 242, 127, 54, 27, 21, 24]
3.31[33, 63, 242, 127, 54, 27, 21, 24]
3.31[33, 63, 242, 127, 54, 27, 21, 24]
3.31[33, 63, 242, 127, 54, 27, 21, 24]
3.31[33, 63, 242, 127, 54, 27, 21, 24]
3.31[33, 63, 242, 127, 54, 27, 21, 24]
3.31[33, 63, 242, 127, 54, 27, 21, 24]
3.31[32, 65, 235, 129, 48, 27, 20, 21]
3.33[32, 65, 235, 129, 48, 27, 20, 21]
3.33[32, 65, 235, 129, 48, 27, 20, 21]
3.33[32, 65, 235, 129, 48, 27, 20, 21]
3.33[32, 65, 235, 129, 48, 27, 20, 21]
3.33[32, 65, 235, 129, 48, 27, 20, 21]
3.33[32, 65, 235, 129, 48, 27, 20, 21]
3.33[32, 65, 235, 129, 48, 27, 20, 21]
3.33[34, 66, 238, 127, 43, 30, 22, 23]
3.35[34, 66, 238, 127, 43, 30, 22, 23]
3.35[34, 66, 238, 127, 43, 30, 22, 23]
3.35[34, 66, 238, 127, 43, 30, 22, 23]
3.35[34, 66, 238, 127, 43, 30, 22, 23]
3.35[34, 66, 238, 127, 43, 30, 22, 23]
3.35[34, 66, 238, 127, 43, 30, 22, 23]
3.35[34, 66, 238, 127, 43, 30, 22, 23]
3.35[33, 63, 250, 126, 41, 29, 22, 24]
3.37[33, 63, 250, 126, 41, 29, 22, 24]
3.37[33, 63, 250, 126, 41, 29, 22, 24]
3.37[33, 63, 250, 126, 41, 29, 22, 24]
3.37[33, 63, 250, 126, 41, 29, 22, 24]
3.37[33, 63, 250, 126, 41, 29, 22, 24]
3.37[33, 63, 250, 126, 41, 29, 22, 24]
3.37[33, 63, 250, 126, 41, 29, 22, 24]
3.37[33, 66, 210, 123, 44, 28, 20, 23]
3.38[33, 66, 210, 123, 44, 28, 20, 23]
3.38[33, 66, 210, 123, 44, 28, 20, 23]
3.38[33, 66, 210, 123, 44, 28, 20, 23]
3.38[33, 66, 210, 123, 44, 28, 20, 23]
3.38[33, 66, 210, 123, 44, 28, 20, 23]
3.38[33, 66, 210, 123, 44, 28, 20, 23]
3.38[33, 66, 210, 123, 44, 28, 20, 23]
3.38[36, 86, 187, 115, 47, 30, 23, 23]
3.41[36, 86, 187, 115, 47, 30, 23, 23]
3.41[36, 86, 187, 115, 47, 30, 23, 23]
3.41[36, 86, 187, 115, 47, 30, 23, 23]
3.41[36, 86, 187, 115, 47, 30, 23, 23]
3.41[36, 86, 187, 115, 47, 30, 23, 23]
3.41[36, 86, 187, 115, 47, 30, 23, 23]
3.41[36, 86, 187, 115, 47, 30, 23, 23]
3.41[38, 91, 158, 110, 51, 30, 24, 24]
3.43[38, 91, 158, 110, 51, 30, 24, 24]
3.43[38, 91, 158, 110, 51, 30, 24, 24]
3.43[38, 91, 158, 110, 51, 30, 24, 24]
3.43[38, 91, 158, 110, 51, 30, 24, 24]
3.43[38, 91, 158, 110, 51, 30, 24, 24]
3.43[38, 91, 158, 110, 51, 30, 24, 24]
3.43[38, 91, 158, 110, 51, 30, 24, 24]
3.43[36, 85, 158, 107, 50, 27, 23, 23]
3.44[36, 85, 158, 107, 50, 27, 23, 23]
3.44[36, 85, 158, 107, 50, 27, 23, 23]
3.44[36, 85, 158, 107, 50, 27, 23, 23]
3.44[36, 85, 158, 107, 50, 27, 23, 23]
3.44[36, 85, 158, 107, 50, 27, 23, 23]
3.44[36, 85, 158, 107, 50, 27, 23, 23]
3.44[36, 85, 158, 107, 50, 27, 23, 23]
3.44[39, 87, 170, 114, 59, 28, 22, 23]
3.47[39, 87, 170, 114, 59, 28, 22, 23]
3.47[39, 87, 170, 114, 59, 28, 22, 23]
3.47[39, 87, 170, 114, 59, 28, 22, 23]
3.47[39, 87, 170, 114, 59, 28, 22, 23]
3.47[39, 87, 170, 114, 59, 28, 22, 23]
3.47[39, 87, 170, 114, 59, 28, 22, 23]
3.47[39, 87, 170, 114, 59, 28, 22, 23]
3.47[41, 87, 163, 114, 57, 27, 23, 24]
3.49[41, 87, 163, 114, 57, 27, 23, 24]
3.49[41, 87, 163, 114, 57, 27, 23, 24]
3.49[41, 87, 163, 114, 57, 27, 23, 24]
3.49[41, 87, 163, 114, 57, 27, 23, 24]
3.49[41, 87, 163, 114, 57, 27, 23, 24]
3.49[41, 87, 163, 114, 57, 27, 23, 24]
3.49[41, 87, 163, 114, 57, 27, 23, 24]
3.49[39, 67, 157, 106, 53, 24, 22, 24]
3.5[39, 67, 157, 106, 53, 24, 22, 24]
3.5[39, 67, 157, 106, 53, 24, 22, 24]
3.5[39, 67, 157, 106, 53, 24, 22, 24]
3.5[39, 67, 157, 106, 53, 24, 22, 24]
3.5[39, 67, 157, 106, 53, 24, 22, 24]
3.5[39, 67, 157, 106, 53, 24, 22, 24]
3.5[39, 67, 157, 106, 53, 24, 22, 24]
3.5[39, 70, 162, 108, 49, 23, 22, 24]
3.53[39, 70, 162, 108, 49, 23, 22, 24]
3.53[39, 70, 162, 108, 49, 23, 22, 24]
3.53[39, 70, 162, 108, 49, 23, 22, 24]
3.53[39, 70, 162, 108, 49, 23, 22, 24]
3.53[39, 70, 162, 108, 49, 23, 22, 24]
3.53[39, 70, 162, 108, 49, 23, 22, 24]
3.53[39, 70, 162, 108, 49, 23, 22, 24]
3.53[43, 80, 191, 125, 50, 23, 22, 25]
3.55[43, 80, 191, 125, 50, 23, 22, 25]
3.55[43, 80, 191, 125, 50, 23, 22, 25]
3.55[43, 80, 191, 125, 50, 23, 22, 25]
3.55[43, 80, 191, 125, 50, 23, 22, 25]
3.55[43, 80, 191, 125, 50, 23, 22, 25]
3.55[43, 80, 191, 125, 50, 23, 22, 25]
3.55[43, 80, 191, 125, 50, 23, 22, 25]
3.55[40, 78, 199, 118, 41, 21, 22, 26]
3.56[40, 78, 199, 118, 41, 21, 22, 26]
3.56[40, 78, 199, 118, 41, 21, 22, 26]
3.56[40, 78, 199, 118, 41, 21, 22, 26]
3.56[40, 78, 199, 118, 41, 21, 22, 26]
3.56[40, 78, 199, 118, 41, 21, 22, 26]
3.56[40, 78, 199, 118, 41, 21, 22, 26]
3.56[40, 78, 199, 118, 41, 21, 22, 26]
3.56[38, 72, 210, 124, 43, 24, 23, 26]
3.59[38, 72, 210, 124, 43, 24, 23, 26]
3.59[38, 72, 210, 124, 43, 24, 23, 26]
3.59[38, 72, 210, 124, 43, 24, 23, 26]
3.59[38, 72, 210, 124, 43, 24, 23, 26]
3.59[38, 72, 210, 124, 43, 24, 23, 26]
3.59[38, 72, 210, 124, 43, 24, 23, 26]
3.59[38, 72, 210, 124, 43, 24, 23, 26]
3.59[38, 74, 213, 127, 46, 26, 22, 25]
3.61[38, 74, 213, 127, 46, 26, 22, 25]
3.61[38, 74, 213, 127, 46, 26, 22, 25]
3.61[38, 74, 213, 127, 46, 26, 22, 25]
3.61[38, 74, 213, 127, 46, 26, 22, 25]
3.61[38, 74, 213, 127, 46, 26, 22, 25]
3.61[38, 74, 213, 127, 46, 26, 22, 25]
3.61[38, 74, 213, 127, 46, 26, 22, 25]
3.61[34, 66, 214, 124, 46, 27, 23, 26]
3.62[34, 66, 214, 124, 46, 27, 23, 26]
3.62[34, 66, 214, 124, 46, 27, 23, 26]
3.62[34, 66, 214, 124, 46, 27, 23, 26]
3.62[34, 66, 214, 124, 46, 27, 23, 26]
3.62[34, 66, 214, 124, 46, 27, 23, 26]
3.62[34, 66, 214, 124, 46, 27, 23, 26]
3.62[34, 66, 214, 124, 46, 27, 23, 26]
3.62[37, 70, 205, 120, 46, 27, 23, 26]
3.65[37, 70, 205, 120, 46, 27, 23, 26]
3.65[37, 70, 205, 120, 46, 27, 23, 26]
3.65[37, 70, 205, 120, 46, 27, 23, 26]
3.65[37, 70, 205, 120, 46, 27, 23, 26]
3.65[37, 70, 205, 120, 46, 27, 23, 26]
3.65[37, 70, 205, 120, 46, 27, 23, 26]
3.65[37, 70, 205, 120, 46, 27, 23, 26]
3.65[37, 73, 186, 116, 43, 28, 25, 22]
3.67[37, 73, 186, 116, 43, 28, 25, 22]
3.67[37, 73, 186, 116, 43, 28, 25, 22]
3.67[37, 73, 186, 116, 43, 28, 25, 22]
3.67[37, 73, 186, 116, 43, 28, 25, 22]
3.67[37, 73, 186, 116, 43, 28, 25, 22]
3.67[37, 73, 186, 116, 43, 28, 25, 22]
3.67[37, 73, 186, 116, 43, 28, 25, 22]
3.67[38, 74, 176, 102, 41, 26, 23, 22]
3.68[38, 74, 176, 102, 41, 26, 23, 22]
3.68[38, 74, 176, 102, 41, 26, 23, 22]
3.68[38, 74, 176, 102, 41, 26, 23, 22]
3.68[38, 74, 176, 102, 41, 26, 23, 22]
3.68[38, 74, 176, 102, 41, 26, 23, 22]
3.68[38, 74, 176, 102, 41, 26, 23, 22]
3.68[38, 74, 176, 102, 41, 26, 23, 22]
3.68[37, 72, 174, 113, 41, 24, 23, 22]
3.71[37, 72, 174, 113, 41, 24, 23, 22]
3.71[37, 72, 174, 113, 41, 24, 23, 22]
3.71[37, 72, 174, 113, 41, 24, 23, 22]
3.71[37, 72, 174, 113, 41, 24, 23, 22]
3.71[37, 72, 174, 113, 41, 24, 23, 22]
3.71[37, 72, 174, 113, 41, 24, 23, 22]
3.71[37, 72, 174, 113, 41, 24, 23, 22]
3.71[38, 80, 202, 123, 45, 25, 23, 22]
3.73[38, 80, 202, 123, 45, 25, 23, 22]
3.73[38, 80, 202, 123, 45, 25, 23, 22]
3.73[38, 80, 202, 123, 45, 25, 23, 22]
3.73[38, 80, 202, 123, 45, 25, 23, 22]
3.73[38, 80, 202, 123, 45, 25, 23, 22]
3.73[38, 80, 202, 123, 45, 25, 23, 22]
3.73[38, 80, 202, 123, 45, 25, 23, 22]
3.73[29, 63, 206, 122, 46, 27, 23, 21]
3.74[29, 63, 206, 122, 46, 27, 23, 21]
3.74[29, 63, 206, 122, 46, 27, 23, 21]
3.74[29, 63, 206, 122, 46, 27, 23, 21]
3.74[29, 63, 206, 122, 46, 27, 23, 21]
3.74[29, 63, 206, 122, 46, 27, 23, 21]
3.74[29, 63, 206, 122, 46, 27, 23, 21]
3.74[29, 63, 206, 122, 46, 27, 23, 21]
3.74[32, 64, 218, 115, 45, 27, 22, 21]
3.77[32, 64, 218, 115, 45, 27, 22, 21]
3.77[32, 64, 218, 115, 45, 27, 22, 21]
3.77[32, 64, 218, 115, 45, 27, 22, 21]
3.77[32, 64, 218, 115, 45, 27, 22, 21]
3.77[32, 64, 218, 115, 45, 27, 22, 21]
3.77[32, 64, 218, 115, 45, 27, 22, 21]
3.77[32, 64, 218, 115, 45, 27, 22, 21]
3.77[31, 66, 215, 118, 49, 27, 21, 22]
3.79[31, 66, 215, 118, 49, 27, 21, 22]
3.79[31, 66, 215, 118, 49, 27, 21, 22]
3.79[31, 66, 215, 118, 49, 27, 21, 22]
3.79[31, 66, 215, 118, 49, 27, 21, 22]
3.79[31, 66, 215, 118, 49, 27, 21, 22]
3.79[31, 66, 215, 118, 49, 27, 21, 22]
3.79[31, 66, 215, 118, 49, 27, 21, 22]
3.79[32, 68, 214, 104, 51, 29, 20, 23]
3.8[32, 68, 214, 104, 51, 29, 20, 23]
3.8[32, 68, 214, 104, 51, 29, 20, 23]
3.8[32, 68, 214, 104, 51, 29, 20, 23]
3.8[32, 68, 214, 104, 51, 29, 20, 23]
3.8[32, 68, 214, 104, 51, 29, 20, 23]
3.8[32, 68, 214, 104, 51, 29, 20, 23]
3.8[32, 68, 214, 104, 51, 29, 20, 23]
3.8[29, 58, 186, 105, 52, 28, 19, 22]
3.83[29, 58, 186, 105, 52, 28, 19, 22]
3.83[29, 58, 186, 105, 52, 28, 19, 22]
3.83[29, 58, 186, 105, 52, 28, 19, 22]
3.83[29, 58, 186, 105, 52, 28, 19, 22]
3.83[29, 58, 186, 105, 52, 28, 19, 22]
3.83[29, 58, 186, 105, 52, 28, 19, 22]
3.83[29, 58, 186, 105, 52, 28, 19, 22]
3.83[36, 73, 168, 112, 59, 28, 19, 23]
3.85[36, 73, 168, 112, 59, 28, 19, 23]
3.85[36, 73, 168, 112, 59, 28, 19, 23]
3.85[36, 73, 168, 112, 59, 28, 19, 23]
3.85[36, 73, 168, 112, 59, 28, 19, 23]
3.85[36, 73, 168, 112, 59, 28, 19, 23]
3.85[36, 73, 168, 112, 59, 28, 19, 23]
3.85[36, 73, 168, 112, 59, 28, 19, 23]
3.85[35, 72, 171, 108, 59, 29, 19, 22]
3.86[35, 72, 171, 108, 59, 29, 19, 22]
3.86[35, 72, 171, 108, 59, 29, 19, 22]
3.86[35, 72, 171, 108, 59, 29, 19, 22]
3.86[35, 72, 171, 108, 59, 29, 19, 22]
3.86[35, 72, 171, 108, 59, 29, 19, 22]
3.86[35, 72, 171, 108, 59, 29, 19, 22]
3.86[35, 72, 171, 108, 59, 29, 19, 22]
3.86[36, 70, 187, 121, 61, 32, 19, 24]
3.89[36, 70, 187, 121, 61, 32, 19, 24]
3.89[36, 70, 187, 121, 61, 32, 19, 24]
3.89[36, 70, 187, 121, 61, 32, 19, 24]
3.89[36, 70, 187, 121, 61, 32, 19, 24]
3.89[36, 70, 187, 121, 61, 32, 19, 24]
3.89[36, 70, 187, 121, 61, 32, 19, 24]
3.89[36, 70, 187, 121, 61, 32, 19, 24]
3.89[35, 71, 202, 126, 58, 30, 22, 21]
3.91[35, 71, 202, 126, 58, 30, 22, 21]
3.91[35, 71, 202, 126, 58, 30, 22, 21]
3.91[35, 71, 202, 126, 58, 30, 22, 21]
3.91[35, 71, 202, 126, 58, 30, 22, 21]
3.91[35, 71, 202, 126, 58, 30, 22, 21]
3.91[35, 71, 202, 126, 58, 30, 22, 21]
3.91[35, 71, 202, 126, 58, 30, 22, 21]
3.91[37, 76, 199, 122, 56, 30, 22, 21]
3.93[37, 76, 199, 122, 56, 30, 22, 21]
3.93[37, 76, 199, 122, 56, 30, 22, 21]
3.93[37, 76, 199, 122, 56, 30, 22, 21]
3.93[37, 76, 199, 122, 56, 30, 22, 21]
3.93[37, 76, 199, 122, 56, 30, 22, 21]
3.93[37, 76, 199, 122, 56, 30, 22, 21]
3.93[37, 76, 199, 122, 56, 30, 22, 21]
3.93[33, 65, 195, 130, 53, 27, 23, 21]
3.95[33, 65, 195, 130, 53, 27, 23, 21]
3.95[33, 65, 195, 130, 53, 27, 23, 21]
3.95[33, 65, 195, 130, 53, 27, 23, 21]
3.95[33, 65, 195, 130, 53, 27, 23, 21]
3.95[33, 65, 195, 130, 53, 27, 23, 21]
3.95[33, 65, 195, 130, 53, 27, 23, 21]
3.95[33, 65, 195, 130, 53, 27, 23, 21]
3.95[33, 74, 170, 136, 54, 27, 24, 22]
3.97[33, 74, 170, 136, 54, 27, 24, 22]
3.97[33, 74, 170, 136, 54, 27, 24, 22]
3.97[33, 74, 170, 136, 54, 27, 24, 22]
3.97[33, 74, 170, 136, 54, 27, 24, 22]
3.97[33, 74, 170, 136, 54, 27, 24, 22]
3.97[33, 74, 170, 136, 54, 27, 24, 22]
3.97[33, 74, 170, 136, 54, 27, 24, 22]
3.97[31, 76, 170, 133, 52, 22, 24, 22]
3.99[31, 76, 170, 133, 52, 22, 24, 22]
3.99[31, 76, 170, 133, 52, 22, 24, 22]
3.99[31, 76, 170, 133, 52, 22, 24, 22]
3.99[31, 76, 170, 133, 52, 22, 24, 22]
3.99[31, 76, 170, 133, 52, 22, 24, 22]
3.99[31, 76, 170, 133, 52, 22, 24, 22]
3.99[31, 76, 170, 133, 52, 22, 24, 22]
3.99[34, 86, 177, 129, 51, 22, 24, 22]
4.01[34, 86, 177, 129, 51, 22, 24, 22]
4.01[34, 86, 177, 129, 51, 22, 24, 22]
4.01[34, 86, 177, 129, 51, 22, 24, 22]
4.01[34, 86, 177, 129, 51, 22, 24, 22]
4.01[34, 86, 177, 129, 51, 22, 24, 22]
4.01[34, 86, 177, 129, 51, 22, 24, 22]
4.01[34, 86, 177, 129, 51, 22, 24, 22]
4.01[33, 81, 182, 134, 51, 23, 24, 23]
4.03[33, 81, 182, 134, 51, 23, 24, 23]
4.03[33, 81, 182, 134, 51, 23, 24, 23]
4.03[33, 81, 182, 134, 51, 23, 24, 23]
4.03[33, 81, 182, 134, 51, 23, 24, 23]
4.03[33, 81, 182, 134, 51, 23, 24, 23]
4.03[33, 81, 182, 134, 51, 23, 24, 23]
4.03[33, 81, 182, 134, 51, 23, 24, 23]
4.03[32, 80, 195, 119, 45, 24, 25, 25]
4.05[32, 80, 195, 119, 45, 24, 25, 25]
4.05[32, 80, 195, 119, 45, 24, 25, 25]
4.05[32, 80, 195, 119, 45, 24, 25, 25]
4.05[32, 80, 195, 119, 45, 24, 25, 25]
4.05[32, 80, 195, 119, 45, 24, 25, 25]
4.05[32, 80, 195, 119, 45, 24, 25, 25]
4.05[32, 80, 195, 119, 45, 24, 25, 25]
4.05[31, 70, 196, 117, 42, 23, 26, 26]
4.07[31, 70, 196, 117, 42, 23, 26, 26]
4.07[31, 70, 196, 117, 42, 23, 26, 26]
4.07[31, 70, 196, 117, 42, 23, 26, 26]
4.07[31, 70, 196, 117, 42, 23, 26, 26]
4.07[31, 70, 196, 117, 42, 23, 26, 26]
4.07[31, 70, 196, 117, 42, 23, 26, 26]
4.07[31, 70, 196, 117, 42, 23, 26, 26]
4.07[32, 70, 186, 103, 37, 24, 25, 24]
4.09[32, 70, 186, 103, 37, 24, 25, 24]
4.09[32, 70, 186, 103, 37, 24, 25, 24]
4.09[32, 70, 186, 103, 37, 24, 25, 24]
4.09[32, 70, 186, 103, 37, 24, 25, 24]
4.09[32, 70, 186, 103, 37, 24, 25, 24]
4.09[32, 70, 186, 103, 37, 24, 25, 24]
4.09[32, 70, 186, 103, 37, 24, 25, 24]
4.09[31, 63, 201, 112, 37, 26, 24, 27]
4.11[31, 63, 201, 112, 37, 26, 24, 27]
4.11[31, 63, 201, 112, 37, 26, 24, 27]
4.11[31, 63, 201, 112, 37, 26, 24, 27]
4.11[31, 63, 201, 112, 37, 26, 24, 27]
4.11[31, 63, 201, 112, 37, 26, 24, 27]
4.11[31, 63, 201, 112, 37, 26, 24, 27]
4.11[31, 63, 201, 112, 37, 26, 24, 27]
4.11[33, 69, 201, 112, 36, 27, 26, 27]
4.13[33, 69, 201, 112, 36, 27, 26, 27]
4.13[33, 69, 201, 112, 36, 27, 26, 27]
4.13[33, 69, 201, 112, 36, 27, 26, 27]
4.13[33, 69, 201, 112, 36, 27, 26, 27]
4.13[33, 69, 201, 112, 36, 27, 26, 27]
4.13[33, 69, 201, 112, 36, 27, 26, 27]
4.13[33, 69, 201, 112, 36, 27, 26, 27]
4.13[35, 67, 188, 102, 41, 26, 25, 24]
4.15[35, 67, 188, 102, 41, 26, 25, 24]
4.15[35, 67, 188, 102, 41, 26, 25, 24]
4.15[35, 67, 188, 102, 41, 26, 25, 24]
4.15[35, 67, 188, 102, 41, 26, 25, 24]
4.15[35, 67, 188, 102, 41, 26, 25, 24]
4.15[35, 67, 188, 102, 41, 26, 25, 24]
4.15[35, 67, 188, 102, 41, 26, 25, 24]
4.15[36, 70, 207, 108, 44, 31, 26, 24]
4.17[36, 70, 207, 108, 44, 31, 26, 24]
4.17[36, 70, 207, 108, 44, 31, 26, 24]
4.17[36, 70, 207, 108, 44, 31, 26, 24]
4.17[36, 70, 207, 108, 44, 31, 26, 24]
4.17[36, 70, 207, 108, 44, 31, 26, 24]
4.17[36, 70, 207, 108, 44, 31, 26, 24]
4.17[36, 70, 207, 108, 44, 31, 26, 24]
4.17[36, 68, 204, 119, 47, 32, 26, 28]
4.19[36, 68, 204, 119, 47, 32, 26, 28]
4.19[36, 68, 204, 119, 47, 32, 26, 28]
4.19[36, 68, 204, 119, 47, 32, 26, 28]
4.19[36, 68, 204, 119, 47, 32, 26, 28]
4.19[36, 68, 204, 119, 47, 32, 26, 28]
4.19[36, 68, 204, 119, 47, 32, 26, 28]
4.19[36, 68, 204, 119, 47, 32, 26, 28]
4.19[37, 63, 183, 128, 53, 31, 26, 26]
4.21[37, 63, 183, 128, 53, 31, 26, 26]
4.21[37, 63, 183, 128, 53, 31, 26, 26]
4.21[37, 63, 183, 128, 53, 31, 26, 26]
4.21[37, 63, 183, 128, 53, 31, 26, 26]
4.21[37, 63, 183, 128, 53, 31, 26, 26]
4.21[37, 63, 183, 128, 53, 31, 26, 26]
4.21[37, 63, 183, 128, 53, 31, 26, 26]
4.21[37, 67, 182, 121, 52, 30, 25, 26]
4.23[37, 67, 182, 121, 52, 30, 25, 26]
4.23[37, 67, 182, 121, 52, 30, 25, 26]
4.23[37, 67, 182, 121, 52, 30, 25, 26]
4.23[37, 67, 182, 121, 52, 30, 25, 26]
4.23[37, 67, 182, 121, 52, 30, 25, 26]
4.23[37, 67, 182, 121, 52, 30, 25, 26]
4.23[37, 67, 182, 121, 52, 30, 25, 26]
4.23[38, 70, 205, 142, 48, 32, 25, 26]
4.25[38, 70, 205, 142, 48, 32, 25, 26]
4.25[38, 70, 205, 142, 48, 32, 25, 26]
4.25[38, 70, 205, 142, 48, 32, 25, 26]
4.25[38, 70, 205, 142, 48, 32, 25, 26]
4.25[38, 70, 205, 142, 48, 32, 25, 26]
4.25[38, 70, 205, 142, 48, 32, 25, 26]
4.25[38, 70, 205, 142, 48, 32, 25, 26]
4.25[36, 66, 196, 137, 46, 29, 20, 25]
4.27[36, 66, 196, 137, 46, 29, 20, 25]
4.27[36, 66, 196, 137, 46, 29, 20, 25]
4.27[36, 66, 196, 137, 46, 29, 20, 25]
4.27[36, 66, 196, 137, 46, 29, 20, 25]
4.27[36, 66, 196, 137, 46, 29, 20, 25]
4.27[36, 66, 196, 137, 46, 29, 20, 25]
4.27[36, 66, 196, 137, 46, 29, 20, 25]
4.27[36, 68, 198, 129, 44, 28, 21, 25]
4.29[36, 68, 198, 129, 44, 28, 21, 25]
4.29[36, 68, 198, 129, 44, 28, 21, 25]
4.29[36, 68, 198, 129, 44, 28, 21, 25]
4.29[36, 68, 198, 129, 44, 28, 21, 25]
4.29[36, 68, 198, 129, 44, 28, 21, 25]
4.29[36, 68, 198, 129, 44, 28, 21, 25]
4.29[36, 68, 198, 129, 44, 28, 21, 25]
4.29[37, 73, 177, 115, 40, 30, 21, 25]
4.31[37, 73, 177, 115, 40, 30, 21, 25]
4.31[37, 73, 177, 115, 40, 30, 21, 25]
4.31[37, 73, 177, 115, 40, 30, 21, 25]
4.31[37, 73, 177, 115, 40, 30, 21, 25]
4.31[37, 73, 177, 115, 40, 30, 21, 25]
4.31[37, 73, 177, 115, 40, 30, 21, 25]
4.31[37, 73, 177, 115, 40, 30, 21, 25]
4.31[37, 66, 226, 125, 42, 30, 23, 24]
4.33[37, 66, 226, 125, 42, 30, 23, 24]
4.33[37, 66, 226, 125, 42, 30, 23, 24]
4.33[37, 66, 226, 125, 42, 30, 23, 24]
4.33[37, 66, 226, 125, 42, 30, 23, 24]
4.33[37, 66, 226, 125, 42, 30, 23, 24]
4.33[37, 66, 226, 125, 42, 30, 23, 24]
4.33[37, 66, 226, 125, 42, 30, 23, 24]
4.33[34, 69, 207, 116, 53, 30, 22, 24]
4.35[34, 69, 207, 116, 53, 30, 22, 24]
4.35[34, 69, 207, 116, 53, 30, 22, 24]
4.35[34, 69, 207, 116, 53, 30, 22, 24]
4.35[34, 69, 207, 116, 53, 30, 22, 24]
4.35[34, 69, 207, 116, 53, 30, 22, 24]
4.35[34, 69, 207, 116, 53, 30, 22, 24]
4.35[34, 69, 207, 116, 53, 30, 22, 24]
4.35[34, 67, 189, 107, 53, 31, 24, 24]
4.37[34, 67, 189, 107, 53, 31, 24, 24]
4.37[34, 67, 189, 107, 53, 31, 24, 24]
4.37[34, 67, 189, 107, 53, 31, 24, 24]
4.37[34, 67, 189, 107, 53, 31, 24, 24]
4.37[34, 67, 189, 107, 53, 31, 24, 24]
4.37[34, 67, 189, 107, 53, 31, 24, 24]
4.37[34, 67, 189, 107, 53, 31, 24, 24]
4.37[37, 73, 181, 107, 52, 31, 23, 23]
4.39[37, 73, 181, 107, 52, 31, 23, 23]
4.39[37, 73, 181, 107, 52, 31, 23, 23]
4.39[37, 73, 181, 107, 52, 31, 23, 23]
4.39[37, 73, 181, 107, 52, 31, 23, 23]
4.39[37, 73, 181, 107, 52, 31, 23, 23]
4.39[37, 73, 181, 107, 52, 31, 23, 23]
4.39[37, 73, 181, 107, 52, 31, 23, 23]
4.39[36, 71, 284, 119, 52, 28, 26, 24]
4.41[36, 71, 284, 119, 52, 28, 26, 24]
4.41[36, 71, 284, 119, 52, 28, 26, 24]
4.41[36, 71, 284, 119, 52, 28, 26, 24]
4.41[36, 71, 284, 119, 52, 28, 26, 24]
4.41[36, 71, 284, 119, 52, 28, 26, 24]
4.41[36, 71, 284, 119, 52, 28, 26, 24]
4.41[36, 71, 284, 119, 52, 28, 26, 24]
4.41[34, 69, 254, 118, 50, 33, 23, 24]
4.43[34, 69, 254, 118, 50, 33, 23, 24]
4.43[34, 69, 254, 118, 50, 33, 23, 24]
4.43[34, 69, 254, 118, 50, 33, 23, 24]
4.43[34, 69, 254, 118, 50, 33, 23, 24]
4.43[34, 69, 254, 118, 50, 33, 23, 24]
4.43[34, 69, 254, 118, 50, 33, 23, 24]
4.43[34, 69, 254, 118, 50, 33, 23, 24]
4.43[33, 64, 267, 123, 39, 32, 23, 24]
4.45[33, 64, 267, 123, 39, 32, 23, 24]
4.45[33, 64, 267, 123, 39, 32, 23, 24]
4.45[33, 64, 267, 123, 39, 32, 23, 24]
4.45[33, 64, 267, 123, 39, 32, 23, 24]
4.45[33, 64, 267, 123, 39, 32, 23, 24]
4.45[33, 64, 267, 123, 39, 32, 23, 24]
4.45[33, 64, 267, 123, 39, 32, 23, 24]
4.45[36, 68, 285, 132, 42, 32, 23, 25]
4.47[36, 68, 285, 132, 42, 32, 23, 25]
4.47[36, 68, 285, 132, 42, 32, 23, 25]
4.47[36, 68, 285, 132, 42, 32, 23, 25]
4.47[36, 68, 285, 132, 42, 32, 23, 25]
4.47[36, 68, 285, 132, 42, 32, 23, 25]
4.47[36, 68, 285, 132, 42, 32, 23, 25]
4.47[36, 68, 285, 132, 42, 32, 23, 25]
4.47[33, 61, 290, 132, 42, 32, 22, 21]
4.49[33, 61, 290, 132, 42, 32, 22, 21]
4.49[33, 61, 290, 132, 42, 32, 22, 21]
4.49[33, 61, 290, 132, 42, 32, 22, 21]
4.49[33, 61, 290, 132, 42, 32, 22, 21]
4.49[33, 61, 290, 132, 42, 32, 22, 21]
4.49[33, 61, 290, 132, 42, 32, 22, 21]
4.49[33, 61, 290, 132, 42, 32, 22, 21]
4.49[34, 59, 196, 118, 40, 33, 22, 23]
4.51[34, 59, 196, 118, 40, 33, 22, 23]
4.51[34, 59, 196, 118, 40, 33, 22, 23]
4.51[34, 59, 196, 118, 40, 33, 22, 23]
4.51[34, 59, 196, 118, 40, 33, 22, 23]
4.51[34, 59, 196, 118, 40, 33, 22, 23]
4.51[34, 59, 196, 118, 40, 33, 22, 23]
4.51[34, 59, 196, 118, 40, 33, 22, 23]
4.51[34, 63, 181, 102, 41, 29, 24, 24]
4.53[34, 63, 181, 102, 41, 29, 24, 24]
4.53[34, 63, 181, 102, 41, 29, 24, 24]
4.53[34, 63, 181, 102, 41, 29, 24, 24]
4.53[34, 63, 181, 102, 41, 29, 24, 24]
4.53[34, 63, 181, 102, 41, 29, 24, 24]
4.53[34, 63, 181, 102, 41, 29, 24, 24]
4.53[34, 63, 181, 102, 41, 29, 24, 24]
4.53[40, 64, 182, 91, 40, 28, 24, 26]
4.55[40, 64, 182, 91, 40, 28, 24, 26]
4.55[40, 64, 182, 91, 40, 28, 24, 26]
4.55[40, 64, 182, 91, 40, 28, 24, 26]
4.55[40, 64, 182, 91, 40, 28, 24, 26]
4.55[40, 64, 182, 91, 40, 28, 24, 26]
4.55[40, 64, 182, 91, 40, 28, 24, 26]
4.55[40, 64, 182, 91, 40, 28, 24, 26]
4.55[37, 60, 155, 89, 36, 25, 24, 24]
4.57[37, 60, 155, 89, 36, 25, 24, 24]
4.57[37, 60, 155, 89, 36, 25, 24, 24]
4.57[37, 60, 155, 89, 36, 25, 24, 24]
4.57[37, 60, 155, 89, 36, 25, 24, 24]
4.57[37, 60, 155, 89, 36, 25, 24, 24]
4.57[37, 60, 155, 89, 36, 25, 24, 24]
4.57[37, 60, 155, 89, 36, 25, 24, 24]
4.57[37, 62, 188, 136, 43, 25, 24, 26]
4.59[37, 62, 188, 136, 43, 25, 24, 26]
4.59[37, 62, 188, 136, 43, 25, 24, 26]
4.59[37, 62, 188, 136, 43, 25, 24, 26]
4.59[37, 62, 188, 136, 43, 25, 24, 26]
4.59[37, 62, 188, 136, 43, 25, 24, 26]
4.59[37, 62, 188, 136, 43, 25, 24, 26]
4.59[37, 62, 188, 136, 43, 25, 24, 26]
4.59[38, 64, 211, 141, 42, 24, 21, 24]
4.61[38, 64, 211, 141, 42, 24, 21, 24]
4.61[38, 64, 211, 141, 42, 24, 21, 24]
4.61[38, 64, 211, 141, 42, 24, 21, 24]
4.61[38, 64, 211, 141, 42, 24, 21, 24]
4.61[38, 64, 211, 141, 42, 24, 21, 24]
4.61[38, 64, 211, 141, 42, 24, 21, 24]
4.61[38, 64, 211, 141, 42, 24, 21, 24]
4.61[38, 61, 214, 146, 47, 26, 20, 23]
4.63[38, 61, 214, 146, 47, 26, 20, 23]
4.63[38, 61, 214, 146, 47, 26, 20, 23]
4.63[38, 61, 214, 146, 47, 26, 20, 23]
4.63[38, 61, 214, 146, 47, 26, 20, 23]
4.63[38, 61, 214, 146, 47, 26, 20, 23]
4.63[38, 61, 214, 146, 47, 26, 20, 23]
4.63[38, 61, 214, 146, 47, 26, 20, 23]
4.63[33, 60, 196, 139, 50, 26, 21, 24]
4.65[33, 60, 196, 139, 50, 26, 21, 24]
4.65[33, 60, 196, 139, 50, 26, 21, 24]
4.65[33, 60, 196, 139, 50, 26, 21, 24]
4.65[33, 60, 196, 139, 50, 26, 21, 24]
4.65[33, 60, 196, 139, 50, 26, 21, 24]
4.65[33, 60, 196, 139, 50, 26, 21, 24]
4.65[33, 60, 196, 139, 50, 26, 21, 24]
4.65[36, 68, 203, 145, 53, 25, 24, 25]
4.67[36, 68, 203, 145, 53, 25, 24, 25]
4.67[36, 68, 203, 145, 53, 25, 24, 25]
4.67[36, 68, 203, 145, 53, 25, 24, 25]
4.67[36, 68, 203, 145, 53, 25, 24, 25]
4.67[36, 68, 203, 145, 53, 25, 24, 25]
4.67[36, 68, 203, 145, 53, 25, 24, 25]
4.67[36, 68, 203, 145, 53, 25, 24, 25]
4.67[35, 68, 202, 104, 45, 26, 24, 22]
4.69[35, 68, 202, 104, 45, 26, 24, 22]
4.69[35, 68, 202, 104, 45, 26, 24, 22]
4.69[35, 68, 202, 104, 45, 26, 24, 22]
4.69[35, 68, 202, 104, 45, 26, 24, 22]
4.69[35, 68, 202, 104, 45, 26, 24, 22]
4.69[35, 68, 202, 104, 45, 26, 24, 22]
4.69[35, 68, 202, 104, 45, 26, 24, 22]
4.69[32, 60, 180, 96, 47, 28, 25, 23]
4.71[32, 60, 180, 96, 47, 28, 25, 23]
4.71[32, 60, 180, 96, 47, 28, 25, 23]
4.71[32, 60, 180, 96, 47, 28, 25, 23]
4.71[32, 60, 180, 96, 47, 28, 25, 23]
4.71[32, 60, 180, 96, 47, 28, 25, 23]
4.71[32, 60, 180, 96, 47, 28, 25, 23]
4.71[32, 60, 180, 96, 47, 28, 25, 23]
4.71[38, 80, 205, 97, 45, 27, 26, 23]
4.73[38, 80, 205, 97, 45, 27, 26, 23]
4.73[38, 80, 205, 97, 45, 27, 26, 23]
4.73[38, 80, 205, 97, 45, 27, 26, 23]
4.73[38, 80, 205, 97, 45, 27, 26, 23]
4.73[38, 80, 205, 97, 45, 27, 26, 23]
4.73[38, 80, 205, 97, 45, 27, 26, 23]
4.73[38, 80, 205, 97, 45, 27, 26, 23]
4.73[38, 79, 204, 106, 41, 28, 25, 22]
4.75[38, 79, 204, 106, 41, 28, 25, 22]
4.75[38, 79, 204, 106, 41, 28, 25, 22]
4.75[38, 79, 204, 106, 41, 28, 25, 22]
4.75[38, 79, 204, 106, 41, 28, 25, 22]
4.75[38, 79, 204, 106, 41, 28, 25, 22]
4.75[38, 79, 204, 106, 41, 28, 25, 22]
4.75[38, 79, 204, 106, 41, 28, 25, 22]
4.75[37, 74, 207, 118, 44, 30, 22, 21]
4.78[37, 74, 207, 118, 44, 30, 22, 21]
4.78[37, 74, 207, 118, 44, 30, 22, 21]
4.78[37, 74, 207, 118, 44, 30, 22, 21]
4.78[37, 74, 207, 118, 44, 30, 22, 21]
4.78[37, 74, 207, 118, 44, 30, 22, 21]
4.78[37, 74, 207, 118, 44, 30, 22, 21]
4.78[37, 74, 207, 118, 44, 30, 22, 21]
4.78[42, 81, 177, 121, 51, 33, 23, 25]
4.79[42, 81, 177, 121, 51, 33, 23, 25]
4.79[42, 81, 177, 121, 51, 33, 23, 25]
4.79[42, 81, 177, 121, 51, 33, 23, 25]
4.79[42, 81, 177, 121, 51, 33, 23, 25]
4.79[42, 81, 177, 121, 51, 33, 23, 25]
4.79[42, 81, 177, 121, 51, 33, 23, 25]
4.79[42, 81, 177, 121, 51, 33, 23, 25]
4.79[42, 86, 194, 136, 50, 30, 21, 24]
4.81[42, 86, 194, 136, 50, 30, 21, 24]
4.81[42, 86, 194, 136, 50, 30, 21, 24]
4.81[42, 86, 194, 136, 50, 30, 21, 24]
4.81[42, 86, 194, 136, 50, 30, 21, 24]
4.81[42, 86, 194, 136, 50, 30, 21, 24]
4.81[42, 86, 194, 136, 50, 30, 21, 24]
4.81[42, 86, 194, 136, 50, 30, 21, 24]
4.81[36, 71, 192, 145, 50, 31, 21, 23]
4.83[36, 71, 192, 145, 50, 31, 21, 23]
4.83[36, 71, 192, 145, 50, 31, 21, 23]
4.83[36, 71, 192, 145, 50, 31, 21, 23]
4.83[36, 71, 192, 145, 50, 31, 21, 23]
4.83[36, 71, 192, 145, 50, 31, 21, 23]
4.83[36, 71, 192, 145, 50, 31, 21, 23]
4.83[36, 71, 192, 145, 50, 31, 21, 23]
4.83[39, 72, 195, 154, 52, 29, 22, 24]
4.85[39, 72, 195, 154, 52, 29, 22, 24]
4.85[39, 72, 195, 154, 52, 29, 22, 24]
4.85[39, 72, 195, 154, 52, 29, 22, 24]
4.85[39, 72, 195, 154, 52, 29, 22, 24]
4.85[39, 72, 195, 154, 52, 29, 22, 24]
4.85[39, 72, 195, 154, 52, 29, 22, 24]
4.85[39, 72, 195, 154, 52, 29, 22, 24]
4.85[38, 76, 195, 145, 52, 29, 22, 25]
4.87[38, 76, 195, 145, 52, 29, 22, 25]
4.87[38, 76, 195, 145, 52, 29, 22, 25]
4.87[38, 76, 195, 145, 52, 29, 22, 25]
4.87[38, 76, 195, 145, 52, 29, 22, 25]
4.87[38, 76, 195, 145, 52, 29, 22, 25]
4.87[38, 76, 195, 145, 52, 29, 22, 25]
4.87[38, 76, 195, 145, 52, 29, 22, 25]
4.87[34, 68, 198, 152, 53, 30, 21, 23]
4.89[34, 68, 198, 152, 53, 30, 21, 23]
4.89[34, 68, 198, 152, 53, 30, 21, 23]
4.89[34, 68, 198, 152, 53, 30, 21, 23]
4.89[34, 68, 198, 152, 53, 30, 21, 23]
4.89[34, 68, 198, 152, 53, 30, 21, 23]
4.89[34, 68, 198, 152, 53, 30, 21, 23]
4.89[34, 68, 198, 152, 53, 30, 21, 23]
4.89[32, 62, 185, 148, 58, 30, 22, 23]
4.91[32, 62, 185, 148, 58, 30, 22, 23]
4.91[32, 62, 185, 148, 58, 30, 22, 23]
4.91[32, 62, 185, 148, 58, 30, 22, 23]
4.91[32, 62, 185, 148, 58, 30, 22, 23]
4.91[32, 62, 185, 148, 58, 30, 22, 23]
4.91[32, 62, 185, 148, 58, 30, 22, 23]
4.91[32, 62, 185, 148, 58, 30, 22, 23]
4.91[36, 73, 235, 151, 55, 28, 22, 26]
4.93[36, 73, 235, 151, 55, 28, 22, 26]
4.93[36, 73, 235, 151, 55, 28, 22, 26]
4.93[36, 73, 235, 151, 55, 28, 22, 26]
4.93[36, 73, 235, 151, 55, 28, 22, 26]
4.93[36, 73, 235, 151, 55, 28, 22, 26]
4.93[36, 73, 235, 151, 55, 28, 22, 26]
4.93[36, 73, 235, 151, 55, 28, 22, 26]
4.93[35, 75, 285, 145, 57, 28, 23, 25]
4.95[35, 75, 285, 145, 57, 28, 23, 25]
4.95[35, 75, 285, 145, 57, 28, 23, 25]
4.95[35, 75, 285, 145, 57, 28, 23, 25]
4.95[35, 75, 285, 145, 57, 28, 23, 25]
4.95[35, 75, 285, 145, 57, 28, 23, 25]
4.95[35, 75, 285, 145, 57, 28, 23, 25]
4.95[35, 75, 285, 145, 57, 28, 23, 25]
4.95[38, 79, 358, 154, 55, 27, 25, 25]
4.97[38, 79, 358, 154, 55, 27, 25, 25]
4.97[38, 79, 358, 154, 55, 27, 25, 25]
4.97[38, 79, 358, 154, 55, 27, 25, 25]
4.97[38, 79, 358, 154, 55, 27, 25, 25]
4.97[38, 79, 358, 154, 55, 27, 25, 25]
4.97[38, 79, 358, 154, 55, 27, 25, 25]
4.97[38, 79, 358, 154, 55, 27, 25, 25]
4.97[39, 80, 381, 162, 49, 23, 26, 26]
4.99[39, 80, 381, 162, 49, 23, 26, 26]
4.99[39, 80, 381, 162, 49, 23, 26, 26]
4.99[39, 80, 381, 162, 49, 23, 26, 26]
4.99[39, 80, 381, 162, 49, 23, 26, 26]
4.99[39, 80, 381, 162, 49, 23, 26, 26]
4.99[39, 80, 381, 162, 49, 23, 26, 26]
4.99[39, 80, 381, 162, 49, 23, 26, 26]
4.99[41, 89, 500, 201, 55, 25, 30, 26]
5.01[41, 89, 500, 201, 55, 25, 30, 26]
5.01[41, 89, 500, 201, 55, 25, 30, 26]
5.01[41, 89, 500, 201, 55, 25, 30, 26]
5.01[41, 89, 500, 201, 55, 25, 30, 26]
5.01[41, 89, 500, 201, 55, 25, 30, 26]
5.01[41, 89, 500, 201, 55, 25, 30, 26]
5.01[41, 89, 500, 201, 55, 25, 30, 26]
5.01[40, 89, 488, 218, 63, 27, 29, 25]
5.03[40, 89, 488, 218, 63, 27, 29, 25]
5.03[40, 89, 488, 218, 63, 27, 29, 25]
5.03[40, 89, 488, 218, 63, 27, 29, 25]
5.03[40, 89, 488, 218, 63, 27, 29, 25]
5.03[40, 89, 488, 218, 63, 27, 29, 25]
5.03[40, 89, 488, 218, 63, 27, 29, 25]
5.03[40, 89, 488, 218, 63, 27, 29, 25]
5.03[43, 101, 499, 235, 66, 30, 28, 32]
5.05[43, 101, 499, 235, 66, 30, 28, 32]
5.05[43, 101, 499, 235, 66, 30, 28, 32]
5.05[43, 101, 499, 235, 66, 30, 28, 32]
5.05[43, 101, 499, 235, 66, 30, 28, 32]
5.05[43, 101, 499, 235, 66, 30, 28, 32]
5.05[43, 101, 499, 235, 66, 30, 28, 32]
5.05[43, 101, 499, 235, 66, 30, 28, 32]
5.05[48, 103, 557, 227, 71, 34, 29, 32]
5.07[48, 103, 557, 227, 71, 34, 29, 32]
5.07[48, 103, 557, 227, 71, 34, 29, 32]
5.07[48, 103, 557, 227, 71, 34, 29, 32]
5.07[48, 103, 557, 227, 71, 34, 29, 32]
5.07[48, 103, 557, 227, 71, 34, 29, 32]
5.07[48, 103, 557, 227, 71, 34, 29, 32]
5.07[48, 103, 557, 227, 71, 34, 29, 32]
5.07[48, 103, 578, 213, 74, 33, 29, 32]
5.09[48, 103, 578, 213, 74, 33, 29, 32]
5.09[48, 103, 578, 213, 74, 33, 29, 32]
5.09[48, 103, 578, 213, 74, 33, 29, 32]
5.09[48, 103, 578, 213, 74, 33, 29, 32]
5.09[48, 103, 578, 213, 74, 33, 29, 32]
5.09[48, 103, 578, 213, 74, 33, 29, 32]
5.09[48, 103, 578, 213, 74, 33, 29, 32]
5.09[54, 102, 491, 176, 71, 36, 29, 33]
5.11[54, 102, 491, 176, 71, 36, 29, 33]
5.11[54, 102, 491, 176, 71, 36, 29, 33]
5.11[54, 102, 491, 176, 71, 36, 29, 33]
5.11[54, 102, 491, 176, 71, 36, 29, 33]
5.11[54, 102, 491, 176, 71, 36, 29, 33]
5.11[54, 102, 491, 176, 71, 36, 29, 33]
5.11[54, 102, 491, 176, 71, 36, 29, 33]
5.11[54, 109, 570, 161, 64, 36, 29, 33]
5.13[54, 109, 570, 161, 64, 36, 29, 33]
5.13[54, 109, 570, 161, 64, 36, 29, 33]
5.13[54, 109, 570, 161, 64, 36, 29, 33]
5.13[54, 109, 570, 161, 64, 36, 29, 33]
5.13[54, 109, 570, 161, 64, 36, 29, 33]
5.13[54, 109, 570, 161, 64, 36, 29, 33]
5.13[54, 109, 570, 161, 64, 36, 29, 33]
5.13[52, 98, 564, 156, 63, 37, 29, 29]
5.15[52, 98, 564, 156, 63, 37, 29, 29]
5.15[52, 98, 564, 156, 63, 37, 29, 29]
5.15[52, 98, 564, 156, 63, 37, 29, 29]
5.15[52, 98, 564, 156, 63, 37, 29, 29]
5.15[52, 98, 564, 156, 63, 37, 29, 29]
5.15[52, 98, 564, 156, 63, 37, 29, 29]
5.15[52, 98, 564, 156, 63, 37, 29, 29]
5.15[49, 108, 507, 190, 59, 35, 32, 32]
5.17[49, 108, 507, 190, 59, 35, 32, 32]
5.17[49, 108, 507, 190, 59, 35, 32, 32]
5.17[49, 108, 507, 190, 59, 35, 32, 32]
5.17[49, 108, 507, 190, 59, 35, 32, 32]
5.17[49, 108, 507, 190, 59, 35, 32, 32]
5.17[49, 108, 507, 190, 59, 35, 32, 32]
5.17[49, 108, 507, 190, 59, 35, 32, 32]
5.17[49, 110, 491, 219, 59, 35, 31, 31]
5.19[49, 110, 491, 219, 59, 35, 31, 31]
5.19[49, 110, 491, 219, 59, 35, 31, 31]
5.19[49, 110, 491, 219, 59, 35, 31, 31]
5.19[49, 110, 491, 219, 59, 35, 31, 31]
5.19[49, 110, 491, 219, 59, 35, 31, 31]
5.19[49, 110, 491, 219, 59, 35, 31, 31]
5.19[49, 110, 491, 219, 59, 35, 31, 31]
5.19[50, 113, 529, 219, 58, 31, 29, 31]
5.21[50, 113, 529, 219, 58, 31, 29, 31]
5.21[50, 113, 529, 219, 58, 31, 29, 31]
5.21[50, 113, 529, 219, 58, 31, 29, 31]
5.21[50, 113, 529, 219, 58, 31, 29, 31]
5.21[50, 113, 529, 219, 58, 31, 29, 31]
5.21[50, 113, 529, 219, 58, 31, 29, 31]
5.21[50, 113, 529, 219, 58, 31, 29, 31]
5.21[53, 109, 503, 228, 59, 31, 27, 31]
5.23[53, 109, 503, 228, 59, 31, 27, 31]
5.23[53, 109, 503, 228, 59, 31, 27, 31]
5.23[53, 109, 503, 228, 59, 31, 27, 31]
5.23[53, 109, 503, 228, 59, 31, 27, 31]
5.23[53, 109, 503, 228, 59, 31, 27, 31]
5.23[53, 109, 503, 228, 59, 31, 27, 31]
5.23[53, 109, 503, 228, 59, 31, 27, 31]
5.23[56, 117, 630, 238, 55, 29, 29, 37]
5.25[56, 117, 630, 238, 55, 29, 29, 37]
5.25[56, 117, 630, 238, 55, 29, 29, 37]
5.25[56, 117, 630, 238, 55, 29, 29, 37]
5.25[56, 117, 630, 238, 55, 29, 29, 37]
5.25[56, 117, 630, 238, 55, 29, 29, 37]
5.25[56, 117, 630, 238, 55, 29, 29, 37]
5.25[56, 117, 630, 238, 55, 29, 29, 37]
5.25[55, 105, 610, 214, 60, 27, 25, 35]
5.27[55, 105, 610, 214, 60, 27, 25, 35]
5.27[55, 105, 610, 214, 60, 27, 25, 35]
5.27[55, 105, 610, 214, 60, 27, 25, 35]
5.27[55, 105, 610, 214, 60, 27, 25, 35]
5.27[55, 105, 610, 214, 60, 27, 25, 35]
5.27[55, 105, 610, 214, 60, 27, 25, 35]
5.27[55, 105, 610, 214, 60, 27, 25, 35]
5.27[62, 116, 648, 283, 74, 32, 28, 37]
5.29[62, 116, 648, 283, 74, 32, 28, 37]
5.29[62, 116, 648, 283, 74, 32, 28, 37]
5.29[62, 116, 648, 283, 74, 32, 28, 37]
5.29[62, 116, 648, 283, 74, 32, 28, 37]
5.29[62, 116, 648, 283, 74, 32, 28, 37]
5.29[62, 116, 648, 283, 74, 32, 28, 37]
5.29[62, 116, 648, 283, 74, 32, 28, 37]
5.29[60, 117, 633, 296, 80, 37, 31, 38]
5.31[60, 117, 633, 296, 80, 37, 31, 38]
5.31[60, 117, 633, 296, 80, 37, 31, 38]
5.31[60, 117, 633, 296, 80, 37, 31, 38]
5.31[60, 117, 633, 296, 80, 37, 31, 38]
5.31[60, 117, 633, 296, 80, 37, 31, 38]
5.31[60, 117, 633, 296, 80, 37, 31, 38]
5.31[60, 117, 633, 296, 80, 37, 31, 38]
5.31[55, 104, 574, 281, 80, 36, 32, 37]
5.33[55, 104, 574, 281, 80, 36, 32, 37]
5.33[55, 104, 574, 281, 80, 36, 32, 37]
5.33[55, 104, 574, 281, 80, 36, 32, 37]
5.33[55, 104, 574, 281, 80, 36, 32, 37]
5.33[55, 104, 574, 281, 80, 36, 32, 37]
5.33[55, 104, 574, 281, 80, 36, 32, 37]
5.33[55, 104, 574, 281, 80, 36, 32, 37]
5.33[51, 94, 415, 263, 78, 34, 30, 32]
5.35[51, 94, 415, 263, 78, 34, 30, 32]
5.35[51, 94, 415, 263, 78, 34, 30, 32]
5.35[51, 94, 415, 263, 78, 34, 30, 32]
5.35[51, 94, 415, 263, 78, 34, 30, 32]
5.35[51, 94, 415, 263, 78, 34, 30, 32]
5.35[51, 94, 415, 263, 78, 34, 30, 32]
5.35[51, 94, 415, 263, 78, 34, 30, 32]
5.35[48, 94, 481, 283, 75, 36, 31, 30]
5.37[48, 94, 481, 283, 75, 36, 31, 30]
5.37[48, 94, 481, 283, 75, 36, 31, 30]
5.37[48, 94, 481, 283, 75, 36, 31, 30]
5.37[48, 94, 481, 283, 75, 36, 31, 30]
5.37[48, 94, 481, 283, 75, 36, 31, 30]
5.37[48, 94, 481, 283, 75, 36, 31, 30]
5.37[48, 94, 481, 283, 75, 36, 31, 30]
5.37[39, 82, 483, 193, 58, 33, 29, 29]
5.39[39, 82, 483, 193, 58, 33, 29, 29]
5.39[39, 82, 483, 193, 58, 33, 29, 29]
5.39[39, 82, 483, 193, 58, 33, 29, 29]
5.39[39, 82, 483, 193, 58, 33, 29, 29]
5.39[39, 82, 483, 193, 58, 33, 29, 29]
5.39[39, 82, 483, 193, 58, 33, 29, 29]
5.39[39, 82, 483, 193, 58, 33, 29, 29]
5.39[36, 81, 591, 190, 47, 28, 25, 24]
5.41[36, 81, 591, 190, 47, 28, 25, 24]
5.41[36, 81, 591, 190, 47, 28, 25, 24]
5.41[36, 81, 591, 190, 47, 28, 25, 24]
5.41[36, 81, 591, 190, 47, 28, 25, 24]
5.41[36, 81, 591, 190, 47, 28, 25, 24]
5.41[36, 81, 591, 190, 47, 28, 25, 24]
5.41[36, 81, 591, 190, 47, 28, 25, 24]
5.41[38, 92, 642, 187, 45, 32, 25, 26]
5.43[38, 92, 642, 187, 45, 32, 25, 26]
5.43[38, 92, 642, 187, 45, 32, 25, 26]
5.43[38, 92, 642, 187, 45, 32, 25, 26]
5.43[38, 92, 642, 187, 45, 32, 25, 26]
5.43[38, 92, 642, 187, 45, 32, 25, 26]
5.43[38, 92, 642, 187, 45, 32, 25, 26]
5.43[38, 92, 642, 187, 45, 32, 25, 26]
5.43[39, 93, 662, 214, 47, 31, 25, 27]
5.45[39, 93, 662, 214, 47, 31, 25, 27]
5.45[39, 93, 662, 214, 47, 31, 25, 27]
5.45[39, 93, 662, 214, 47, 31, 25, 27]
5.45[39, 93, 662, 214, 47, 31, 25, 27]
5.45[39, 93, 662, 214, 47, 31, 25, 27]
5.45[39, 93, 662, 214, 47, 31, 25, 27]
5.45[39, 93, 662, 214, 47, 31, 25, 27]
5.45[40, 96, 631, 194, 43, 29, 23, 26]
5.47[40, 96, 631, 194, 43, 29, 23, 26]
5.47[40, 96, 631, 194, 43, 29, 23, 26]
5.47[40, 96, 631, 194, 43, 29, 23, 26]
5.47[40, 96, 631, 194, 43, 29, 23, 26]
5.47[40, 96, 631, 194, 43, 29, 23, 26]
5.47[40, 96, 631, 194, 43, 29, 23, 26]
5.47[40, 96, 631, 194, 43, 29, 23, 26]
5.47[46, 108, 661, 236, 52, 30, 23, 29]
5.49[46, 108, 661, 236, 52, 30, 23, 29]
5.49[46, 108, 661, 236, 52, 30, 23, 29]
5.49[46, 108, 661, 236, 52, 30, 23, 29]
5.49[46, 108, 661, 236, 52, 30, 23, 29]
5.49[46, 108, 661, 236, 52, 30, 23, 29]
5.49[46, 108, 661, 236, 52, 30, 23, 29]
5.49[46, 108, 661, 236, 52, 30, 23, 29]
5.49[46, 104, 613, 253, 54, 34, 25, 34]
5.52[46, 104, 613, 253, 54, 34, 25, 34]
5.52[46, 104, 613, 253, 54, 34, 25, 34]
5.52[46, 104, 613, 253, 54, 34, 25, 34]
5.52[46, 104, 613, 253, 54, 34, 25, 34]
5.52[46, 104, 613, 253, 54, 34, 25, 34]
5.52[46, 104, 613, 253, 54, 34, 25, 34]
5.52[46, 104, 613, 253, 54, 34, 25, 34]
5.52[46, 104, 596, 273, 55, 31, 25, 33]
5.53[46, 104, 596, 273, 55, 31, 25, 33]
5.53[46, 104, 596, 273, 55, 31, 25, 33]
5.53[46, 104, 596, 273, 55, 31, 25, 33]
5.53[46, 104, 596, 273, 55, 31, 25, 33]
5.53[46, 104, 596, 273, 55, 31, 25, 33]
5.53[46, 104, 596, 273, 55, 31, 25, 33]
5.53[46, 104, 596, 273, 55, 31, 25, 33]
5.53[45, 112, 631, 265, 54, 35, 27, 33]
5.55[45, 112, 631, 265, 54, 35, 27, 33]
5.55[45, 112, 631, 265, 54, 35, 27, 33]
5.55[45, 112, 631, 265, 54, 35, 27, 33]
5.55[45, 112, 631, 265, 54, 35, 27, 33]
5.55[45, 112, 631, 265, 54, 35, 27, 33]
5.55[45, 112, 631, 265, 54, 35, 27, 33]
5.55[45, 112, 631, 265, 54, 35, 27, 33]
5.55[43, 114, 611, 261, 52, 34, 28, 34]
5.57[43, 114, 611, 261, 52, 34, 28, 34]
5.57[43, 114, 611, 261, 52, 34, 28, 34]
5.57[43, 114, 611, 261, 52, 34, 28, 34]
5.57[43, 114, 611, 261, 52, 34, 28, 34]
5.57[43, 114, 611, 261, 52, 34, 28, 34]
5.57[43, 114, 611, 261, 52, 34, 28, 34]
5.57[43, 114, 611, 261, 52, 34, 28, 34]
5.57[38, 114, 546, 232, 46, 34, 26, 31]
5.59[38, 114, 546, 232, 46, 34, 26, 31]
5.59[38, 114, 546, 232, 46, 34, 26, 31]
5.59[38, 114, 546, 232, 46, 34, 26, 31]
5.59[38, 114, 546, 232, 46, 34, 26, 31]
5.59[38, 114, 546, 232, 46, 34, 26, 31]
5.59[38, 114, 546, 232, 46, 34, 26, 31]
5.59[38, 114, 546, 232, 46, 34, 26, 31]
5.59[39, 124, 489, 197, 44, 40, 29, 26]
5.61[39, 124, 489, 197, 44, 40, 29, 26]
5.61[39, 124, 489, 197, 44, 40, 29, 26]
5.61[39, 124, 489, 197, 44, 40, 29, 26]
5.61[39, 124, 489, 197, 44, 40, 29, 26]
5.61[39, 124, 489, 197, 44, 40, 29, 26]
5.61[39, 124, 489, 197, 44, 40, 29, 26]
5.61[39, 124, 489, 197, 44, 40, 29, 26]
5.61[41, 123, 571, 209, 49, 41, 29, 30]
5.63[41, 123, 571, 209, 49, 41, 29, 30]
5.63[41, 123, 571, 209, 49, 41, 29, 30]
5.63[41, 123, 571, 209, 49, 41, 29, 30]
5.63[41, 123, 571, 209, 49, 41, 29, 30]
5.63[41, 123, 571, 209, 49, 41, 29, 30]
5.63[41, 123, 571, 209, 49, 41, 29, 30]
5.63[41, 123, 571, 209, 49, 41, 29, 30]
5.63[46, 119, 537, 203, 63, 54, 37, 41]
5.65[46, 119, 537, 203, 63, 54, 37, 41]
5.65[46, 119, 537, 203, 63, 54, 37, 41]
5.65[46, 119, 537, 203, 63, 54, 37, 41]
5.65[46, 119, 537, 203, 63, 54, 37, 41]
5.65[46, 119, 537, 203, 63, 54, 37, 41]
5.65[46, 119, 537, 203, 63, 54, 37, 41]
5.65[46, 119, 537, 203, 63, 54, 37, 41]
5.65[51, 121, 568, 203, 64, 54, 38, 42]
5.67[51, 121, 568, 203, 64, 54, 38, 42]
5.67[51, 121, 568, 203, 64, 54, 38, 42]
5.67[51, 121, 568, 203, 64, 54, 38, 42]
5.67[51, 121, 568, 203, 64, 54, 38, 42]
5.67[51, 121, 568, 203, 64, 54, 38, 42]
5.67[51, 121, 568, 203, 64, 54, 38, 42]
5.67[51, 121, 568, 203, 64, 54, 38, 42]
5.67[56, 119, 568, 192, 60, 53, 39, 45]
5.69[56, 119, 568, 192, 60, 53, 39, 45]
5.69[56, 119, 568, 192, 60, 53, 39, 45]
5.69[56, 119, 568, 192, 60, 53, 39, 45]
5.69[56, 119, 568, 192, 60, 53, 39, 45]
5.69[56, 119, 568, 192, 60, 53, 39, 45]
5.69[56, 119, 568, 192, 60, 53, 39, 45]
5.69[56, 119, 568, 192, 60, 53, 39, 45]
5.69[62, 121, 576, 246, 64, 51, 38, 48]
5.71[62, 121, 576, 246, 64, 51, 38, 48]
5.71[62, 121, 576, 246, 64, 51, 38, 48]
5.71[62, 121, 576, 246, 64, 51, 38, 48]
5.71[62, 121, 576, 246, 64, 51, 38, 48]
5.71[62, 121, 576, 246, 64, 51, 38, 48]
5.71[62, 121, 576, 246, 64, 51, 38, 48]
5.71[62, 121, 576, 246, 64, 51, 38, 48]
5.71[64, 121, 529, 250, 77, 59, 44, 50]
5.73[64, 121, 529, 250, 77, 59, 44, 50]
5.73[64, 121, 529, 250, 77, 59, 44, 50]
5.73[64, 121, 529, 250, 77, 59, 44, 50]
5.73[64, 121, 529, 250, 77, 59, 44, 50]
5.73[64, 121, 529, 250, 77, 59, 44, 50]
5.73[64, 121, 529, 250, 77, 59, 44, 50]
5.73[64, 121, 529, 250, 77, 59, 44, 50]
5.73[63, 123, 496, 241, 65, 46, 39, 39]
5.75[63, 123, 496, 241, 65, 46, 39, 39]
5.75[63, 123, 496, 241, 65, 46, 39, 39]
5.75[63, 123, 496, 241, 65, 46, 39, 39]
5.75[63, 123, 496, 241, 65, 46, 39, 39]
5.75[63, 123, 496, 241, 65, 46, 39, 39]
5.75[63, 123, 496, 241, 65, 46, 39, 39]
5.75[63, 123, 496, 241, 65, 46, 39, 39]
5.75[65, 120, 464, 242, 66, 54, 41, 41]
5.77[65, 120, 464, 242, 66, 54, 41, 41]
5.77[65, 120, 464, 242, 66, 54, 41, 41]
5.77[65, 120, 464, 242, 66, 54, 41, 41]
5.77[65, 120, 464, 242, 66, 54, 41, 41]
5.77[65, 120, 464, 242, 66, 54, 41, 41]
5.77[65, 120, 464, 242, 66, 54, 41, 41]
5.77[65, 120, 464, 242, 66, 54, 41, 41]
5.77[76, 113, 452, 258, 71, 61, 45, 43]
5.79[76, 113, 452, 258, 71, 61, 45, 43]
5.79[76, 113, 452, 258, 71, 61, 45, 43]
5.79[76, 113, 452, 258, 71, 61, 45, 43]
5.79[76, 113, 452, 258, 71, 61, 45, 43]
5.79[76, 113, 452, 258, 71, 61, 45, 43]
5.79[76, 113, 452, 258, 71, 61, 45, 43]
5.79[76, 113, 452, 258, 71, 61, 45, 43]
5.79[71, 115, 506, 235, 66, 56, 44, 43]
5.81[71, 115, 506, 235, 66, 56, 44, 43]
5.81[71, 115, 506, 235, 66, 56, 44, 43]
5.81[71, 115, 506, 235, 66, 56, 44, 43]
5.81[71, 115, 506, 235, 66, 56, 44, 43]
5.81[71, 115, 506, 235, 66, 56, 44, 43]
5.81[71, 115, 506, 235, 66, 56, 44, 43]
5.81[71, 115, 506, 235, 66, 56, 44, 43]
5.81[69, 123, 493, 213, 52, 48, 38, 38]
5.83[69, 123, 493, 213, 52, 48, 38, 38]
5.83[69, 123, 493, 213, 52, 48, 38, 38]
5.83[69, 123, 493, 213, 52, 48, 38, 38]
5.83[69, 123, 493, 213, 52, 48, 38, 38]
5.83[69, 123, 493, 213, 52, 48, 38, 38]
5.83[69, 123, 493, 213, 52, 48, 38, 38]
5.83[69, 123, 493, 213, 52, 48, 38, 38]
5.83[68, 123, 543, 211, 51, 47, 37, 38]
5.85[68, 123, 543, 211, 51, 47, 37, 38]
5.85[68, 123, 543, 211, 51, 47, 37, 38]
5.85[68, 123, 543, 211, 51, 47, 37, 38]
5.85[68, 123, 543, 211, 51, 47, 37, 38]
5.85[68, 123, 543, 211, 51, 47, 37, 38]
5.85[68, 123, 543, 211, 51, 47, 37, 38]
5.85[68, 123, 543, 211, 51, 47, 37, 38]
5.85[80, 138, 555, 230, 55, 43, 36, 40]
5.87[80, 138, 555, 230, 55, 43, 36, 40]
5.87[80, 138, 555, 230, 55, 43, 36, 40]
5.87[80, 138, 555, 230, 55, 43, 36, 40]
5.87[80, 138, 555, 230, 55, 43, 36, 40]
5.87[80, 138, 555, 230, 55, 43, 36, 40]
5.87[80, 138, 555, 230, 55, 43, 36, 40]
5.87[80, 138, 555, 230, 55, 43, 36, 40]
5.87[66, 142, 678, 260, 55, 37, 32, 37]
5.9[66, 142, 678, 260, 55, 37, 32, 37]
5.9[66, 142, 678, 260, 55, 37, 32, 37]
5.9[66, 142, 678, 260, 55, 37, 32, 37]
5.9[66, 142, 678, 260, 55, 37, 32, 37]
5.9[66, 142, 678, 260, 55, 37, 32, 37]
5.9[66, 142, 678, 260, 55, 37, 32, 37]
5.9[66, 142, 678, 260, 55, 37, 32, 37]
5.9[65, 134, 670, 273, 62, 40, 30, 35]
5.91[65, 134, 670, 273, 62, 40, 30, 35]
5.91[65, 134, 670, 273, 62, 40, 30, 35]
5.91[65, 134, 670, 273, 62, 40, 30, 35]
5.91[65, 134, 670, 273, 62, 40, 30, 35]
5.91[65, 134, 670, 273, 62, 40, 30, 35]
5.91[65, 134, 670, 273, 62, 40, 30, 35]
5.91[65, 134, 670, 273, 62, 40, 30, 35]
5.91[73, 149, 690, 310, 75, 45, 34, 41]
5.93[73, 149, 690, 310, 75, 45, 34, 41]
5.93[73, 149, 690, 310, 75, 45, 34, 41]
5.93[73, 149, 690, 310, 75, 45, 34, 41]
5.93[73, 149, 690, 310, 75, 45, 34, 41]
5.93[73, 149, 690, 310, 75, 45, 34, 41]
5.93[73, 149, 690, 310, 75, 45, 34, 41]
5.93[73, 149, 690, 310, 75, 45, 34, 41]
5.93[86, 163, 749, 348, 77, 48, 37, 46]
5.96[86, 163, 749, 348, 77, 48, 37, 46]
5.96[86, 163, 749, 348, 77, 48, 37, 46]
5.96[86, 163, 749, 348, 77, 48, 37, 46]
5.96[86, 163, 749, 348, 77, 48, 37, 46]
5.96[86, 163, 749, 348, 77, 48, 37, 46]
5.96[86, 163, 749, 348, 77, 48, 37, 46]
5.96[86, 163, 749, 348, 77, 48, 37, 46]
5.96[76, 159, 749, 358, 75, 47, 36, 45]
5.97[76, 159, 749, 358, 75, 47, 36, 45]
5.97[76, 159, 749, 358, 75, 47, 36, 45]
5.97[76, 159, 749, 358, 75, 47, 36, 45]
5.97[76, 159, 749, 358, 75, 47, 36, 45]
5.97[76, 159, 749, 358, 75, 47, 36, 45]
5.97[76, 159, 749, 358, 75, 47, 36, 45]
5.97[76, 159, 749, 358, 75, 47, 36, 45]
5.97[77, 161, 721, 346, 74, 43, 36, 43]
5.99[77, 161, 721, 346, 74, 43, 36, 43]
5.99[77, 161, 721, 346, 74, 43, 36, 43]
5.99[77, 161, 721, 346, 74, 43, 36, 43]
5.99[77, 161, 721, 346, 74, 43, 36, 43]
5.99[77, 161, 721, 346, 74, 43, 36, 43]
5.99[77, 161, 721, 346, 74, 43, 36, 43]
5.99[77, 161, 721, 346, 74, 43, 36, 43]
5.99[79, 161, 686, 337, 74, 45, 40, 45]
6.02[79, 161, 686, 337, 74, 45, 40, 45]
6.02[79, 161, 686, 337, 74, 45, 40, 45]
6.02[79, 161, 686, 337, 74, 45, 40, 45]
6.02[79, 161, 686, 337, 74, 45, 40, 45]
6.02[79, 161, 686, 337, 74, 45, 40, 45]
6.02[79, 161, 686, 337, 74, 45, 40, 45]
6.02[79, 161, 686, 337, 74, 45, 40, 45]
6.02[74, 160, 661, 310, 60, 39, 35, 41]
6.03[74, 160, 661, 310, 60, 39, 35, 41]
6.03[74, 160, 661, 310, 60, 39, 35, 41]
6.03[74, 160, 661, 310, 60, 39, 35, 41]
6.03[74, 160, 661, 310, 60, 39, 35, 41]
6.03[74, 160, 661, 310, 60, 39, 35, 41]
6.03[74, 160, 661, 310, 60, 39, 35, 41]
6.03[74, 160, 661, 310, 60, 39, 35, 41]
6.03[66, 156, 562, 390, 76, 43, 35, 39]
6.05[66, 156, 562, 390, 76, 43, 35, 39]
6.05[66, 156, 562, 390, 76, 43, 35, 39]
6.05[66, 156, 562, 390, 76, 43, 35, 39]
6.05[66, 156, 562, 390, 76, 43, 35, 39]
6.05[66, 156, 562, 390, 76, 43, 35, 39]
6.05[66, 156, 562, 390, 76, 43, 35, 39]
6.05[66, 156, 562, 390, 76, 43, 35, 39]
6.05[71, 214, 536, 398, 78, 45, 36, 40]
6.08[71, 214, 536, 398, 78, 45, 36, 40]
6.08[71, 214, 536, 398, 78, 45, 36, 40]
6.08[71, 214, 536, 398, 78, 45, 36, 40]
6.08[71, 214, 536, 398, 78, 45, 36, 40]
6.08[71, 214, 536, 398, 78, 45, 36, 40]
6.08[71, 214, 536, 398, 78, 45, 36, 40]
6.08[71, 214, 536, 398, 78, 45, 36, 40]
6.08[77, 234, 599, 446, 89, 55, 41, 44]
6.09[77, 234, 599, 446, 89, 55, 41, 44]
6.09[77, 234, 599, 446, 89, 55, 41, 44]
6.09[77, 234, 599, 446, 89, 55, 41, 44]
6.09[77, 234, 599, 446, 89, 55, 41, 44]
6.09[77, 234, 599, 446, 89, 55, 41, 44]
6.09[77, 234, 599, 446, 89, 55, 41, 44]
6.09[77, 234, 599, 446, 89, 55, 41, 44]
6.09[80, 249, 591, 435, 85, 53, 40, 44]
6.11[80, 249, 591, 435, 85, 53, 40, 44]
6.11[80, 249, 591, 435, 85, 53, 40, 44]
6.11[80, 249, 591, 435, 85, 53, 40, 44]
6.11[80, 249, 591, 435, 85, 53, 40, 44]
6.11[80, 249, 591, 435, 85, 53, 40, 44]
6.11[80, 249, 591, 435, 85, 53, 40, 44]
6.11[80, 249, 591, 435, 85, 53, 40, 44]
6.11[76, 243, 567, 435, 83, 54, 41, 45]
6.14[76, 243, 567, 435, 83, 54, 41, 45]
6.14[76, 243, 567, 435, 83, 54, 41, 45]
6.14[76, 243, 567, 435, 83, 54, 41, 45]
6.14[76, 243, 567, 435, 83, 54, 41, 45]
6.14[76, 243, 567, 435, 83, 54, 41, 45]
6.14[76, 243, 567, 435, 83, 54, 41, 45]
6.14[76, 243, 567, 435, 83, 54, 41, 45]
6.14[74, 255, 602, 334, 69, 49, 40, 43]
6.15[74, 255, 602, 334, 69, 49, 40, 43]
6.15[74, 255, 602, 334, 69, 49, 40, 43]
6.15[74, 255, 602, 334, 69, 49, 40, 43]
6.15[74, 255, 602, 334, 69, 49, 40, 43]
6.15[74, 255, 602, 334, 69, 49, 40, 43]
6.15[74, 255, 602, 334, 69, 49, 40, 43]
6.15[74, 255, 602, 334, 69, 49, 40, 43]
6.15[88, 240, 732, 357, 88, 70, 55, 65]
6.17[88, 240, 732, 357, 88, 70, 55, 65]
6.17[88, 240, 732, 357, 88, 70, 55, 65]
6.17[88, 240, 732, 357, 88, 70, 55, 65]
6.17[88, 240, 732, 357, 88, 70, 55, 65]
6.17[88, 240, 732, 357, 88, 70, 55, 65]
6.17[88, 240, 732, 357, 88, 70, 55, 65]
6.17[88, 240, 732, 357, 88, 70, 55, 65]
6.17[83, 220, 593, 292, 77, 68, 52, 66]
6.2[83, 220, 593, 292, 77, 68, 52, 66]
6.2[83, 220, 593, 292, 77, 68, 52, 66]
6.2[83, 220, 593, 292, 77, 68, 52, 66]
6.2[83, 220, 593, 292, 77, 68, 52, 66]
6.2[83, 220, 593, 292, 77, 68, 52, 66]
6.2[83, 220, 593, 292, 77, 68, 52, 66]
6.2[83, 220, 593, 292, 77, 68, 52, 66]
6.2[81, 202, 591, 336, 89, 70, 52, 68]
6.21[81, 202, 591, 336, 89, 70, 52, 68]
6.21[81, 202, 591, 336, 89, 70, 52, 68]
6.21[81, 202, 591, 336, 89, 70, 52, 68]
6.21[81, 202, 591, 336, 89, 70, 52, 68]
6.21[81, 202, 591, 336, 89, 70, 52, 68]
6.21[81, 202, 591, 336, 89, 70, 52, 68]
6.21[81, 202, 591, 336, 89, 70, 52, 68]
6.21[87, 215, 641, 326, 90, 68, 53, 69]
6.23[87, 215, 641, 326, 90, 68, 53, 69]
6.23[87, 215, 641, 326, 90, 68, 53, 69]
6.23[87, 215, 641, 326, 90, 68, 53, 69]
6.23[87, 215, 641, 326, 90, 68, 53, 69]
6.23[87, 215, 641, 326, 90, 68, 53, 69]
6.23[87, 215, 641, 326, 90, 68, 53, 69]
6.23[87, 215, 641, 326, 90, 68, 53, 69]
6.23[97, 225, 688, 393, 101, 75, 55, 73]
6.26[97, 225, 688, 393, 101, 75, 55, 73]
6.26[97, 225, 688, 393, 101, 75, 55, 73]
6.26[97, 225, 688, 393, 101, 75, 55, 73]
6.26[97, 225, 688, 393, 101, 75, 55, 73]
6.26[97, 225, 688, 393, 101, 75, 55, 73]
6.26[97, 225, 688, 393, 101, 75, 55, 73]
6.26[97, 225, 688, 393, 101, 75, 55, 73]
6.26[92, 255, 587, 362, 87, 56, 42, 53]
6.27[92, 255, 587, 362, 87, 56, 42, 53]
6.27[92, 255, 587, 362, 87, 56, 42, 53]
6.27[92, 255, 587, 362, 87, 56, 42, 53]
6.27[92, 255, 587, 362, 87, 56, 42, 53]
6.27[92, 255, 587, 362, 87, 56, 42, 53]
6.27[92, 255, 587, 362, 87, 56, 42, 53]
6.27[92, 255, 587, 362, 87, 56, 42, 53]
6.27[92, 264, 658, 417, 95, 57, 44, 56]
6.29[92, 264, 658, 417, 95, 57, 44, 56]
6.29[92, 264, 658, 417, 95, 57, 44, 56]
6.29[92, 264, 658, 417, 95, 57, 44, 56]
6.29[92, 264, 658, 417, 95, 57, 44, 56]
6.29[92, 264, 658, 417, 95, 57, 44, 56]
6.29[92, 264, 658, 417, 95, 57, 44, 56]
6.29[92, 264, 658, 417, 95, 57, 44, 56]
6.29[92, 267, 675, 387, 86, 53, 45, 53]
6.32[92, 267, 675, 387, 86, 53, 45, 53]
6.32[92, 267, 675, 387, 86, 53, 45, 53]
6.32[92, 267, 675, 387, 86, 53, 45, 53]
6.32[92, 267, 675, 387, 86, 53, 45, 53]
6.32[92, 267, 675, 387, 86, 53, 45, 53]
6.32[92, 267, 675, 387, 86, 53, 45, 53]
6.32[92, 267, 675, 387, 86, 53, 45, 53]
6.32[87, 264, 658, 388, 85, 54, 44, 51]
6.33[87, 264, 658, 388, 85, 54, 44, 51]
6.33[87, 264, 658, 388, 85, 54, 44, 51]
6.33[87, 264, 658, 388, 85, 54, 44, 51]
6.33[87, 264, 658, 388, 85, 54, 44, 51]
6.33[87, 264, 658, 388, 85, 54, 44, 51]
6.33[87, 264, 658, 388, 85, 54, 44, 51]
6.33[87, 264, 658, 388, 85, 54, 44, 51]
6.33[74, 254, 627, 371, 72, 45, 39, 46]
6.35[74, 254, 627, 371, 72, 45, 39, 46]
6.35[74, 254, 627, 371, 72, 45, 39, 46]
6.35[74, 254, 627, 371, 72, 45, 39, 46]
6.35[74, 254, 627, 371, 72, 45, 39, 46]
6.35[74, 254, 627, 371, 72, 45, 39, 46]
6.35[74, 254, 627, 371, 72, 45, 39, 46]
6.35[74, 254, 627, 371, 72, 45, 39, 46]
6.35[70, 247, 597, 369, 71, 47, 37, 45]
6.38[70, 247, 597, 369, 71, 47, 37, 45]
6.38[70, 247, 597, 369, 71, 47, 37, 45]
6.38[70, 247, 597, 369, 71, 47, 37, 45]
6.38[70, 247, 597, 369, 71, 47, 37, 45]
6.38[70, 247, 597, 369, 71, 47, 37, 45]
6.38[70, 247, 597, 369, 71, 47, 37, 45]
6.38[70, 247, 597, 369, 71, 47, 37, 45]
6.38[72, 262, 534, 318, 61, 39, 35, 37]
6.4[72, 262, 534, 318, 61, 39, 35, 37]
6.4[72, 262, 534, 318, 61, 39, 35, 37]
6.4[72, 262, 534, 318, 61, 39, 35, 37]
6.4[72, 262, 534, 318, 61, 39, 35, 37]
6.4[72, 262, 534, 318, 61, 39, 35, 37]
6.4[72, 262, 534, 318, 61, 39, 35, 37]
6.4[72, 262, 534, 318, 61, 39, 35, 37]
6.4[78, 261, 524, 356, 68, 48, 38, 45]
6.41[78, 261, 524, 356, 68, 48, 38, 45]
6.41[78, 261, 524, 356, 68, 48, 38, 45]
6.41[78, 261, 524, 356, 68, 48, 38, 45]
6.41[78, 261, 524, 356, 68, 48, 38, 45]
6.41[78, 261, 524, 356, 68, 48, 38, 45]
6.41[78, 261, 524, 356, 68, 48, 38, 45]
6.41[78, 261, 524, 356, 68, 48, 38, 45]
6.41[79, 263, 537, 367, 74, 49, 39, 43]
6.44[79, 263, 537, 367, 74, 49, 39, 43]
6.44[79, 263, 537, 367, 74, 49, 39, 43]
6.44[79, 263, 537, 367, 74, 49, 39, 43]
6.44[79, 263, 537, 367, 74, 49, 39, 43]
6.44[79, 263, 537, 367, 74, 49, 39, 43]
6.44[79, 263, 537, 367, 74, 49, 39, 43]
6.44[79, 263, 537, 367, 74, 49, 39, 43]
6.44[86, 271, 515, 324, 78, 47, 37, 43]
6.45[86, 271, 515, 324, 78, 47, 37, 43]
6.45[86, 271, 515, 324, 78, 47, 37, 43]
6.45[86, 271, 515, 324, 78, 47, 37, 43]
6.45[86, 271, 515, 324, 78, 47, 37, 43]
6.45[86, 271, 515, 324, 78, 47, 37, 43]
6.45[86, 271, 515, 324, 78, 47, 37, 43]
6.45[86, 271, 515, 324, 78, 47, 37, 43]
6.45[84, 306, 603, 333, 86, 44, 38, 43]
6.47[84, 306, 603, 333, 86, 44, 38, 43]
6.47[84, 306, 603, 333, 86, 44, 38, 43]
6.47[84, 306, 603, 333, 86, 44, 38, 43]
6.47[84, 306, 603, 333, 86, 44, 38, 43]
6.47[84, 306, 603, 333, 86, 44, 38, 43]
6.47[84, 306, 603, 333, 86, 44, 38, 43]
6.47[84, 306, 603, 333, 86, 44, 38, 43]
6.47[88, 328, 653, 307, 85, 43, 35, 43]
6.5[88, 328, 653, 307, 85, 43, 35, 43]
6.5[88, 328, 653, 307, 85, 43, 35, 43]
6.5[88, 328, 653, 307, 85, 43, 35, 43]
6.5[88, 328, 653, 307, 85, 43, 35, 43]
6.5[88, 328, 653, 307, 85, 43, 35, 43]
6.5[88, 328, 653, 307, 85, 43, 35, 43]
6.5[88, 328, 653, 307, 85, 43, 35, 43]
6.5[94, 402, 718, 286, 79, 41, 33, 40]
6.51[94, 402, 718, 286, 79, 41, 33, 40]
6.51[94, 402, 718, 286, 79, 41, 33, 40]
6.51[94, 402, 718, 286, 79, 41, 33, 40]
6.51[94, 402, 718, 286, 79, 41, 33, 40]
6.51[94, 402, 718, 286, 79, 41, 33, 40]
6.51[94, 402, 718, 286, 79, 41, 33, 40]
6.51[94, 402, 718, 286, 79, 41, 33, 40]
6.51[96, 396, 736, 330, 73, 38, 34, 42]
6.53[96, 396, 736, 330, 73, 38, 34, 42]
6.53[96, 396, 736, 330, 73, 38, 34, 42]
6.53[96, 396, 736, 330, 73, 38, 34, 42]
6.53[96, 396, 736, 330, 73, 38, 34, 42]
6.53[96, 396, 736, 330, 73, 38, 34, 42]
6.53[96, 396, 736, 330, 73, 38, 34, 42]
6.53[96, 396, 736, 330, 73, 38, 34, 42]
6.53[92, 396, 715, 369, 89, 46, 38, 48]
6.56[92, 396, 715, 369, 89, 46, 38, 48]
6.56[92, 396, 715, 369, 89, 46, 38, 48]
6.56[92, 396, 715, 369, 89, 46, 38, 48]
6.56[92, 396, 715, 369, 89, 46, 38, 48]
6.56[92, 396, 715, 369, 89, 46, 38, 48]
6.56[92, 396, 715, 369, 89, 46, 38, 48]
6.56[92, 396, 715, 369, 89, 46, 38, 48]
6.56[85, 377, 693, 381, 91, 48, 40, 50]
6.57[85, 377, 693, 381, 91, 48, 40, 50]
6.57[85, 377, 693, 381, 91, 48, 40, 50]
6.57[85, 377, 693, 381, 91, 48, 40, 50]
6.57[85, 377, 693, 381, 91, 48, 40, 50]
6.57[85, 377, 693, 381, 91, 48, 40, 50]
6.57[85, 377, 693, 381, 91, 48, 40, 50]
6.57[85, 377, 693, 381, 91, 48, 40, 50]
6.57[89, 403, 637, 390, 95, 53, 44, 52]
6.59[89, 403, 637, 390, 95, 53, 44, 52]
6.59[89, 403, 637, 390, 95, 53, 44, 52]
6.59[89, 403, 637, 390, 95, 53, 44, 52]
6.59[89, 403, 637, 390, 95, 53, 44, 52]
6.59[89, 403, 637, 390, 95, 53, 44, 52]
6.59[89, 403, 637, 390, 95, 53, 44, 52]
6.59[89, 403, 637, 390, 95, 53, 44, 52]
6.59[82, 366, 648, 426, 98, 48, 40, 48]
6.62[82, 366, 648, 426, 98, 48, 40, 48]
6.62[82, 366, 648, 426, 98, 48, 40, 48]
6.62[82, 366, 648, 426, 98, 48, 40, 48]
6.62[82, 366, 648, 426, 98, 48, 40, 48]
6.62[82, 366, 648, 426, 98, 48, 40, 48]
6.62[82, 366, 648, 426, 98, 48, 40, 48]
6.62[82, 366, 648, 426, 98, 48, 40, 48]
6.62[81, 377, 657, 406, 100, 55, 43, 51]
6.64[81, 377, 657, 406, 100, 55, 43, 51]
6.64[81, 377, 657, 406, 100, 55, 43, 51]
6.64[81, 377, 657, 406, 100, 55, 43, 51]
6.64[81, 377, 657, 406, 100, 55, 43, 51]
6.64[81, 377, 657, 406, 100, 55, 43, 51]
6.64[81, 377, 657, 406, 100, 55, 43, 51]
6.64[81, 377, 657, 406, 100, 55, 43, 51]
6.64[82, 389, 723, 399, 98, 70, 51, 57]
6.66[82, 389, 723, 399, 98, 70, 51, 57]
6.66[82, 389, 723, 399, 98, 70, 51, 57]
6.66[82, 389, 723, 399, 98, 70, 51, 57]
6.66[82, 389, 723, 399, 98, 70, 51, 57]
6.66[82, 389, 723, 399, 98, 70, 51, 57]
6.66[82, 389, 723, 399, 98, 70, 51, 57]
6.66[82, 389, 723, 399, 98, 70, 51, 57]
6.66[91, 348, 741, 511, 117, 76, 53, 62]
6.68[91, 348, 741, 511, 117, 76, 53, 62]
6.68[91, 348, 741, 511, 117, 76, 53, 62]
6.68[91, 348, 741, 511, 117, 76, 53, 62]
6.68[91, 348, 741, 511, 117, 76, 53, 62]
6.68[91, 348, 741, 511, 117, 76, 53, 62]
6.68[91, 348, 741, 511, 117, 76, 53, 62]
6.68[91, 348, 741, 511, 117, 76, 53, 62]
6.68[88, 290, 832, 524, 121, 79, 52, 65]
6.7[88, 290, 832, 524, 121, 79, 52, 65]
6.7[88, 290, 832, 524, 121, 79, 52, 65]
6.7[88, 290, 832, 524, 121, 79, 52, 65]
6.7[88, 290, 832, 524, 121, 79, 52, 65]
6.7[88, 290, 832, 524, 121, 79, 52, 65]
6.7[88, 290, 832, 524, 121, 79, 52, 65]
6.7[88, 290, 832, 524, 121, 79, 52, 65]
6.7[88, 259, 811, 513, 128, 81, 55, 69]
6.72[88, 259, 811, 513, 128, 81, 55, 69]
6.72[88, 259, 811, 513, 128, 81, 55, 69]
6.72[88, 259, 811, 513, 128, 81, 55, 69]
6.72[88, 259, 811, 513, 128, 81, 55, 69]
6.72[88, 259, 811, 513, 128, 81, 55, 69]
6.72[88, 259, 811, 513, 128, 81, 55, 69]
6.72[88, 259, 811, 513, 128, 81, 55, 69]
6.72[92, 255, 800, 526, 140, 84, 57, 72]
6.74[92, 255, 800, 526, 140, 84, 57, 72]
6.74[92, 255, 800, 526, 140, 84, 57, 72]
6.74[92, 255, 800, 526, 140, 84, 57, 72]
6.74[92, 255, 800, 526, 140, 84, 57, 72]
6.74[92, 255, 800, 526, 140, 84, 57, 72]
6.74[92, 255, 800, 526, 140, 84, 57, 72]
6.74[92, 255, 800, 526, 140, 84, 57, 72]
6.74[88, 332, 879, 554, 143, 71, 50, 65]
6.76[88, 332, 879, 554, 143, 71, 50, 65]
6.76[88, 332, 879, 554, 143, 71, 50, 65]
6.76[88, 332, 879, 554, 143, 71, 50, 65]
6.76[88, 332, 879, 554, 143, 71, 50, 65]
6.76[88, 332, 879, 554, 143, 71, 50, 65]
6.76[88, 332, 879, 554, 143, 71, 50, 65]
6.76[88, 332, 879, 554, 143, 71, 50, 65]
6.76[90, 429, 882, 515, 137, 69, 51, 62]
6.77[90, 429, 882, 515, 137, 69, 51, 62]
6.77[90, 429, 882, 515, 137, 69, 51, 62]
6.77[90, 429, 882, 515, 137, 69, 51, 62]
6.77[90, 429, 882, 515, 137, 69, 51, 62]
6.77[90, 429, 882, 515, 137, 69, 51, 62]
6.77[90, 429, 882, 515, 137, 69, 51, 62]
6.77[90, 429, 882, 515, 137, 69, 51, 62]
6.77[83, 428, 859, 552, 133, 63, 49, 57]
6.8[83, 428, 859, 552, 133, 63, 49, 57]
6.8[83, 428, 859, 552, 133, 63, 49, 57]
6.8[83, 428, 859, 552, 133, 63, 49, 57]
6.8[83, 428, 859, 552, 133, 63, 49, 57]
6.8[83, 428, 859, 552, 133, 63, 49, 57]
6.8[83, 428, 859, 552, 133, 63, 49, 57]
6.8[83, 428, 859, 552, 133, 63, 49, 57]
6.8[79, 425, 927, 623, 144, 65, 49, 53]
6.82[79, 425, 927, 623, 144, 65, 49, 53]
6.82[79, 425, 927, 623, 144, 65, 49, 53]
6.82[79, 425, 927, 623, 144, 65, 49, 53]
6.82[79, 425, 927, 623, 144, 65, 49, 53]
6.82[79, 425, 927, 623, 144, 65, 49, 53]
6.82[79, 425, 927, 623, 144, 65, 49, 53]
6.82[79, 425, 927, 623, 144, 65, 49, 53]
6.82[76, 431, 939, 661, 139, 59, 48, 51]
6.83[76, 431, 939, 661, 139, 59, 48, 51]
6.83[76, 431, 939, 661, 139, 59, 48, 51]
6.83[76, 431, 939, 661, 139, 59, 48, 51]
6.83[76, 431, 939, 661, 139, 59, 48, 51]
6.83[76, 431, 939, 661, 139, 59, 48, 51]
6.83[76, 431, 939, 661, 139, 59, 48, 51]
6.83[76, 431, 939, 661, 139, 59, 48, 51]
6.83[84, 439, 895, 716, 147, 65, 51, 58]
6.86[84, 439, 895, 716, 147, 65, 51, 58]
6.86[84, 439, 895, 716, 147, 65, 51, 58]
6.86[84, 439, 895, 716, 147, 65, 51, 58]
6.86[84, 439, 895, 716, 147, 65, 51, 58]
6.86[84, 439, 895, 716, 147, 65, 51, 58]
6.86[84, 439, 895, 716, 147, 65, 51, 58]
6.86[84, 439, 895, 716, 147, 65, 51, 58]
6.86[82, 456, 902, 682, 144, 63, 47, 55]
6.88[82, 456, 902, 682, 144, 63, 47, 55]
6.88[82, 456, 902, 682, 144, 63, 47, 55]
6.88[82, 456, 902, 682, 144, 63, 47, 55]
6.88[82, 456, 902, 682, 144, 63, 47, 55]
6.88[82, 456, 902, 682, 144, 63, 47, 55]
6.88[82, 456, 902, 682, 144, 63, 47, 55]
6.88[82, 456, 902, 682, 144, 63, 47, 55]
6.88[88, 457, 919, 706, 170, 77, 54, 63]
6.89[88, 457, 919, 706, 170, 77, 54, 63]
6.89[88, 457, 919, 706, 170, 77, 54, 63]
6.89[88, 457, 919, 706, 170, 77, 54, 63]
6.89[88, 457, 919, 706, 170, 77, 54, 63]
6.89[88, 457, 919, 706, 170, 77, 54, 63]
6.89[88, 457, 919, 706, 170, 77, 54, 63]
6.89[88, 457, 919, 706, 170, 77, 54, 63]
6.89[91, 450, 884, 654, 177, 78, 52, 63]
6.92[91, 450, 884, 654, 177, 78, 52, 63]
6.92[91, 450, 884, 654, 177, 78, 52, 63]
6.92[91, 450, 884, 654, 177, 78, 52, 63]
6.92[91, 450, 884, 654, 177, 78, 52, 63]
6.92[91, 450, 884, 654, 177, 78, 52, 63]
6.92[91, 450, 884, 654, 177, 78, 52, 63]
6.92[91, 450, 884, 654, 177, 78, 52, 63]
6.92[89, 445, 982, 651, 206, 88, 54, 61]
6.94[89, 445, 982, 651, 206, 88, 54, 61]
6.94[89, 445, 982, 651, 206, 88, 54, 61]
6.94[89, 445, 982, 651, 206, 88, 54, 61]
6.94[89, 445, 982, 651, 206, 88, 54, 61]
6.94[89, 445, 982, 651, 206, 88, 54, 61]
6.94[89, 445, 982, 651, 206, 88, 54, 61]
6.94[89, 445, 982, 651, 206, 88, 54, 61]
6.94[147, 487, 971, 613, 222, 89, 57, 73]
6.95[147, 487, 971, 613, 222, 89, 57, 73]
6.95[147, 487, 971, 613, 222, 89, 57, 73]
6.95[147, 487, 971, 613, 222, 89, 57, 73]
6.95[147, 487, 971, 613, 222, 89, 57, 73]
6.95[147, 487, 971, 613, 222, 89, 57, 73]
6.95[147, 487, 971, 613, 222, 89, 57, 73]
6.95[147, 487, 971, 613, 222, 89, 57, 73]
6.95[146, 407, 971, 642, 224, 90, 59, 74]
6.98[146, 407, 971, 642, 224, 90, 59, 74]
6.98[146, 407, 971, 642, 224, 90, 59, 74]
6.98[146, 407, 971, 642, 224, 90, 59, 74]
6.98[146, 407, 971, 642, 224, 90, 59, 74]
6.98[146, 407, 971, 642, 224, 90, 59, 74]
6.98[146, 407, 971, 642, 224, 90, 59, 74]
6.98[146, 407, 971, 642, 224, 90, 59, 74]
6.98[147, 412, 1027, 582, 205, 81, 55, 72]
7.0[147, 412, 1027, 582, 205, 81, 55, 72]
7.0[147, 412, 1027, 582, 205, 81, 55, 72]
7.0[147, 412, 1027, 582, 205, 81, 55, 72]
7.0[147, 412, 1027, 582, 205, 81, 55, 72]
7.0[147, 412, 1027, 582, 205, 81, 55, 72]
7.0[147, 412, 1027, 582, 205, 81, 55, 72]
7.0[147, 412, 1027, 582, 205, 81, 55, 72]
7.0[160, 473, 1087, 599, 201, 88, 65, 82]
7.01[160, 473, 1087, 599, 201, 88, 65, 82]
7.01[160, 473, 1087, 599, 201, 88, 65, 82]
7.01[160, 473, 1087, 599, 201, 88, 65, 82]
7.01[160, 473, 1087, 599, 201, 88, 65, 82]
7.01[160, 473, 1087, 599, 201, 88, 65, 82]
7.01[160, 473, 1087, 599, 201, 88, 65, 82]
7.01[160, 473, 1087, 599, 201, 88, 65, 82]
7.01[169, 497, 1031, 667, 210, 88, 67, 82]
7.04[169, 497, 1031, 667, 210, 88, 67, 82]
7.04[169, 497, 1031, 667, 210, 88, 67, 82]
7.04[169, 497, 1031, 667, 210, 88, 67, 82]
7.04[169, 497, 1031, 667, 210, 88, 67, 82]
7.04[169, 497, 1031, 667, 210, 88, 67, 82]
7.04[169, 497, 1031, 667, 210, 88, 67, 82]
7.04[169, 497, 1031, 667, 210, 88, 67, 82]
7.04[136, 473, 1147, 721, 196, 84, 62, 71]
7.06[136, 473, 1147, 721, 196, 84, 62, 71]
7.06[136, 473, 1147, 721, 196, 84, 62, 71]
7.06[136, 473, 1147, 721, 196, 84, 62, 71]
7.06[136, 473, 1147, 721, 196, 84, 62, 71]
7.06[136, 473, 1147, 721, 196, 84, 62, 71]
7.06[136, 473, 1147, 721, 196, 84, 62, 71]
7.06[136, 473, 1147, 721, 196, 84, 62, 71]
7.06[141, 464, 1142, 713, 196, 85, 62, 70]
7.07[141, 464, 1142, 713, 196, 85, 62, 70]
7.07[141, 464, 1142, 713, 196, 85, 62, 70]
7.07[141, 464, 1142, 713, 196, 85, 62, 70]
7.07[141, 464, 1142, 713, 196, 85, 62, 70]
7.07[141, 464, 1142, 713, 196, 85, 62, 70]
7.07[141, 464, 1142, 713, 196, 85, 62, 70]
7.07[141, 464, 1142, 713, 196, 85, 62, 70]
7.07[138, 454, 1108, 744, 207, 90, 66, 70]
7.1[138, 454, 1108, 744, 207, 90, 66, 70]
7.1[138, 454, 1108, 744, 207, 90, 66, 70]
7.1[138, 454, 1108, 744, 207, 90, 66, 70]
7.1[138, 454, 1108, 744, 207, 90, 66, 70]
7.1[138, 454, 1108, 744, 207, 90, 66, 70]
7.1[138, 454, 1108, 744, 207, 90, 66, 70]
7.1[138, 454, 1108, 744, 207, 90, 66, 70]
7.1[125, 397, 1044, 773, 210, 85, 59, 62]
7.12[125, 397, 1044, 773, 210, 85, 59, 62]
7.12[125, 397, 1044, 773, 210, 85, 59, 62]
7.12[125, 397, 1044, 773, 210, 85, 59, 62]
7.12[125, 397, 1044, 773, 210, 85, 59, 62]
7.12[125, 397, 1044, 773, 210, 85, 59, 62]
7.12[125, 397, 1044, 773, 210, 85, 59, 62]
7.12[125, 397, 1044, 773, 210, 85, 59, 62]
7.12[115, 369, 1014, 731, 212, 88, 61, 69]
7.13[115, 369, 1014, 731, 212, 88, 61, 69]
7.13[115, 369, 1014, 731, 212, 88, 61, 69]
7.13[115, 369, 1014, 731, 212, 88, 61, 69]
7.13[115, 369, 1014, 731, 212, 88, 61, 69]
7.13[115, 369, 1014, 731, 212, 88, 61, 69]
7.13[115, 369, 1014, 731, 212, 88, 61, 69]
7.13[115, 369, 1014, 731, 212, 88, 61, 69]
7.13[94, 242, 858, 663, 226, 92, 64, 69]
7.16[94, 242, 858, 663, 226, 92, 64, 69]
7.16[94, 242, 858, 663, 226, 92, 64, 69]
7.16[94, 242, 858, 663, 226, 92, 64, 69]
7.16[94, 242, 858, 663, 226, 92, 64, 69]
7.16[94, 242, 858, 663, 226, 92, 64, 69]
7.16[94, 242, 858, 663, 226, 92, 64, 69]
7.16[94, 242, 858, 663, 226, 92, 64, 69]
7.16[80, 255, 867, 673, 220, 89, 63, 69]
7.18[80, 255, 867, 673, 220, 89, 63, 69]
7.18[80, 255, 867, 673, 220, 89, 63, 69]
7.18[80, 255, 867, 673, 220, 89, 63, 69]
7.18[80, 255, 867, 673, 220, 89, 63, 69]
7.18[80, 255, 867, 673, 220, 89, 63, 69]
7.18[80, 255, 867, 673, 220, 89, 63, 69]
7.18[80, 255, 867, 673, 220, 89, 63, 69]
7.18[93, 293, 784, 652, 219, 91, 70, 78]
7.19[93, 293, 784, 652, 219, 91, 70, 78]
7.19[93, 293, 784, 652, 219, 91, 70, 78]
7.19[93, 293, 784, 652, 219, 91, 70, 78]
7.19[93, 293, 784, 652, 219, 91, 70, 78]
7.19[93, 293, 784, 652, 219, 91, 70, 78]
7.19[93, 293, 784, 652, 219, 91, 70, 78]
7.19[93, 293, 784, 652, 219, 91, 70, 78]
7.19[92, 298, 754, 584, 213, 92, 68, 76]
7.22[92, 298, 754, 584, 213, 92, 68, 76]
7.22[92, 298, 754, 584, 213, 92, 68, 76]
7.22[92, 298, 754, 584, 213, 92, 68, 76]
7.22[92, 298, 754, 584, 213, 92, 68, 76]
7.22[92, 298, 754, 584, 213, 92, 68, 76]
7.22[92, 298, 754, 584, 213, 92, 68, 76]
7.22[92, 298, 754, 584, 213, 92, 68, 76]
7.22[94, 286, 751, 530, 185, 81, 64, 68]
7.24[94, 286, 751, 530, 185, 81, 64, 68]
7.24[94, 286, 751, 530, 185, 81, 64, 68]
7.24[94, 286, 751, 530, 185, 81, 64, 68]
7.24[94, 286, 751, 530, 185, 81, 64, 68]
7.24[94, 286, 751, 530, 185, 81, 64, 68]
7.24[94, 286, 751, 530, 185, 81, 64, 68]
7.24[94, 286, 751, 530, 185, 81, 64, 68]
7.24[96, 278, 733, 525, 173, 73, 60, 66]
7.25[96, 278, 733, 525, 173, 73, 60, 66]
7.25[96, 278, 733, 525, 173, 73, 60, 66]
7.25[96, 278, 733, 525, 173, 73, 60, 66]
7.25[96, 278, 733, 525, 173, 73, 60, 66]
7.25[96, 278, 733, 525, 173, 73, 60, 66]
7.25[96, 278, 733, 525, 173, 73, 60, 66]
7.25[96, 278, 733, 525, 173, 73, 60, 66]
7.25[96, 250, 674, 519, 185, 73, 58, 63]
7.28[96, 250, 674, 519, 185, 73, 58, 63]
7.28[96, 250, 674, 519, 185, 73, 58, 63]
7.28[96, 250, 674, 519, 185, 73, 58, 63]
7.28[96, 250, 674, 519, 185, 73, 58, 63]
7.28[96, 250, 674, 519, 185, 73, 58, 63]
7.28[96, 250, 674, 519, 185, 73, 58, 63]
7.28[96, 250, 674, 519, 185, 73, 58, 63]
7.28[91, 233, 844, 576, 195, 69, 45, 52]
7.3[91, 233, 844, 576, 195, 69, 45, 52]
7.3[91, 233, 844, 576, 195, 69, 45, 52]
7.3[91, 233, 844, 576, 195, 69, 45, 52]
7.3[91, 233, 844, 576, 195, 69, 45, 52]
7.3[91, 233, 844, 576, 195, 69, 45, 52]
7.3[91, 233, 844, 576, 195, 69, 45, 52]
7.3[91, 233, 844, 576, 195, 69, 45, 52]
7.3[90, 227, 863, 602, 187, 61, 43, 49]
7.31[90, 227, 863, 602, 187, 61, 43, 49]
7.31[90, 227, 863, 602, 187, 61, 43, 49]
7.31[90, 227, 863, 602, 187, 61, 43, 49]
7.31[90, 227, 863, 602, 187, 61, 43, 49]
7.31[90, 227, 863, 602, 187, 61, 43, 49]
7.31[90, 227, 863, 602, 187, 61, 43, 49]
7.31[90, 227, 863, 602, 187, 61, 43, 49]
7.31[95, 245, 937, 604, 175, 66, 44, 52]
7.34[95, 245, 937, 604, 175, 66, 44, 52]
7.34[95, 245, 937, 604, 175, 66, 44, 52]
7.34[95, 245, 937, 604, 175, 66, 44, 52]
7.34[95, 245, 937, 604, 175, 66, 44, 52]
7.34[95, 245, 937, 604, 175, 66, 44, 52]
7.34[95, 245, 937, 604, 175, 66, 44, 52]
7.34[95, 245, 937, 604, 175, 66, 44, 52]
7.34[98, 267, 964, 599, 185, 78, 51, 60]
7.36[98, 267, 964, 599, 185, 78, 51, 60]
7.36[98, 267, 964, 599, 185, 78, 51, 60]
7.36[98, 267, 964, 599, 185, 78, 51, 60]
7.36[98, 267, 964, 599, 185, 78, 51, 60]
7.36[98, 267, 964, 599, 185, 78, 51, 60]
7.36[98, 267, 964, 599, 185, 78, 51, 60]
7.36[98, 267, 964, 599, 185, 78, 51, 60]
7.36[131, 290, 1063, 592, 188, 90, 63, 78]
7.37[131, 290, 1063, 592, 188, 90, 63, 78]
7.37[131, 290, 1063, 592, 188, 90, 63, 78]
7.37[131, 290, 1063, 592, 188, 90, 63, 78]
7.37[131, 290, 1063, 592, 188, 90, 63, 78]
7.37[131, 290, 1063, 592, 188, 90, 63, 78]
7.37[131, 290, 1063, 592, 188, 90, 63, 78]
7.37[131, 290, 1063, 592, 188, 90, 63, 78]
7.37[137, 290, 970, 653, 213, 104, 71, 85]
7.4[137, 290, 970, 653, 213, 104, 71, 85]
7.4[137, 290, 970, 653, 213, 104, 71, 85]
7.4[137, 290, 970, 653, 213, 104, 71, 85]
7.4[137, 290, 970, 653, 213, 104, 71, 85]
7.4[137, 290, 970, 653, 213, 104, 71, 85]
7.4[137, 290, 970, 653, 213, 104, 71, 85]
7.4[137, 290, 970, 653, 213, 104, 71, 85]
7.4[136, 280, 947, 639, 224, 110, 73, 87]
7.42[136, 280, 947, 639, 224, 110, 73, 87]
7.42[136, 280, 947, 639, 224, 110, 73, 87]
7.42[136, 280, 947, 639, 224, 110, 73, 87]
7.42[136, 280, 947, 639, 224, 110, 73, 87]
7.42[136, 280, 947, 639, 224, 110, 73, 87]
7.42[136, 280, 947, 639, 224, 110, 73, 87]
7.42[136, 280, 947, 639, 224, 110, 73, 87]
7.42[132, 283, 883, 680, 229, 109, 72, 85]
7.43[132, 283, 883, 680, 229, 109, 72, 85]
7.43[132, 283, 883, 680, 229, 109, 72, 85]
7.43[132, 283, 883, 680, 229, 109, 72, 85]
7.43[132, 283, 883, 680, 229, 109, 72, 85]
7.43[132, 283, 883, 680, 229, 109, 72, 85]
7.43[132, 283, 883, 680, 229, 109, 72, 85]
7.43[132, 283, 883, 680, 229, 109, 72, 85]
7.43[126, 253, 922, 666, 203, 97, 66, 77]
7.46[126, 253, 922, 666, 203, 97, 66, 77]
7.46[126, 253, 922, 666, 203, 97, 66, 77]
7.46[126, 253, 922, 666, 203, 97, 66, 77]
7.46[126, 253, 922, 666, 203, 97, 66, 77]
7.46[126, 253, 922, 666, 203, 97, 66, 77]
7.46[126, 253, 922, 666, 203, 97, 66, 77]
7.46[126, 253, 922, 666, 203, 97, 66, 77]
7.46[96, 240, 880, 635, 188, 87, 55, 62]
7.48[96, 240, 880, 635, 188, 87, 55, 62]
7.48[96, 240, 880, 635, 188, 87, 55, 62]
7.48[96, 240, 880, 635, 188, 87, 55, 62]
7.48[96, 240, 880, 635, 188, 87, 55, 62]
7.48[96, 240, 880, 635, 188, 87, 55, 62]
7.48[96, 240, 880, 635, 188, 87, 55, 62]
7.48[96, 240, 880, 635, 188, 87, 55, 62]
7.48[93, 269, 924, 501, 140, 66, 47, 51]
7.49[93, 269, 924, 501, 140, 66, 47, 51]
7.49[93, 269, 924, 501, 140, 66, 47, 51]
7.49[93, 269, 924, 501, 140, 66, 47, 51]
7.49[93, 269, 924, 501, 140, 66, 47, 51]
7.49[93, 269, 924, 501, 140, 66, 47, 51]
7.49[93, 269, 924, 501, 140, 66, 47, 51]
7.49[93, 269, 924, 501, 140, 66, 47, 51]
7.49[95, 281, 953, 519, 128, 61, 47, 49]
7.52[95, 281, 953, 519, 128, 61, 47, 49]
7.52[95, 281, 953, 519, 128, 61, 47, 49]
7.52[95, 281, 953, 519, 128, 61, 47, 49]
7.52[95, 281, 953, 519, 128, 61, 47, 49]
7.52[95, 281, 953, 519, 128, 61, 47, 49]
7.52[95, 281, 953, 519, 128, 61, 47, 49]
7.52[95, 281, 953, 519, 128, 61, 47, 49]
7.52[93, 265, 1038, 541, 154, 70, 49, 52]
7.54[93, 265, 1038, 541, 154, 70, 49, 52]
7.54[93, 265, 1038, 541, 154, 70, 49, 52]
7.54[93, 265, 1038, 541, 154, 70, 49, 52]
7.54[93, 265, 1038, 541, 154, 70, 49, 52]
7.54[93, 265, 1038, 541, 154, 70, 49, 52]
7.54[93, 265, 1038, 541, 154, 70, 49, 52]
7.54[93, 265, 1038, 541, 154, 70, 49, 52]
7.54[107, 266, 956, 583, 195, 92, 64, 68]
7.55[107, 266, 956, 583, 195, 92, 64, 68]
7.55[107, 266, 956, 583, 195, 92, 64, 68]
7.55[107, 266, 956, 583, 195, 92, 64, 68]
7.55[107, 266, 956, 583, 195, 92, 64, 68]
7.55[107, 266, 956, 583, 195, 92, 64, 68]
7.55[107, 266, 956, 583, 195, 92, 64, 68]
7.55[107, 266, 956, 583, 195, 92, 64, 68]
7.55[105, 261, 905, 606, 204, 94, 67, 69]
7.58[105, 261, 905, 606, 204, 94, 67, 69]
7.58[105, 261, 905, 606, 204, 94, 67, 69]
7.58[105, 261, 905, 606, 204, 94, 67, 69]
7.58[105, 261, 905, 606, 204, 94, 67, 69]
7.58[105, 261, 905, 606, 204, 94, 67, 69]
7.58[105, 261, 905, 606, 204, 94, 67, 69]
7.58[105, 261, 905, 606, 204, 94, 67, 69]
7.58[92, 191, 828, 632, 203, 92, 63, 67]
7.6[92, 191, 828, 632, 203, 92, 63, 67]
7.6[92, 191, 828, 632, 203, 92, 63, 67]
7.6[92, 191, 828, 632, 203, 92, 63, 67]
7.6[92, 191, 828, 632, 203, 92, 63, 67]
7.6[92, 191, 828, 632, 203, 92, 63, 67]
7.6[92, 191, 828, 632, 203, 92, 63, 67]
7.6[92, 191, 828, 632, 203, 92, 63, 67]
7.6[87, 172, 809, 630, 204, 91, 61, 65]
7.61[87, 172, 809, 630, 204, 91, 61, 65]
7.61[87, 172, 809, 630, 204, 91, 61, 65]
7.61[87, 172, 809, 630, 204, 91, 61, 65]
7.61[87, 172, 809, 630, 204, 91, 61, 65]
7.61[87, 172, 809, 630, 204, 91, 61, 65]
7.61[87, 172, 809, 630, 204, 91, 61, 65]
7.61[87, 172, 809, 630, 204, 91, 61, 65]
7.61[103, 201, 623, 560, 185, 86, 62, 66]
7.64[103, 201, 623, 560, 185, 86, 62, 66]
7.64[103, 201, 623, 560, 185, 86, 62, 66]
7.64[103, 201, 623, 560, 185, 86, 62, 66]
7.64[103, 201, 623, 560, 185, 86, 62, 66]
7.64[103, 201, 623, 560, 185, 86, 62, 66]
7.64[103, 201, 623, 560, 185, 86, 62, 66]
7.64[103, 201, 623, 560, 185, 86, 62, 66]
7.64[96, 227, 643, 514, 158, 69, 49, 56]
7.66[96, 227, 643, 514, 158, 69, 49, 56]
7.66[96, 227, 643, 514, 158, 69, 49, 56]
7.66[96, 227, 643, 514, 158, 69, 49, 56]
7.66[96, 227, 643, 514, 158, 69, 49, 56]
7.66[96, 227, 643, 514, 158, 69, 49, 56]
7.66[96, 227, 643, 514, 158, 69, 49, 56]
7.66[96, 227, 643, 514, 158, 69, 49, 56]
7.66[99, 232, 769, 519, 153, 66, 45, 53]
7.67[99, 232, 769, 519, 153, 66, 45, 53]
7.67[99, 232, 769, 519, 153, 66, 45, 53]
7.67[99, 232, 769, 519, 153, 66, 45, 53]
7.67[99, 232, 769, 519, 153, 66, 45, 53]
7.67[99, 232, 769, 519, 153, 66, 45, 53]
7.67[99, 232, 769, 519, 153, 66, 45, 53]
7.67[99, 232, 769, 519, 153, 66, 45, 53]
7.67[104, 244, 817, 518, 156, 70, 48, 56]
7.7[104, 244, 817, 518, 156, 70, 48, 56]
7.7[104, 244, 817, 518, 156, 70, 48, 56]
7.7[104, 244, 817, 518, 156, 70, 48, 56]
7.7[104, 244, 817, 518, 156, 70, 48, 56]
7.7[104, 244, 817, 518, 156, 70, 48, 56]
7.7[104, 244, 817, 518, 156, 70, 48, 56]
7.7[104, 244, 817, 518, 156, 70, 48, 56]
7.7[108, 244, 801, 546, 149, 68, 51, 57]
7.73[108, 244, 801, 546, 149, 68, 51, 57]
7.73[108, 244, 801, 546, 149, 68, 51, 57]
7.73[108, 244, 801, 546, 149, 68, 51, 57]
7.73[108, 244, 801, 546, 149, 68, 51, 57]
7.73[108, 244, 801, 546, 149, 68, 51, 57]
7.73[108, 244, 801, 546, 149, 68, 51, 57]
7.73[108, 244, 801, 546, 149, 68, 51, 57]
7.73[101, 217, 934, 569, 144, 70, 48, 56]
7.73[101, 217, 934, 569, 144, 70, 48, 56]
7.73[101, 217, 934, 569, 144, 70, 48, 56]
7.73[101, 217, 934, 569, 144, 70, 48, 56]
7.73[101, 217, 934, 569, 144, 70, 48, 56]
7.73[101, 217, 934, 569, 144, 70, 48, 56]
7.73[101, 217, 934, 569, 144, 70, 48, 56]
7.73[101, 217, 934, 569, 144, 70, 48, 56]
7.73[101, 202, 931, 572, 146, 74, 52, 59]
7.76[101, 202, 931, 572, 146, 74, 52, 59]
7.76[101, 202, 931, 572, 146, 74, 52, 59]
7.76[101, 202, 931, 572, 146, 74, 52, 59]
7.76[101, 202, 931, 572, 146, 74, 52, 59]
7.76[101, 202, 931, 572, 146, 74, 52, 59]
7.76[101, 202, 931, 572, 146, 74, 52, 59]
7.76[101, 202, 931, 572, 146, 74, 52, 59]
7.76[98, 188, 812, 540, 149, 75, 53, 58]
7.78[98, 188, 812, 540, 149, 75, 53, 58]
7.78[98, 188, 812, 540, 149, 75, 53, 58]
7.78[98, 188, 812, 540, 149, 75, 53, 58]
7.78[98, 188, 812, 540, 149, 75, 53, 58]
7.78[98, 188, 812, 540, 149, 75, 53, 58]
7.78[98, 188, 812, 540, 149, 75, 53, 58]
7.78[98, 188, 812, 540, 149, 75, 53, 58]
7.78[89, 177, 816, 499, 146, 73, 51, 56]
7.8[89, 177, 816, 499, 146, 73, 51, 56]
7.8[89, 177, 816, 499, 146, 73, 51, 56]
7.8[89, 177, 816, 499, 146, 73, 51, 56]
7.8[89, 177, 816, 499, 146, 73, 51, 56]
7.8[89, 177, 816, 499, 146, 73, 51, 56]
7.8[89, 177, 816, 499, 146, 73, 51, 56]
7.8[89, 177, 816, 499, 146, 73, 51, 56]
7.8[83, 189, 862, 468, 149, 70, 47, 54]
7.82[83, 189, 862, 468, 149, 70, 47, 54]
7.82[83, 189, 862, 468, 149, 70, 47, 54]
7.82[83, 189, 862, 468, 149, 70, 47, 54]
7.82[83, 189, 862, 468, 149, 70, 47, 54]
7.82[83, 189, 862, 468, 149, 70, 47, 54]
7.82[83, 189, 862, 468, 149, 70, 47, 54]
7.82[83, 189, 862, 468, 149, 70, 47, 54]
7.82[74, 195, 738, 588, 197, 79, 52, 52]
7.84[74, 195, 738, 588, 197, 79, 52, 52]
7.84[74, 195, 738, 588, 197, 79, 52, 52]
7.84[74, 195, 738, 588, 197, 79, 52, 52]
7.84[74, 195, 738, 588, 197, 79, 52, 52]
7.84[74, 195, 738, 588, 197, 79, 52, 52]
7.84[74, 195, 738, 588, 197, 79, 52, 52]
7.84[74, 195, 738, 588, 197, 79, 52, 52]
7.84[70, 200, 789, 642, 208, 89, 59, 55]
7.86[70, 200, 789, 642, 208, 89, 59, 55]
7.86[70, 200, 789, 642, 208, 89, 59, 55]
7.86[70, 200, 789, 642, 208, 89, 59, 55]
7.86[70, 200, 789, 642, 208, 89, 59, 55]
7.86[70, 200, 789, 642, 208, 89, 59, 55]
7.86[70, 200, 789, 642, 208, 89, 59, 55]
7.86[70, 200, 789, 642, 208, 89, 59, 55]
7.86[62, 191, 834, 647, 203, 86, 56, 53]
7.88[62, 191, 834, 647, 203, 86, 56, 53]
7.88[62, 191, 834, 647, 203, 86, 56, 53]
7.88[62, 191, 834, 647, 203, 86, 56, 53]
7.88[62, 191, 834, 647, 203, 86, 56, 53]
7.88[62, 191, 834, 647, 203, 86, 56, 53]
7.88[62, 191, 834, 647, 203, 86, 56, 53]
7.88[62, 191, 834, 647, 203, 86, 56, 53]
7.88[66, 198, 822, 690, 206, 90, 58, 55]
7.9[66, 198, 822, 690, 206, 90, 58, 55]
7.9[66, 198, 822, 690, 206, 90, 58, 55]
7.9[66, 198, 822, 690, 206, 90, 58, 55]
7.9[66, 198, 822, 690, 206, 90, 58, 55]
7.9[66, 198, 822, 690, 206, 90, 58, 55]
7.9[66, 198, 822, 690, 206, 90, 58, 55]
7.9[66, 198, 822, 690, 206, 90, 58, 55]
7.9[69, 186, 810, 678, 208, 93, 61, 57]
7.92[69, 186, 810, 678, 208, 93, 61, 57]
7.92[69, 186, 810, 678, 208, 93, 61, 57]
7.92[69, 186, 810, 678, 208, 93, 61, 57]
7.92[69, 186, 810, 678, 208, 93, 61, 57]
7.92[69, 186, 810, 678, 208, 93, 61, 57]
7.92[69, 186, 810, 678, 208, 93, 61, 57]
7.92[69, 186, 810, 678, 208, 93, 61, 57]
7.92[74, 194, 813, 541, 159, 81, 56, 56]
7.94[74, 194, 813, 541, 159, 81, 56, 56]
7.94[74, 194, 813, 541, 159, 81, 56, 56]
7.94[74, 194, 813, 541, 159, 81, 56, 56]
7.94[74, 194, 813, 541, 159, 81, 56, 56]
7.94[74, 194, 813, 541, 159, 81, 56, 56]
7.94[74, 194, 813, 541, 159, 81, 56, 56]
7.94[74, 194, 813, 541, 159, 81, 56, 56]
7.94[65, 165, 763, 455, 121, 58, 41, 44]
7.96[65, 165, 763, 455, 121, 58, 41, 44]
7.96[65, 165, 763, 455, 121, 58, 41, 44]
7.96[65, 165, 763, 455, 121, 58, 41, 44]
7.96[65, 165, 763, 455, 121, 58, 41, 44]
7.96[65, 165, 763, 455, 121, 58, 41, 44]
7.96[65, 165, 763, 455, 121, 58, 41, 44]
7.96[65, 165, 763, 455, 121, 58, 41, 44]
7.96[66, 166, 814, 500, 128, 60, 41, 44]
7.98[66, 166, 814, 500, 128, 60, 41, 44]
7.98[66, 166, 814, 500, 128, 60, 41, 44]
7.98[66, 166, 814, 500, 128, 60, 41, 44]
7.98[66, 166, 814, 500, 128, 60, 41, 44]
7.98[66, 166, 814, 500, 128, 60, 41, 44]
7.98[66, 166, 814, 500, 128, 60, 41, 44]
7.98[66, 166, 814, 500, 128, 60, 41, 44]
7.98[65, 153, 785, 534, 151, 60, 40, 46]
8.0[65, 153, 785, 534, 151, 60, 40, 46]
8.0[65, 153, 785, 534, 151, 60, 40, 46]
8.0[65, 153, 785, 534, 151, 60, 40, 46]
8.0[65, 153, 785, 534, 151, 60, 40, 46]
8.0[65, 153, 785, 534, 151, 60, 40, 46]
8.0[65, 153, 785, 534, 151, 60, 40, 46]
8.0[65, 153, 785, 534, 151, 60, 40, 46]
8.0[66, 162, 788, 530, 142, 59, 39, 45]
8.02[66, 162, 788, 530, 142, 59, 39, 45]
8.02[66, 162, 788, 530, 142, 59, 39, 45]
8.02[66, 162, 788, 530, 142, 59, 39, 45]
8.02[66, 162, 788, 530, 142, 59, 39, 45]
8.02[66, 162, 788, 530, 142, 59, 39, 45]
8.02[66, 162, 788, 530, 142, 59, 39, 45]
8.02[66, 162, 788, 530, 142, 59, 39, 45]
8.02[56, 137, 779, 556, 139, 58, 36, 41]
8.04[56, 137, 779, 556, 139, 58, 36, 41]
8.04[56, 137, 779, 556, 139, 58, 36, 41]
8.04[56, 137, 779, 556, 139, 58, 36, 41]
8.04[56, 137, 779, 556, 139, 58, 36, 41]
8.04[56, 137, 779, 556, 139, 58, 36, 41]
8.04[56, 137, 779, 556, 139, 58, 36, 41]
8.04[56, 137, 779, 556, 139, 58, 36, 41]
8.04[63, 159, 802, 584, 149, 64, 36, 42]
8.06[63, 159, 802, 584, 149, 64, 36, 42]
8.06[63, 159, 802, 584, 149, 64, 36, 42]
8.06[63, 159, 802, 584, 149, 64, 36, 42]
8.06[63, 159, 802, 584, 149, 64, 36, 42]
8.06[63, 159, 802, 584, 149, 64, 36, 42]
8.06[63, 159, 802, 584, 149, 64, 36, 42]
8.06[63, 159, 802, 584, 149, 64, 36, 42]
8.06[73, 210, 798, 546, 144, 67, 46, 55]
8.08[73, 210, 798, 546, 144, 67, 46, 55]
8.08[73, 210, 798, 546, 144, 67, 46, 55]
8.08[73, 210, 798, 546, 144, 67, 46, 55]
8.08[73, 210, 798, 546, 144, 67, 46, 55]
8.08[73, 210, 798, 546, 144, 67, 46, 55]
8.08[73, 210, 798, 546, 144, 67, 46, 55]
8.08[73, 210, 798, 546, 144, 67, 46, 55]
8.08[80, 207, 766, 449, 112, 64, 47, 56]
8.1[80, 207, 766, 449, 112, 64, 47, 56]
8.1[80, 207, 766, 449, 112, 64, 47, 56]
8.1[80, 207, 766, 449, 112, 64, 47, 56]
8.1[80, 207, 766, 449, 112, 64, 47, 56]
8.1[80, 207, 766, 449, 112, 64, 47, 56]
8.1[80, 207, 766, 449, 112, 64, 47, 56]
8.1[80, 207, 766, 449, 112, 64, 47, 56]
8.1[78, 193, 717, 438, 113, 60, 46, 57]
8.12[78, 193, 717, 438, 113, 60, 46, 57]
8.12[78, 193, 717, 438, 113, 60, 46, 57]
8.12[78, 193, 717, 438, 113, 60, 46, 57]
8.12[78, 193, 717, 438, 113, 60, 46, 57]
8.12[78, 193, 717, 438, 113, 60, 46, 57]
8.12[78, 193, 717, 438, 113, 60, 46, 57]
8.12[78, 193, 717, 438, 113, 60, 46, 57]
8.12[74, 189, 685, 390, 108, 57, 45, 54]
8.14[74, 189, 685, 390, 108, 57, 45, 54]
8.14[74, 189, 685, 390, 108, 57, 45, 54]
8.14[74, 189, 685, 390, 108, 57, 45, 54]
8.14[74, 189, 685, 390, 108, 57, 45, 54]
8.14[74, 189, 685, 390, 108, 57, 45, 54]
8.14[74, 189, 685, 390, 108, 57, 45, 54]
8.14[74, 189, 685, 390, 108, 57, 45, 54]
8.14[72, 178, 677, 346, 96, 50, 45, 55]
8.16[72, 178, 677, 346, 96, 50, 45, 55]
8.16[72, 178, 677, 346, 96, 50, 45, 55]
8.16[72, 178, 677, 346, 96, 50, 45, 55]
8.16[72, 178, 677, 346, 96, 50, 45, 55]
8.16[72, 178, 677, 346, 96, 50, 45, 55]
8.16[72, 178, 677, 346, 96, 50, 45, 55]
8.16[72, 178, 677, 346, 96, 50, 45, 55]
8.16[66, 130, 696, 365, 98, 47, 41, 46]
8.18[66, 130, 696, 365, 98, 47, 41, 46]
8.18[66, 130, 696, 365, 98, 47, 41, 46]
8.18[66, 130, 696, 365, 98, 47, 41, 46]
8.18[66, 130, 696, 365, 98, 47, 41, 46]
8.18[66, 130, 696, 365, 98, 47, 41, 46]
8.18[66, 130, 696, 365, 98, 47, 41, 46]
8.18[66, 130, 696, 365, 98, 47, 41, 46]
8.18[57, 135, 709, 422, 128, 53, 40, 44]
8.2[57, 135, 709, 422, 128, 53, 40, 44]
8.2[57, 135, 709, 422, 128, 53, 40, 44]
8.2[57, 135, 709, 422, 128, 53, 40, 44]
8.2[57, 135, 709, 422, 128, 53, 40, 44]
8.2[57, 135, 709, 422, 128, 53, 40, 44]
8.2[57, 135, 709, 422, 128, 53, 40, 44]
8.2[57, 135, 709, 422, 128, 53, 40, 44]
8.2[58, 139, 697, 411, 127, 55, 39, 40]
8.22[58, 139, 697, 411, 127, 55, 39, 40]
8.22[58, 139, 697, 411, 127, 55, 39, 40]
8.22[58, 139, 697, 411, 127, 55, 39, 40]
8.22[58, 139, 697, 411, 127, 55, 39, 40]
8.22[58, 139, 697, 411, 127, 55, 39, 40]
8.22[58, 139, 697, 411, 127, 55, 39, 40]
8.22[58, 139, 697, 411, 127, 55, 39, 40]
8.22[60, 139, 731, 481, 141, 56, 41, 43]
8.24[60, 139, 731, 481, 141, 56, 41, 43]
8.24[60, 139, 731, 481, 141, 56, 41, 43]
8.24[60, 139, 731, 481, 141, 56, 41, 43]
8.24[60, 139, 731, 481, 141, 56, 41, 43]
8.24[60, 139, 731, 481, 141, 56, 41, 43]
8.24[60, 139, 731, 481, 141, 56, 41, 43]
8.24[60, 139, 731, 481, 141, 56, 41, 43]
8.24[61, 133, 718, 480, 149, 63, 41, 41]
8.26[61, 133, 718, 480, 149, 63, 41, 41]
8.26[61, 133, 718, 480, 149, 63, 41, 41]
8.26[61, 133, 718, 480, 149, 63, 41, 41]
8.26[61, 133, 718, 480, 149, 63, 41, 41]
8.26[61, 133, 718, 480, 149, 63, 41, 41]
8.26[61, 133, 718, 480, 149, 63, 41, 41]
8.26[61, 133, 718, 480, 149, 63, 41, 41]
8.26[57, 124, 591, 450, 142, 60, 38, 40]
8.28[57, 124, 591, 450, 142, 60, 38, 40]
8.28[57, 124, 591, 450, 142, 60, 38, 40]
8.28[57, 124, 591, 450, 142, 60, 38, 40]
8.28[57, 124, 591, 450, 142, 60, 38, 40]
8.28[57, 124, 591, 450, 142, 60, 38, 40]
8.28[57, 124, 591, 450, 142, 60, 38, 40]
8.28[57, 124, 591, 450, 142, 60, 38, 40]
8.28[52, 120, 558, 406, 115, 52, 33, 35]
8.3[52, 120, 558, 406, 115, 52, 33, 35]
8.3[52, 120, 558, 406, 115, 52, 33, 35]
